##TITLE=JB236
##JCAMP-DX=5.0
##DATA TYPE=LINK
##BLOCKS=1


$$ === CHEMSPECTRA SPECTRUM ORIG ===
##TITLE=JB236
##JCAMP-DX=5.00
##DATA TYPE=INFRARED SPECTRUM
##DATA CLASS=XYDATA
##ORIGIN=Lara
##OWNER=
##XUNITS=1/CM
##YUNITS=TRANSMITTANCE
##XFACTOR=1
##YFACTOR=9.1127805e-010
##FIRSTX=3997.453
##LASTX=373.96442
##MAXX=3997.453
##MAXY=0.9784773546668851
##MINX=373.96442
##MINY=0.5599878998170296
##NPOINTS=2559
##XYDATA= (X++(Y..Y))
2559A007954253A008466788A008425712A007744817A006819298A006128657A005784351
2552A005679698A005869512A006446735A007196504A007724018A007916643A008025024
2545A008217192A008265790A007878118A007247849A006959466A007304100A007922792
2538A008204045A007918148A007380169A007014932A006889153A006793592A006682072
2531A006765009A007180414A007748938A008095861A008020903A007751096A007661095
2524A007666132A007266032A006345811A005515263A005498911A006361967A007538783
2517A008450567A008805208A008578504A007969166A007307893A006866326A006720205
2510A006826754A007087600A007298278A007263547A006996945A006676709A006527056
2503A006783977A007469385A008248326A008827708A009199551A009346849A009165016
2496A008781203A008564311A008695323A008913196A008842294A008475618A008047459
2489A007670383A007338439A007121285A007143197A007368396A007547090A007616422
2482A007921156A008702975A009601351A009903600A009393681A008369788A007186300
2475A006208193A005701806A005800834A006533400A007638072A008520618A008622589
2468A008077677A007695304A007983752A008717103A009335468A009610704A009698939
2461A009744594A009860692A010137040A010275639A009628429A008595903A008159895
2454A008301830A008548744A008639661A008580401A008420283A008203325A008136544
2447A008518722A009295962A009912299A009910860A009298971A008388168A007633232
2440A007434130A007912653A008805796A009615348A009970381A009758329A009213941
2433A008879380A008952702A009188955A009396559A009622085A009810786A009686773
2426A009044469A008021426A007092048A006672588A006852983A007509415A008262912
2419A008734175A008965260A009169202A009425600A009652956A009715095A009600043
2412A009492512A009542026A009596771A009415396A009134143A009177508A009630588
2405A009965018A009639222A008914242A008515059A008743266A009322714A009878418
2398A010313118A010641268A010760834A010701182A010704191A010854629A011009710
2391A011175584A011495755A011797285A011794669A011670263A011928558A012611677
2384A013050759A012995751A012764927A012373527A011719515A011163615A011024100
2377A011163222A011264670A010951170A010083340A009273331A009285562A009944022
2370A010555911A010824541A010966868A011264146A011602304A011636382A011465799
2363A011714871A012688989A013837614A014329873A013813217A012486552A010936584
2356A009996741A010154635A011170679A012358222A013064953A013066392A012635093
2349A012110457A011534607A010962421A010648921A010687054A010860123A011086172
2342A011657247A012614882A013319389A013414099A013176407A012836156A012344748
2335A011734494A011375078A011552006A011795388A011306138A010502212A010384281
2328A011061382A011731550A011836072A011708200A011721281A011836333A011875840
2321A011892911A012135966A012616386A012901891A012682252A012244543A011955114
2314A011856806A011806246A011705387A011477572A011135097A010827550A010654219
2307A010541129A010334441A010019372A009820467A010022380A010638260A011320135
2300A011575618A011032472A009971624A009285431A009381450A010069801A010926772
2293A011526693A011798855A012120857A012735363A013419463A013761480A013449354
2286A012531683A011504651A010954048A010987406A011255447A011469069A011457492
2279A011077604A010443802A009920540A009776840A010109176A010763843A011167605
2272A010790006A009783380A008914111A008841967A009497876A010427123A011242824
2265A011663984A011605182A011200701A010678551A010315996A010329208A010655789
2258A011001404A011094348A010786604A010149991A009577215A009398783A009532411
2251A009690109A009754078A009942190A010460089A011032080A011079304A010418359
2244A009514751A008881669A008583737A008471236A008504201A008721289A009093525
2237A009491924A009754601A009820401A009815103A009935977A010219846A010493316
2230A010524058A010158232A009416181A008565161A008017764A008030714A008517871
2223A009183788A009760749A010084191A010114278A009984771A009868083A009759114
2216A009575384A009432010A009556023A009897648A010111139A009979342A009664142
2209A009455557A009416247A009418667A009355352A009158409A008851451A008669879
2202A008816392A009090712A009108307A008842686A008567385A008393924A008274882
2195A008275797A008495633A008847526A009134666A009267052A009314407A009359277
2188A009379357A009391653A009533850A009758787A009720654A009283077A008837519
2181A008796966A009072267A009300083A009362285A009454576A009683372A009807189
2174A009602397A009314211A009348026A009646744A009782923A009553341A009107326
2167A008664123A008361220A008186189A008034050A007973221A008252774A008872774
2160A009423311A009581336A009525216A009601154A009783773A009747602A009350250
2153A008797293A008399483A008289402A008296924A008123528A007749134A007507910
2146A007616553A007892246A008116856A008345326A008654247A008861327A008722532
2139A008321059A008071398A008256960A008673542A008917513A008913784A008936023
2132A009175219A009527767A009766571A009784492A009657863A009519787A009414873
2125A009310352A009189674A009089077A009069259A009148206A009225845A009134143
2118A008833529A008504921A008383720A008524347A008802003A009101505A009344691
2111A009372293A009079855A008683484A008571637A008857861A009228592A009227545
2104A008705919A008094683A008073818A008824830A009791556A010278386A010097861
2097A009597426A009219566A009077958A008976903A008834183A008817373A008960813
2090A009027332A008870485A008562937A008147860A007638726A007221686A007146205
2083A007485410A008163492A009043357A009847676A010192571A009834398A008787417
2076A007222340A005393670A003583380A001992075A000785694A000259228A000687256
2069A001960091A003567224A004942618A005732286A005915428A005823792A005860354
2062A006138992A006526532A006915643A007256418A007493651A007660049A007864644
2055A008057335A007983490A007474618A006638772A005728362A004949879A004431849
2048A004241905A004392408A004856804A005545089A006290280A006972679A007572206
2041A007982444A007998468A007712179A007600004A007932276A008401053A008592240
2034A008516629A008411322A008304642A008072772A007786613A007771438A008313211
2027A009338739A010392065A011019783A011171922A011072175A010780979A010198589
2020A009476291A009031845A009116221A009617049A010258372A010812114A011185592
2013A011420079A011601716A011788520A011972382A012007505A011702705A011143731
2006A010728849A010744024A011116652A011658097A012259128A012813656A013196095
1999A013359811A013330704A013128202A012786708A012448287A012352335A012666489
1992A013310493A014005908A014499541A014692690A014612304A014397635A014292133
1985A014464220A014827037A015170559A015409493A015533179A015470257A015238256
1978A015027185A014926783A014821085A014740241A014939669A015393010A015610884
1971A015273445A014698315A014399925A014509156A014882568A015399617A015823393
1964A015768124A015208364A014705640A014768367A015273576A015774796A016064813
1957A016132118A015862507A015166700A014333732A013949527A014326472A015092200
1950A015488571A015141779A014450223A014101862A014293245A014577834A014388936
1943A013524246A012123800A010401091A008489027A006413900A004159099A001840394
1936I99797253I98396807I97773864I97864323I98608990I99961819A001696890
1929A003355369A004490062A005000635A005197970A005435466A005688136A005646929
1922A005188094A004524794A003889358A003280215A002576951A001786891A001134776
1915A000902251A001149492A001639396A002065201A002304201A002378177A002121582
1908A000977274I98447433I94930720I91770806I90101404I89841278I90088388
1901I90213121I90252889I90454345I90865040I91456326I92375305I93814929I95635358
1893I97251648I97836655I96482715I92503504I86272500I79837163I75982619I76186822
1885I79587436I83924558I87264932I88964552I89527909I89886017I90661360I91886578
1877I93352627I95081027I97223785I99574539A001563262A002848393A003585211
1870A003978966A003894721A003095700A001595639I99551450I96926507I93505093
1863I89457203I85894509I84456323I85944480I89513127I93494955I96812174I99309442
1855A001125161A002337755A003055736A003393698A003388400A003070453A002456012
1848A001452788A000034487I98500086I97294491I96598029I96275503I96136054
1841I96049650I95788870I94856482I92677358I89198189I85248804I82041600I80309603
1833I80055363I80908607I82429795I84165063I85658060I86528637I86669002I86393243
1825I86121997I85825635I85064223I83593006I81576355I79274198I76949934I74996466
1817I73732592I73078842I72651664I72071301I71039494I69294153I66729385I63597727
1809I60481768I57906076I55821139I53402622I49454872I43429118I36561762I31852666
1801I32074725I37408138I45340594I52911802I58701369I62828467I65820413I67897306
1793I69042072I69304815I68899745I68136698I67372408I66932149I66945623I67312756
1785I67916993I68756502I69782488I70729134I71319831I71689516I72423587I73970546
1777I76124684I78347828I80489343I82848928I85568451I88313026I90631861I92389891
1769I93698700I94581966I94970357I95044464I95255469I95815425I96429996I96734469
1761I96755269I96752130I96785749I96610914I95921451I94657773I93085698I91518332
1753I89994790I88365417I86619096I84868000I83027491I80763402I77805206I74157808
1745I70084017I66125344I63109851I61883586I62896229I66026186I70727433I76263218
1737I81836612I86718516I90526947I93413326I95760025I97708195I99181439A000242418
1729A001107828A001865773A002410292A002649750A002660411A002634183A002733472
1722A003071499A003802496A004997103A006367722A007395409A007831809A007873736
1715A007837892A007899703A008100962A008382477A008598650A008676093A008774858
1708A009158475A009854021A010578346A011061121A011300644A011444410A011593344
1701A011775962A011973559A012147609A012314006A012506305A012646474A012614097
1694A012498914A012597287A013064037A013696726A014170016A014415753A014621395
1687A014881980A015053544A014992715A014759079A014523545A014432956A014562136
1680A014840969A015062701A015108160A015092200A015174549A015349972A015537823
1673A015731888A015938119A016061216A015979456A015685841A015281163A014857844
1666A014443617A014055160A013739045A013529740A013402457A013307615A013245936
1659A013285573A013468388A013707191A013874243A014018467A014349757A014942482
1652A015591523A016010656A016085940A015958788A015915749A016101115A016341881
1645A016384592A016243115A016154226A016278958A016585721A016940492A017214028
1638A017361064A017439815A017546037A017732253A017974000A018202927A018369586
1631A018464035A018496739A018502102A018541609A018649989A018804090A018966040
1624A019128055A019315906A019548626A019765911A019845054A019743607A019531359
1617A019249516A018887616A018517408A018279193A018217382A018267812A018400459
1610A018671770A019117458A019615931A019905426A019834851A019570145A019424679
1603A019505653A019654391A019680946A019551766A019403159A019421212A019635357
1596A019832561A019776703A019445740A018955051A018357420A017704717A017203562
1589A017075494A017240649A017306383A016976663A016368763A015810574A015434806
1582A015154011A014914487A014721273A014512099A014282452A014241376A014595886
1575A015268932A016006077A016631310A017056722A017193490A017061170A016937680
1568A017225539A018082904A019240360A020244892A020865153A021218290A021521847
1561A021811800A021971460A022001875A022096062A022391901A022829283A023331810
1554A023902558A024447731A024737292A024667960A024400181A024169618A024088251
1547A024126907A024164516A024084196A023937290A023950110A024271458A024825920
1540A025498900A026275159A027090597A027787779A028309994A028705646A028945692
1533A029018818A029120134A029430625A029794030A029874351A029525662A028876621
1526A028207958A027841348A027996822A028640499A029479485A030144420A030448173
1519A030512796A030644200A031064707A031718784A032307716A032588380A032616179
1512A032540567A032287505A031762411A031213771A031017613A031207623A031498753
1505A031638137A031553564A031318947A031103167A031029910A031026639A030871558
1498A030432148A029890703A029649610A029922753A030488072A030924800A030990469
1491A030741331A030444380A030398594A030703852A031185646A031594313A031831547
1484A031934694A031904673A031688043A031376702A031255109A031478607A031861046
1477A032163622A032379272A032571047A032728157A032931902A033259464A033378048
1470A032771849A031617468A030880322A031215341A032230011A033109942A033530971
1463A033712739A033955664A034358837A034786996A035011934A034913037A034494166
1456A033823933A033138786A032802394A032956953A033394596A033816280A034009298
1449A033899544A033722747A033934537A034702686A035669805A036335198A036456660
1442A036076248A035430477A034884127A034740688A034973016A035193113A035031229
1435A034572982A034287869A034465190A034864439A035026781A034833043A034635970
1428A034845863A035427600A035837379A035574309A034828072A034367798A034658078
1421A035312940A035590400A035216856A034560947A034193421A034416985A035086171
1414A035804545A036308642A036625085A036964420A037645379A038858498A040138004
1407A040452812A039417799A038103954A037993807A039243226A040547784A040758658
1400A040019027A039090107A038302139A037628505A037186087A037177584A037592073
1393A038142937A038539177A038843846A039210522A039362268A038931362A038120895
1386A037483627A037220034A037167119A037261110A037531636A037758928A037666899
1379A037426526A037525095A038071773A038535187A038377031A037682074A036871607
1372A036165857A035618656A035337926A035339430A035393588A035340607A035398559
1365A035822859A036417742A036761198A036819542A036935706A037212904A037329395
1358A037113288A036967494A037455305A038609294A039855050A040510174A040274706
1351A039445205A038761367A038783998A039364688A039947864A040255803A040285106
1344A039856424A038799565A037636746A037495531A038950723A041162682A042576012
1337A042483461A041549830A040857555A040961553A041806425A042943800A043756034
1330A043894567A043581330A043309103A043341806A043652624A044135072A044630862
1323A044916432A044918068A044852595A044949267A045160142A045300703A045288276
1316A045197751A045269307A045722583A046327997A046506429A046163497A045991278
1309A046551234A047429202A047776386A047537713A047575781A048280353A048684965
1302A047850232A046669491A046978216A049010303A051075291A051741338A051177131
1295A050384324A050176000A050892215A052260545A053379737A053306480A051784704
1288A049365206A047057032A045904940A046393405A047921591A049170160A049303657
1281A048528902A047454253A046573996A046410542A047227615A048519549A049653719
1274A050679902A051652188A051964052A051305527A050222374A049039344A047536667
1267A046043212A045544347A046529191A048624593A051071432A052851570A053170171
1260A052369057A051413448A050853428A050867753A051233447A051280474A050917005
1253A051136905A052636836A054609664A055538127A054591808A052206257A049862370
1246A049023123A049791730A050863697A050948073A049898214A048535574A047818051
1239A048142277A049214245A050466345A051444714A051834021A051482324A050591536
1232A049674257A049144258A049012004A049040914A049073356A049058444A048960070
1225A048960659A049593937A051207480A053282280A054632426A054465833A053169386
1218A051949858A051718315A052402349A053269002A053720381A053709719A053475494
1211A053034188A052186046A051114078A050516513A050790244A051466037A051829901
1204A051791833A051808251A052164723A052565869A052399667A051410899A050137475
1197A049547890A050132504A051421168A052575287A053346837A054040094A054638509
1190A054675072A054067630A053520233A053841581A055087664A056465348A057046626
1183A056681977A055987086A055188654A053780817A051667362A049689955A048668352
1176A048668679A049426755A050759961A052276505A053250688A053272861A052783218
1169A052500330A052546573A052686023A053126020A054341951A056395688A058974650
1162A061482318A062719048A061710329A059376319A058087525A059149485A061702873
1155A064061803A065284601A065425032A065120820A065171838A065947573A066938698
1148A067182276A066248908A064578786A062800088A061132583A059742014A059242626
1141A060197972A062265510A064240301A064867561A063656079A061445100A060246439
1134A061511490A064143432A065530731A064830148A063401970A062394691A061650220
1127A060603303A059469853A059558611A061875288A065417902A068001312A068580825
1120A067742101A066286190A064613518A063136676A062199449A061856058A062069876
1113A062745080A063518003A063843865A063350494A062241375A061478590A061987855
1106A063530300A065003152A065594242A065310372A064731055A064521162A064947424
1099A065681038A066183500A066196451A065754948A065028072A064331872A063972653
1092A064008692A064310353A064729878A065171838A065597512A065969159A066224184
1085A066423285A066767395A067247095A067505783A067271035A066693811A066192722
1078A066141442A066654959A067450906A067993136A067957620A067513305A067114579
1071A067149965A067632739A068184454A068437778A068299441A067887176A067398253
1064A066961067A066506222A065859208A064974634A063978409A063042751A062399400
1057A062443485A063501194A065297683A067085473A068354383A069031222A069255506
1050A069209655A069140846A069355579A069944380A070583414A070894100A070943222
1043A071022758A071012423A070483994A069506017A068855472A069033446A069577835
1036A069942810A070113917A070330024A070692775A071006798A071004378A070683291
1029A070391704A070561568A071280333A072169094A072659521A072541395A072142931
1022A071771872A071427043A071109750A070992866A071214925A071720920A072269037
1015A072560952A072542441A072478144A072631854A073014096A073407916A073561821
1008A073448208A073287959A073231904A073239753A073276709A073371026A073448927
1001A073354348A073124439A072952417A072897147A072771041A072398413A071899941
994A071493890A071187454A070862378A070508391A070257291A070299021A070658240
987A071021384A071114067A070991296A070849165A070878010A071198574A071775601
980A072437200A073053210A073533238A073741823A073637040A073302806A072859930
973A072567361A072667435A072944830A073009976A072752989A072227176A071515997
966A070750073A070107114A069796362A069915601A070181025A069923384A069050910
959A068385779A068403373A069005321A069877010A070728553A071390872A071744467
952A071717192A071361700A070781665A070003051A069111674A068284855A067502513
945A066680926A065902770A065244114A064587093A063839482A063096385A062327648
938A061242141A059697210A058050439A056502434A054906027A053437100A052337268
931A051332802A050009865A048439490A046850278A044680899A041039977A036691016
924A032791079A028756729A023323634A014433479I99353788I77895141I52599022
917I22563130H84911684H45518102H15584835G94870398G75119220G51393345
910G27510360G11582069G07013207G12382006G25539494G45573232G67330596
903G78360763G78434216G73586978G65888094G58833868G57688710G63396320
896G74234580G88108676H02911037H18114283H34683701H51671597H66798774
889H80713357H95258274I10953909I26416170I39742214I50393865I58664675
882I64482432I67917713I69415616I68901707I66192714I62699417I60402820
875I60242244I62395860I65758276I67687085I65819236I59757442I50811363
868I40883710I31272107I21857512I11286442H97740498H79973006H58432796
861H35155095H12270101G90856390G70794983G51554313G33622714G19101213
854G10471315G08558792G12170869G20260434G33100629G49010410G63756782
847G76311015G88372334H00554593H11657623H21396117H30690623H39566389
840H47548489H55565059H66112778H78560199H87989642H94790151I01135029
833I07313379I13166850I18779096I23984637I28617141I32992854I37525283
826I42516679I48741535I56395353I63289133I68394339I72858418I77666018
819I82652966I86904535I90174465I92769517I94624415I95287781I94202274
812I90285593I82603845I71916088I57996077I37950695I10613135H78174882
805H42829974H07033361G74737304G48685856G31069195G26191674G31639224
798G41088943G52773383G67183233G84897482H05939678H28060905H47823856
791H64765836H80731933H96320234I09290002I17574089I22058837I24591752
784I26492501I28816373I32444148I37711499I44315720I51640014I59214558
777I66852286I73844767I78899019I81327609I79833107I69811724I45465522
770I09973120H75751525H52166472H43444938H50608852H64732282H72862007
763H74089253H72850822H73430924H80267472H94697860I10245805I16236893
756I07015643H86139911H62844876H42783862H24784042H09994435H07266801
749H20497742H44812810H73731668I01056540I22713764I38800865I51233374
742I61005095I68476753I74775388I81439849I88570013I94924833A000196567
735A004909522A009347699A013417239A016811508A019252656A020688945A021182708
728A020816686A019694682A017752987A014763396A010628514A005316489I98667465
721I90804930I82095889I72067900I58902694I40265606I15442712H86413184
714H55382898H23618803G93568260G69580296G55722814G53919392G64019787
707G83451251H06994639H30216025H52255950H73679342H94140521I13132838
700I30817196I46641357I58480094I64441291I64143555I57860945I46059817
693I29852301I10915188H90498748H69067507H47417608H27973520H14573239
686H10424491H16019993H29147851H46158313H62968562H76341568H84897360
679H88841774H89649821H89961097H92541628H98773679I08221174I19382613
672I30598995I40627965I48913099I55462115I60458875I64010123I66203834
665I67327866I68003593I68948146I70351535I71415261I70556130I66241705
658I57795798I45370681I29311117I09949246H88202936H66313972H47804364
651H36281481H33821758H40207189H53380963H70438977H88474902I05131573
644I18921031I29235113I35997816I39064720I37625553I30070632I14715247
637H91038362H60439048H25964848G91551673G61421922G39246145G26437673
630G20482101G15427194G05125474F86947026F63193875F39505021F21896078
623F14508272F18544846F32112571F51077482F70757496F87622753G00226630
616G09173298G16400919G24134666G33901155G46068565G60038483G74727232
609G88935560H01512816H11410186H17710260H19620101H16393929H07466491
602G93192100G75689183G58362475G43676800G30924121G16388165F96571318
595F72092599F48406622F32233772F27061851F31837728F43143915F57879234
588F74298999F91646965G09441339G27103524G44056034G59931999G74544351
581G87737552G99324338H08938885H15854053H19460898H20496499H21416721
574H24541510H29353100H31680177H25636763H07325145G78513751G47300586
567G23836930G14109490G17441164G29180481G44630184G60709174G75697294
560G88689300G99447566H08539047H17126038H26070809H35111468H42945354
553H48025508H49561282H48288513H46353032H46172049H49190355H55352811
546H63350870H71444817H78286533H82878092H83640484H77631540H61191172
539H32841819G96993206G64048828G44657393G42784573G54394318G72160370
532G90579584H07405792H22291942H35297814H46434530H55836370H63842933
525H70759082H76518693H80535513H81811618H79318210H72782471H63598569
518H54736081H49077722H47633323H49489594H53221892H58035510H63816639
511H70572147H77989059H85430040H92213020H97893617I02356715I05553584
504I07085499I06318201I03244756H99187513H96329914H96292501H99076451
497I03448763I08256625I13144938I18165506I23216227I28046066I32566003
490I36907180I41092753I44769976I47447573I48870453I48834152I46541676
483I40247685I28059801I10261176H91415438H78967362H78264360H88860350
476I05866887I24119573I40636468I54297203I64851136I72511495I77652871
469I80109128I77984227I66929271I42815724I07956599H73137766H49022387
462H35156861H21037617G98406210G69543798G43595564G27623581G21520907
455G19453760G15401227G08200161G02022661G02268071G11112637G26619637
448G45115117G63666716G80747034G95661504H07917870H17237166H24238149
441H30671786H38240116H47215825H56623553H65450524H73262172H80036648
434H85910983H91024888H95466009H99358031I02883247I06131658I09044984
427I11596802I13928784I16192285I18334650I20170842I21639181I22899065
420I24248688I25978592I28195784I30762449I33473339I36257354I39207047
413I42482210I46161657I50152249I54254950I58261632I61961552I65188378
406I67948912I70453179I72991261I75728248I78577148I81379739I84225696
399I87411445I91050929I94827572I98088933I99763306I97360095I86272239
392I62876607I30901310I02763682H90663118H96131206I10237171I22647245
385I27788817I23808101I09950293H87026382H59590644H35931681H24153250
378H27145393H41277521H59708836H76180273H86261176H87980681H83665862
371H79959205H83307690H94855885I10356279I24177851I32034303I30355875
364I15210449H84381227H42249481H01736903G78042031G78196131G97089944
357H23629661H49177535H70424653H87438581I01191738I12364427I21314169
350I28623093I35197880I41686001I48120946I54246643I59954319I65281846
343I69984859I72982365I71460262I59892051I32155896H89096537H44482239
336H18196436H20151473H42992970H71418523H95308507I13070373I26807374
329I37844735I45940383I50317207I50253566I45231820I36179584I27028058
322I23354172I28237449I39813312I52649909I60813385I61116157I55814663
315I51717195I54610049I64385106I76241045I85441953I89421295I86387029
308I74610430I54601022I31504893I13781421I08101477I15172709I30581532
301I48844094I66138753I80599359I91549074I98260367I98275476I86041545
294I54369741I01237000H37747007G86225325G65448096G77110101H07976737
287H42805185H72959792H95944205I11822328I21172954I24447985I21726107
280I12456783H95184821H67943148H30024119G84461670G38913677G03068335
273F84020814F83176138F96025686G13991036G28452951G36196966G41356067
266G50418377G65538882G83737934H01187085H16207124H28847499H39575677
259H48801898H56967467H64585768H72019621H79303754H86303234H92736740
252H97547610H98033524H90016104H70276897H40262132H07275696G80933446
245G67678239G68324860G79947751G98532447H19877284H40173897H57224127
238H70874593H82079267H91729918I00207743I07594110I13384592I15254469
231I09720581H96833489H83572526H79046179H85801622H98521335I10959142
224I21044886I29447884I36543775I42038810I45881189I48426596I50210527
217I51750030I52880602I52261976I48784115I43963237I41402328I43246303
210I49013893I56946937I64315316I69159544I71505655I70435911I61827205
203I39550242I01923846H58557398H27387140H21017079H37078279H63044108
196H87676862I06678990I20819621I32189058I41885887I49643900I54703713
189I56115539I52011726I39400262I15777861H82918448H50058969H30451166
182H31468322H48754674H71554899H91930785I07727738I19853484I29645481
175I38076802I45676070I52738798I59547810I66083483I71688273I75655580
168I78269077I80582288I83036648I85242721I87175454I89230239I90939735
161I90906378I88016205I81427879I69027421I46860016I11859937H67530491
154H26691528H04342944H06371631H26933014H54886257H81438532I03486438
147I21587051I36263437I46781003I52297362I52695433I48355956I40078409
140I28976295I14963273H95426110H68108630H36779627H11980149H03691090
133H13085605H32489533H52824605H69690843H83227761H94805260I04875567
126I12920524I18458467I22031038I25167536I29176573I34012364I38533936
119I41849847I44176139I46283054I48361516I49907035I50425261I49297958
112I45095380I36318903I23378438I09801294I01200110I01513675I09851920
105I21875957I33292748I42106050I48831078I54766177I60170558I64406559
98I67416232I70212871I73491172I76544602I78473935I79672466I81164809
91I83219921I85332591I87054057I88237676I88792595I88649483I87942098
84I86995648I85976007I84788464I83438971I82017792I80334654I78401921
77I77330280I78728240I83030304I88901041I94320597I98090699A000256350
70A001147530I99533202I92199423I77272133I58468648I43684469I38063066
63I40154675I44109685I43150284I33250102I18692889I09882792I13086725
56I26238261I42286444I55785426I65386498I71548301I75777761I80477832
49I86358838I91217915I93139987I92758921I91195676I87652538I80663263
42I70863678I60355923I49675819I37408400I23347565I10648586I03357977
35I02469740I07300560I18680788I35047246I50022218I60592699I68448562
28I75599722I82546025I88986726I94618267I98360702I98190969I93666781
21I87750061I83055682I75546742I56506023I29613562I12496943I11377555
14I17618763I22295286I23549283I23320683I22327139I20744272I20602402
7I23336642I27006867I28573448I25611720I15290901H96889543H78664132
##END=


$$ === CHEMSPECTRA PEAK TABLE AUTO ===
##TITLE=JB236
##JCAMP-DX=5.00
##DATA TYPE=INFRAREDPEAKTABLE
##DATA CLASS=PEAKTABLE
##$CSTHRESHOLD=0.93
##MAXX=3997.453
##MAXY=0.9784773546668851
##MINX=373.96442
##MINY=0.5599878998170296
##NPOINTS=53
##PEAKTABLE= (XY..XY)
3112.1205674354965, 0.9092494211268852
3068.208078780297, 0.9020206296253479
3045.543568506646, 0.889391537876213
3008.7137393119624, 0.8971134383336101
2969.0508463330725, 0.8931029400866821
2925.1383576778735, 0.8491768803597812
2905.3069111884283, 0.8811440432230294
2865.6440182095384, 0.9083183373597464
2840.146444151681, 0.8765433985770873
1658.7588461376072, 0.6442856165992064
1644.5935272165752, 0.6904650901558155
1612.0132936982013, 0.8750476796399442
1580.849592071931, 0.6456940742841156
1505.7734017904609, 0.6617625326089557
1459.0278493510555, 0.7686128583830109
1451.945189890539, 0.7954097950130571
1434.9468071853007, 0.735644516245018
1376.8689996090693, 0.6870301933989456
1344.2887660906958, 0.7385220498307226
1293.2936179749804, 0.7598434656778119
1255.0472568881937, 0.5599878998170296
1211.1347682329942, 0.5714277008086706
1174.3049390383107, 0.6507523035336945
1150.2238968725565, 0.7710980147772244
1130.3924503831117, 0.6768832772535226
1103.4783444331506, 0.7724296416984602
1079.3973022673963, 0.816771682540903
1049.6501325332288, 0.800343033365298
1012.8203033385453, 0.6397378415718911
923.5787941360436, 0.8116417493779599
909.4134752150117, 0.7510327665611625
898.0812200781857, 0.8018875084119502
882.4993692650505, 0.7090126248277195
848.5026038545734, 0.7456044527150297
828.6711573651287, 0.8414323893195246
818.7554341204063, 0.8672789896110698
803.1735833072712, 0.8275329431626798
783.342136817826, 0.6975360482990928
757.8445627599685, 0.6225634188431709
719.5982016731818, 0.6995683286633539
695.5171595074276, 0.8010554878590709
672.852649233776, 0.8578792777253004
654.4377346364345, 0.748174842767816
631.7732243627834, 0.7567719191727063
589.2772675996871, 0.7329800695395792
562.363161649726, 0.7323860492975744
525.5333324550429, 0.8212438789005855
481.62084379984344, 0.890619631764354
463.20592920250147, 0.8548362815615013
454.7067378498823, 0.8291562164223156
422.12650433150884, 0.822400864851207
393.7958664894445, 0.8305183611341678
383.88014324472215, 0.8389247617198761
##END=

##END=

