##TITLE=X8585
##JCAMP-DX=5.0
##DATA TYPE=LINK
##BLOCKS=1


$$ === CHEMSPECTRA SPECTRUM ORIG ===
##TITLE=X8585
##JCAMP-DX=5.00
##DATA TYPE=INFRARED SPECTRUM
##DATA CLASS=XYDATA
##ORIGIN=ComPlat
##OWNER=
##XUNITS=1/CM
##YUNITS=TRANSMITTANCE
##XFACTOR=1
##YFACTOR=9.2015401e-010
##FIRSTX=3997.453
##LASTX=373.96442
##MAXX=3997.453
##MAXY=0.9880078441381602
##MINX=373.96442
##MINY=0.47947192196784105
##NPOINTS=2559
##XYDATA= (X++(Y..Y))
2559I69396222I68912469I68933845I69499023I70261381I70868988I71196759I71326701
2551I71398733I71416158I71267106I70979173I70793134I70845927I70979821I71022444
2543I71040711I71144225I71267624I71326830I71374182I71463380I71500627I71298134
2535I70773248I70134808I69806065I70024298I70629314I71304418I71861887I72247374
2527I72396037I72249317I71932170I71630634I71211657I70466271I69756641I69716932
2519I70180151I70281786I69637192I68552116I67454343I66720098I66724049I67462051
2511I68304927I68587289I68225900I67691750I67506877I67681256I67838470I67816769
2503I67894437I68498869I69624625I70694803I71210038I71176613I70754527I69896235
2495I68681669I67684819I67507071I68027294I68824308I69929335I71183285I71794325
2487I71229665I69941190I69232078I70049432I71369583I71610747I70924566I70385299
2479I70008234I69174621I68716390I69823425I71402231I71592156I70473914I69117941
2471I68024573I67470991I68161771I69787280I70811596I70909214I71178815I72131682
2463I72722253I71917077I69749386I66796405I64019747I63554325I67469047I72524489
2455I74503745I73828187I72050193I70124897I68616892I67740138I67283073I67213827
2447I68115131I70077027I71829693I72428360I72294985I72155650I72141334I72008412
2439I71634585I70824422I69279106I67505581I67122750I68623435I69771798I69730147
2431I70425915I72650350I74541380I74743224I73589161I72086403I71323462I71227592
2423I70321559I68487857I67700430I68780389I69696787I69763377I70570561I72538351
2415I74197609I74707014I74600003I74380928I73882470I73013813I72272378I72047473
2407I72088088I72202678I72641152I73285746I73429486I72794608I71874130I71478408
2399I72217836I73816657I75144970I75596594I75407964I74683241I73403186I72159213
2391I71895571I72537963I72685071I71402101I69179155I67620625I68444197I70713847
2383I71466489I70545428I70327842I72252232I74021870I73246815I70396506I66957764
2375I64726591I65376044I68516359I71609322I73033959I72863531I71699038I70329138
2367I69626439I69792397I70146273I70221349I70351162I70966736I71807086I72119893
2359I71587816I70967254I71526602I73139091I74234208I74038906I72845264I71415769
2351I70749604I71371332I72565428I73281665I73293584I72864502I72121448I71007416
2343I69840138I69860089I71996882I74621962I75610845I74939109I73594278I72274969
2335I71002623I69446878I68036751I68540844I71224677I73053780I72934526I72988874
2327I74746204I76612489I77025765I76554838I76277787I76335050I75899879I74510676
2319I73061877I72693168I72725751I71728835I70033885I69616723I71967344I75443397
2311I77503883I77907960I77418636I76754091I76301172I75856220I74968518I73646942
2303I72353478I71255187I70075861I69238491I70509088I74113270I76725524I76619873
2295I74881199I73010898I72125140I72641541I73633468I73768009I73116743I72633962
2287I72671727I72840341I73097051I73820932I74791354I75295317I75178136I74870057
2279I74718156I74618076I74299762I73823977I73574975I73713338I73809013I73390166
2271I72720828I72825183I74277220I75980591I76635096I76184379I75349730I74919676
2263I75219852I75932332I76523356I76752018I76597590I75919895I74635371I73340612
2255I73303884I74830608I76605817I77637712I77933159I77778148I77367916I76819710
2247I76254662I75957984I76299876I77106412I77507510I76982948I76087926I75833094
2239I76543437I77673987I78533186I78770723I78538822I78325188I78341512I78246743
2231I77717517I76929960I76313414I76127311I76343859I76795743I77305147I77709031
2223I77977466I78367228I79175707I80232735I80915289I80845006I80341690I80082712
2215I80443519I81069976I81130024I80227035I78907143I78037320I77802569I77776140
2207I77916317I78658205I79982373I81061555I81173424I80570287I80074421I80098842
2199I80372589I80497478I80412491I80283002I80225416I80210970I80125789I79942535
2191I79801063I79805727I79841095I79766472I79664837I79704351I79898552I80167635
2183I80500005I80879338I81125878I81038170I80742594I80584409I80555324I80239796
2175I79541308I78952551I78862641I79170655I79718148I80499292I81366265I82065141
2167I82521171I82734869I82627469I82214712I81771185I81702457I82265108I83310735
2159I84317626I84822432I84797817I84546418I84377545I84473090I84884488I85485163
2151I85982131I86167328I86107992I85926553I85576887I85099158I84831760I84969993
2143I85161538I84920439I84265157I83716433I83794165I84566758I85601114I86363148
2135I86647519I86562207I86284315I85998908I85874148I85933160I86089207I86305756
2127I86563956I86765412I86823906I86778044I86708733I86639357I86585398I86633592
2119I86888424I87343869I87862408I88344606I88863922I89498152I90065273I90260251
2111I90075572I89807655I89645066I89542848I89477941I89497893I89490314I89218510
2103I88667260I88175733I88182211I88903565I90178827I91515043I92357012I92455278
2095I91979622I91274202I90598192I90082892I89784919I89757000I90092932I90745559
2087I91324404I91397732I91021249I90640232I90496233I90443310I90288623I90057888
2079I89918165I89939800I90001209I89981452I89917841I89841404I89659446I89363286
2071I89144341I89185409I89507932I89995120I90428282I90608426I90540540I90369789
2063I90131475I89739640I89203482I88692846I88389367I88355877I88545155I88865282
2055I89196421I89385764I89324744I89071920I88868327I88979937I89441343I89927039
2047I90053095I89896918I89979573I90581933I91324793I91606054I91218300I90380865
2039I89391594I88419877I87500435I86644539I86010762I85873889I86267862I86738141
2031I86668377I85894035I84830011I83970552I83495997I83464710I84042454I85215757
2023I86457334I87034236I86713202I85994244I85543398I85514637I85612839I85688886
2015I85862359I86070033I86012252I85657664I85347966I85286493I85273084I85068778
2007I84735566I84486499I84395164I84406629I84496475I84626029I84681154I84697931
1999I84941556I85472532I85899022I85895201I85685129I85697631I86014649I86399359
1991I86598936I86486742I86135458I85803412I85776853I86248558I87186462I88101564
1983I88260720I87501212I86555147I86232429I86540637I86905719I86958965I86809137
1975I86732571I86827339I86974188I87007224I86823582I86401950I85881662I85595090
1967I85846748I86583260I87321003I87503026I87022447I86340153I86024236I86290404
1959I86998285I87864934I88653138I89319109I89907541I90248721I90029840I89264307
1951I88428687I88031346I88147167I88383084I88299133I87841679I87283692I86883889
1943I86820926I87243660I88051686I88776279I88988876I88746158I88448703I88319732
1935I88193417I87880999I87529066I87378654I87357343I87228826I87022641I87050301
1927I87536969I88318825I88891323I88860877I88352315I87805793I87421731I87045572
1919I86571017I86208591I86237157I86568750I86791712I86733607I86679648I86860310
1911I87078738I87036179I86706401I86284639I85984722I85853160I85684546I85279950
1903I84762319I84411293I84295213I84256930I84127182I83859719I83602166I83644401
1895I84141822I84925945I85703656I86383100I87097717I87924399I88693106I89160470
1887I89310105I89341845I89423075I89601859I89887914I90223652I90428606I90383975
1879I90249045I90304364I90630191I91098139I91561941I91868271I91877145I91706393
1871I91710669I92005597I92275199I92257968I92116171I92148949I92429432I92869396
1863I93368955I93794927I94071848I94332834I94736847I95156277I95314591I95184390
1855I95019209I95054318I95330073I95709536I95984643I96064447I96064447I96148658
1847I96333336I96469497I96362745I95941955I95390639I95080877I95290494I95907623
1839I96421562I96331199I95601812I94586500I93530573I92302081I90525706I87851331
1831I84174858I79526992I73509032I64912954I52024959I33186307I07534754H76470061
1823H44695480H18309746H00426552G88830401G78653769G67254345G55993803G47653335
1815G43229403G41456137G40599917G40215402G41386373G45173614G50198287G51717432
1807G44254107G26579689G04514892F88216528F85811105F98625320G21475276G46760711
1799G68416053G83667818G93228552H00510243H09550172H22285747H37363003H51634372
1791H62596487H69362166H72139667H71628254H68782284H64717474H60770947H58348035
1783H58061268H58960953H59298959H58375436H57268789H57526147H59429938H61686956
1775H62417315H60347890H55701319H50342398H46667674H45997947H48076182H51887325
1767H56522236H61270052H65173633H66634868H63784429H55846484H44317572H32265457
1759H22032081H14016079H08250360H06498860H11393461H23402110H39816296H56959868
1751H72474368H85479867H95736759I03227938I07944014I09380764I06264286H97603562
1743H84871031H72637671H65518310H64004930H64244021H62424246H58754574H56700566
1735H59084612H65754033H74592441H83678231H92176625H99889082I06659166I12278101
1727I16727879I20315414I23469785I26429049I29176752I31605105I33625883I35196461
1719I36379351I37376525I38409132I39562354I40775559I41946076I42975056I43790272
1711I44425214I45036578I45714597I46339628I46784191I47144739I47573626I48019615
1703I48346025I48550590I48682670I48752694I48875316I49255815I49945365I50823803
1695I51824410I52943754I54077154I55068109I55894467I56647822I57362958I57967520
1687I58366350I58511256I58459694I58414609I58581992I58909957I59127025I59089130
1679I58904322I58728388I58658753I58769392I59043268I59360739I59700170I60220522
1671I61042475I62059600I63044661I63879116I64591532I65192531I65626730I65906890
1663I66119358I66288036I66418367I66597216I66880744I67204628I67501241I67730487
1655I67816251I67740462I67616544I67554423I67590310I67758988I68064087I68407404
1647I68690868I68933327I69189779I69405032I69458214I69372320I69344207I69450441
1639I69485096I69274831I68989294I68948355I69255981I69746082I70156767I70281074
1631I70040039I69451347I68489800I66963659I64666155I61848428I59455508I58550576
1623I59410747I61344853I63293728I64420715I64366173I63300206I61738890I60212360
1615I59100919I58648194I58936386I59891650I61406067I63343606I65381420I67063156
1607I68152637I68780260I69124095I69148581I68821393I68401898I68267292I68517136
1599I68936825I69315575I69632204I69912947I70070614I70007262I69811701I69737855
1591I69976752I70507857I71183026I71885077I72577671I73258605I73934615I74587307
1583I75085440I75247965I75101829I74932243I74944616I75048388I75112711I75237795
1575I75585712I76093238I76525040I76693071I76504765I75954356I75235010I74712974
1567I74610885I74824908I75161164I75563364I75971004I76136703I75808350I75076307
1559I74400037I74186209I74377171I74605120I74716666I74851466I74981020
1552I74817977I74367972I74143456I74548311I75405243I76317236I77102331
1545I77640044I77730278I77406199I77063659I77055886I77350685I77598003
1538I77399786I76672407I75856284I75551186I75911021I76545056I76875483
1531I76512344I75571590I74688941I74451016I74894413I75715783I76635290
1524I77400888I77904268I78429608I79326119I80361965I80834383I80395779
1517I79455997I78707954I78468669I78584684I78861993I79349245I80058292
1510I80601834I80479535I79735638I78963434I78521915I78129627I77496952
1503I76927175I76867386I77213359I77555704I77834115I78251601I78748375
1496I79050688I79132631I79241326I79509502I79823152I80045854I80137125
1489I80061012I79784739I79417843I79221958I79342508I79582894I79595720
1482I79320937I79051854I79025489I79200128I79479381I79825160I80083036
1475I80051879I79805856I79682975I79931977I80496960I80992956I80839046
1468I79738165I78163181I77049797I76845880I77127011I77320564I77518457
1461I78178533I79148436I79539041I78736521I77139707I75681193I74930559
1454I74834430I75047611I75287674I75499364I75853693I76538643I77476288
1447I78343779I78956049I79436175I79887086I80154161I80097352I79854245
1440I79671120I79628433I79568773I79199869I78404928I77537113I77195869
1433I77619833I78484344I79308694I79858649I80132008I80177351I80035620
1426I79744448I79335058I78921135I78707177I78665266I78268249I76838690
1419I74127715I70373251I65986824I61383460I56827448I52207371I47232641
1412I42044148I37355343I33770983I31094146I28492450I25411406I22158897
1405I19551436I18298976I18707847I20515639I23129642I26417649I30991734
1398I37134713I43589788I48147743I49263330I46818847I42289393I38278283
1391I36530864I36671430I37633430I38858036I40043257I40760790I40476225
1384I39076916I37431715I36852351I37702353I39112544I40165102I40760077
1377I41457011I42909890I45345693I48381782I51381207I53945009I55984313
1370I57520883I58733764I60094142I62039908I64474998I66851336I68737377
1363I70091083I71051659I71740430I72293754I72897409I73721759I74852179
1356I76247666I77720691I79019660I80014956I80780553I81433633I81926260
1349I82081595I81846650I81403058I80985766I80701784I80600214I80783403
1342I81299933I81945434I82268088I81964220I81389390I81427349I82564442
1335I84266452I85490605I85582393I84622984I83298039I82474013I82482369
1328I82715501I82152461I80382370I78067311I76313479I75642067I75824868
1321I76573299I77811896I79361034I80995029I82705589I84487989I86212607
1314I87864027I89329020I90009824I89402476I87928350I86586823I85998390
1307I86153725I86755048I87427367I87810651I87761745I87396727I86846837
1300I86239943I85982714I86397998I86853768I86195441I84416670I82894739
1293I82734286I83858229I85684417I87763040I89755251I91263190I91683527
1286I90574289I88582532I87357667I87853533I89233020I90002115I89755445
1279I89250510I89113637I89142851I88761704I87490459I85095142I82039166
1272I79701047I79366540I81005912I83417552I85387933I86555730I87223903
1265I87442654I86860051I85898245I86130146I88393772I91339627I93221393
1258I93927914I94369692I95020634I95655771I96303280I97585861I99487319
1251A000774564A000521805I99182674I97597197I96209937I95487286I95652273
1244I95916821I95240681I93716612I92247928I91290397I90623973I89946148
1237I89187871I88500330I88230405I88648021I89483771I90041629I89925549
1230I89353376I88702563I88190761I88054989I88544896I89586248I90685511
1223I91246867I91042237I90486905I90246389I90438063I90603050I90585171
1216I90896230I91960189I93404323I94305498I93962829I92456833I90608945
1209I89377926I89202187I89812773I90630450I91328356I91971654I92700070
1202I93497343I94196997I94525804I94277256I93554735I92615601I91549569
1195I90512233I90081273I90805931I92470954I94186568I95111321I94894708
1188I93617180I91797599I90452249I90445383I91376679I91720450I90817461
1181I89836157I89810894I90194956I90201110I90182001I90988148I92864732
1174I95093703I96079217I94407198I90704231I87624806I87261668I89218316
1167I91529553I92765753I92898092I92688216I92700458I92705705I91970488
1160I90331052I88743048I88414695I89601730I91382574I92427878I92097127
1153I90966124I90165806I90332218I91402266I93103564I95168649I97148682
1146I98395377I98455230I97462461I96234293I95852563I96811648I98589189
1139A000194553A001208245A002163444A003749310A005756484A006872524A005684971
1132A002270973I98524218I96471181I96669787I98299831A000211589A001567303
1125A001887689A001038530I99289038I97110075I94842887I92713867I91121588
1118I90469545I90692312I91389829I92413044I93890991I95717503I97283871
1111I97852740I97415886I97027744I97632954I98705334I99053380I98320236
1104I96918530I95516630I94902417I95481716I96762288I97863300I98352106
1097I98356316I98278778I98417012I98517675I98135686I97622978I97903202
1090I98996441I99743188I99390608I98376591I97608792I97541813I97912725
1083I98187508I97966425I97054043I95622540I94313466I93707349I93735527
1076I93983104I94326680I94838028I95341279I95582962I95633488I95786685
1069I96178002I96749139I97405587I98023752I98467473I98691083I98794013
1062I98918709I99005315I98742969I97975105I97068424I96720054I97302203
1055I98404899I99366252I99864385I99815803I99322398I98709933I98247426
1048I97905275I97597521I97443417I97535659I97668710I97547707I97095241
1041I96451295I95899591I95768742I96037306I96314681I96479538I96723811
1034I97117330I97447951I97433052I96981817I96328284I95948238I96062764
1027I96402777I96768118I97182042I97522509I97614039I97549392I97575237
1020I97809276I98143589I98346470I98238941I97834798I97352017I97002287
1013I96755033I96409060I95861696I95250981I94858109I94864911I95160164
1006I95419336I95365765I94983064I94656653I94980408I95921809I96705544
999I96836199I96394097I95711026I95089039I94716183I94699017I94951453
992I95129395I94912004I94332251I93870392I94084285I94829478I95546039
985I96086990I96382955I96206827I95642362I95177329I95029768I94862903
978I94547634I94302130I94003962I93187904I91769745I90409691I89976529
971I90337918I90600847I90368428I89913954I89681017I89908642I90390647
964I90507569I89887137I88968860I88865671I89898472I91072293I91883558
957I92308429I92285239I91966407I91608839I91033168I89756223I87697486
950I85584337I84746125I85544823I86904100I88025451I88757429I89200697
943I89639171I90526548I91951120I93196001I93709357I93869356I94172706
936I94350389I94576524I95803786I97722929I99026562I99431352I99431806
929I99225427I98589578I97698832I97692743I99146529A000675974A001428098
922A001557392A001383725A001297831A001555773A001868191A001962636A002302002
915A003396211A004643230A005304342A005485134A005740679A006511458A007533053
908A008007738A007361330A005373459A001343888I94086812I85790651I79632708
901I76397948I78010308I85017345I92396266I95767446I92788360I79039741
894I47637108H90026359H08967375G44071113G28377958G46619627G79513034
887H18917741H57815116H89307789I12341582I29540992I41552298I48135436
880I51462761I55127315I61062750I67084791I70690334I71871409I71236661
873I69534909I68026840I67894372I69550132I72686755I76540198I80202744
866I83060956I85022398I86385950I87501925I88482322I89274477I89925679
859I90569236I91223871I91780174I92164365I92403651I92467456I92145645
852I91305166I90341740I90290307I91543221I92767956I93084131I92987031
845I93295239I93978570I94317741I94075346I93306834I91849032I89640207
838I87890586I89116033I91931234I93699835I94605156I95272681I96005371
831I96805754I97309588I97126334I96224576I94802142I93233636I92711924
824I94684443I97381101I98371344I97979315I97528663I97876320I98453352
817I98330276I97530477I96629755I95922392I95159904I94368591I94246422
810I95021865I96093079I97275386I98575779I99458170I99389506I98359944
803I96717269I95259207I95626168I98038133I99730686I99837632I99090043
796I98103816I97424567I97624597I98574096I99204374I98821090I97719949
789I96978190I97701099I99602752A001507125A002842370A003697424A004357111
782A004884070A005034288A004653076A003910021A003190480A003034498A003668532
775A004305289A004046830A002724346A000714840I98677221I96694856I93694588
768I88108624I78079101I63330845I50237961I42934894I33252250I10603815
761H70725006H22664561G88083006G83129134H03558057H36066172H70566691
754H99784532I18614893I23851969I14032775H92888522H64920161H30090834
747G92920279G69322345G71739492G93605035H18645354H35290534H43997315
740H54633797H75919523I03909455I25858560I38404663I45878482I51437563
733I55964685I59425127I61664656I62954622I63995002I65172515I66345494
726I67596528I69379316I71807215I74497656I77262459I80026162I82269254
719I83535770I84044398I84493430I85462232I86846254I88115750I88969962
712I89480921I89866732I90193596I90399845I90613414I91104358I91777259
705I92193191I92193256I92052561I92106973I92507877I93430687I95149087
698I97507092I99789892A001463466A002327653A002071072A000488704I98426081
691I97820677A000091298A004582534A009122870A012022864A012953317A012348691
684A010712105A007808031A001816953I90972213I76819580I63794323I55389985
677I50796143I43782628I24548319H85712871H30424305G74260087G35342761
670G21395212G27894464G46436827G70742966G95900207H17302531H32792416
663H44238544H55446682H68744908H83775526H98603068I11545799I22156630
656I30758084I37674628I43164010I47595391I51355685I54669538I57533450
649I59856411I61723603I63341534I64753603I65937011I67091204I68503727
642I70265074I72241285I74194047I75945806I77455170I78748180I79958341
635I81290347I82693348I83514718I81183465I69376984I41951258I04154829
628H75898859H75200630H99440502I30033296I52654007I65523476I72539064
621I76666772I79194298I80683971I81300646I80597429I77474668I71672674
614I65617596I63209907I66153689I72503501I78974187I83723428I86777590
607I88845072I90461058I91868400I93053945I93858473I94249402I94399878
600I94441594I94312818I93905501I93278656I92726304I92618645I93095014
593I93940934I94817883I95566897I96234163I96873899I97455659I97978862
586I98512817I99027080I99315985I99190642I98656427I97886425I97143565
579I96725430I96866514I97657374I99038027A000813754A002681075A004266941
572A005005721A003785520I98959518I89508516I76469462I62102418I46903251
565I29347180I10845173H99113315I02615344I21481655I46814053I69040662
558I84510985I94464461A001039631A005510980A008572268A010748445A012355946
551A013391468A013702267A013007471A010171801A002355248I85233182I55190149
544I14019885H73190606H50274188H55929010H83891994I16871878I42226365
537I59203591I72594383I84785056I95061379A002658727A008044984A012084207
530A014905432A014892541A006734161I80461139I28542587H60113074H03599579
523G85699737H07953747H49253565H87748547I14282296I29377172I36415367
516I38631511I38296291I36896205I35938480I37043961I41140771I47872312
509I55953997I64150920I71776446I78423778I83672902I86955273I87650847
502I85739153I81660222I74209140I58910217I29967094H85777064H35165515
495G97596518G91408517H18353146H62572520I05668923I39085726I62882914
488I79420758I90829639I98930304A004934272A009441508A012788784A015107600
481A016372691A016740624A016778324A017201187A018310878A019864162A021553671
474A023340539A025293236A027458207A029876196A032508207A035252995A038063985
467A040825744A043267701A045310243A047309579A049653075A052253864A054659804
460A056530818A057805237A058484811A058491677A057767796A056280909A053571424
453A048147144A038161020A024205763A011336553A006049729A010292869A020149633
446A030556352A038697826A042364841A037430468A016925562I71606731H95520728
439G95896515F95181136F18337439E78297789E74003410E97205947F37372818
432F83628127G27077110G62666009G89026999H07383646H20389017H30770991
425H40182803H48803301H55545142H57940848H51072563H27989475G85500808
418G32238073F88212382F72063652F87821843G24438102G66177949H02138927
411H28862601H48014838H62170839H71587574H75094720H73882875H72468474
404H74948260H81544159H89501861H96068740H99591951H98883357H93635075
397H86094989H81018106H82629235H91589747I05163663I19763256I32913273
390I43514970I51375831I56897083I60856825I63985286I66572860I68569476
383I70045351I71399121I73104630I75401616I78256719I81430718I84501333
376I86826950I87285441I84179263I76601542I66756308I59734955I59460366
369I65294749I73428190I80627939I85824076I89291449I91662799I93517294
362I95218139I96924360I98660443A000320090A001749520A002946013A004114003
355A005458187A006964766A008455086A009840533A011217429A012671215A014127009
348A015525152A016709920A016410651A011718218I99725957I79032939I48212196
341I05313816H53734566H08050459G87827850H02010345H41087670H85907201
334I22440935I47688929I64982784I77621129I87023872I93849340I98818175
327A002728039A006195088A009413265A012279963A014745822A016985674A019255454
320A021173172A020748883A013785894I92965266I48889503H79661032H04153227
313G57459832G62754171H09977828H68071553I13479516I41556443I57684121
306I67387429I74083537I79762909I85384176I91258008I97207176A002582550
299A006628056A008886176A009099486A006110360I96484785I76516878I48857827
292I25726545I20595703I35611551I60098223I81379091I93812158I97852223
285I95423805I88787874I81383949I76694043I75859135I77180646I77891183
278I75672577I68332717I52915122I26297228H87590945H40447481G92355685
271G49800686G12627735F73742084F26669033E75152940E34477991E21077903
264E39888345E81708547F31464590F77803979G16048145G45564672G67276693
257G83349829G96809544H10019091H23675921H37225417H49729804H60511840
250H69574958H77528514H85086220H92700216I00435928I07914864I14610908
243I20428838I25739889I30759250I35193158I38688579I41402469I43846498
236I46273102I48421684I49780572I49936296I48862232I47140982I45806515
229I45726451I47114294I49596801I52568113I55499393I58166320I60668454
222I63127576I65488431I67703539I69753466I71424903I72617573I73850924
215I75776933I78217594I80094437I80110761I77588481I73727071I73261973
208I80081158I88835809I93983687I95946424I96939000I98194374I99481684
201A000173565A000209646A000073290A000251492A000779423A001313313A001658250
194A001959980A002204448A001969502A001133816A000518307A001252034A003523109
187A006393499A008911504A011021025A013143697A015234628A016814340A017720114
180A018231916A018706730A019569881A021110921A022783588A023391907A022422652
173A020685078A019374643A018827538A018420351A017553508A016526990A016207575
166A016906647A018076710A019093253A019833846A020490230A021196232A021893878
159A022417599A022631298A022460999A021913247A021026841A019582901A017074548
152A013140328A007501701I99498267I88716166I76431956I65642082I59245307
145I58484115I62839772I70619792I79929774I89460516I98163022A005054498
138A009990232A013634964A016384222A018402602A020457193A023415097A026983263
131A029720148A030138542A027306305A020293179A006682728I81065377I36146543
124H69333470G91535351G27145514F99235906G13099569G56062143H09721506
117H59636835H97917081I22587136I36772093I46589084I56942621I68661394
110I79933078I89295659I96488153A001811706A005760630A008973366A012295509
103A016665483A022324839A028337746A033222436A035329108A032468823A020554553
96I91831801I39903728H73537421H20154849H06644219H34860351H81104195
89I23482222I56712339I82185951I99810685A009872792A015151325A018975359
82A022619184A025497153A027394661A029124979A030874989A031933054A032352160
75A032835719A033198663A032280711A028880123A021554966A007012831I80594579
68I43093079I07909229H94557173I09860825I41621868I72480182I94255102
61A008705060A019418368A026842697A030993207A034358103A039606126A046147937
54A050760435A051592946A050025736A048886636A049658840A051381579A052032327
47A051070975A050194674A051505757A054890799A058092198A059808136A060619271
40A060916791A060232554A058673959A057131688A056121105A055638971A055660801
33A055908442A055986628A055698565A054108748A049854596A042383044A032132178
26A020607152A011702996A010569854A018334004A030200987A040548435A047863292
19A054174756A060574834A064843173A066738672A069097714A072245155A073741823
12A072274175A069396206A067875376A069337907A072316798A073641678A072832033
5A071026249A067143139A059281501A052055193A055546469
##END=


$$ === CHEMSPECTRA PEAK TABLE EDIT ===
##TITLE=X8585
##JCAMP-DX=5.00
##DATA TYPE=INFRAREDPEAKTABLE
##DATA CLASS=PEAKTABLE
##$CSTHRESHOLD=0.93
##MAXX=3997.453
##MAXY=0.9880078441381602
##MINX=373.96442
##MINY=0.47947192196784105
##$CSSOLVENTNAME=- - -
##$CSSOLVENTVALUE=0
##$CSSOLVENTX=0
##NPOINTS=33
##PEAKTABLE= (XY..XY)
407.96118541050646, 0.930922568698414
466.03899298670785, 0.8231303699102138
502.86882218139135, 0.7422369127561682
543.9482470523844, 0.6434047228418831
577.9450124628897, 0.8819530019385512
696.9336913995307, 0.8702139862507186
747.9288395152462, 0.47947192196784105
784.7586687099292, 0.847089827704219
815.9223703362, 0.6969797018287264
851.3356676387803, 0.7249229553671785
896.6646881861084, 0.8828513032109677
933.494517380766, 0.8106723431185051
946.2433044096947, 0.8028053649496808
961.8251552228303, 0.6184020643630446
988.739261172791, 0.5281715394651741
1009.9872395543639, 0.9305853847025276
1072.3146428068803, 0.7282177213858572
1099.228748756841, 0.8612075454853049
1113.394067677873, 0.7229647636564954
1140.308173627834, 0.7823832036876939
1170.0553433620012, 0.8273227222416432
1260.7133844566065, 0.8053193692490264
1321.6242558170443, 0.6637946971166001
1429.280679616888, 0.7078950407343535
1446.2790623221263, 0.7205994129979274
1633.2612720797497, 0.6702198988493117
2361.3586646207973, 0.8449764851452938
2831.647252799062, 0.7882964611741697
2859.9778906411257, 0.7421031600894287
2879.8093371305704, 0.7784484033838175
2898.2242517279124, 0.7895485165758848
2926.5548895699767, 0.631051838368281
2939.3036765989054, 0.681112170414062
##END=


$$ === CHEMSPECTRA PEAK TABLE AUTO ===
##TITLE=X8585
##JCAMP-DX=5.00
##DATA TYPE=INFRAREDPEAKTABLE
##DATA CLASS=PEAKTABLE
##$CSTHRESHOLD=0.93
##MAXX=3997.453
##MAXY=0.9880078441381602
##MINX=373.96442
##MINY=0.47947192196784105
##NPOINTS=208
##PEAKTABLE= (XY..XY)
3996.036468107897, 0.8915486936893507
3980.4546172947616, 0.8932791951305674
3960.6231708053165, 0.8923709396320707
3942.208256207975, 0.8922889235446974
3933.709064855356, 0.889531374722293
3923.7933416106334, 0.8902553325741268
3919.543745934324, 0.8905404809405938
3903.9618951211883, 0.8902555110840048
3892.6296399843627, 0.8918427831923328
3881.297384847537, 0.8913682708112239
3871.381661602815, 0.8902223119273239
3854.383278897576, 0.8866183760015933
3840.217959976544, 0.8899856814414964
3821.8030453792026, 0.8899018765747275
3817.553449702893, 0.8923010833799395
3801.9715988897574, 0.8904334311432244
3783.556684292416, 0.8944333801913168
3772.2244291555903, 0.8939097527496161
3759.4756421266616, 0.8942936069568898
3752.392982666145, 0.8903599982524563
3745.310323205629, 0.8928510548309465
3736.81113185301, 0.88769704126228
3725.4788767161845, 0.8922056560478704
3712.7300896872557, 0.8934394123467886
3702.8143664425334, 0.8932391408265121
3691.4821113057073, 0.8924022920396534
3677.3167923846754, 0.8907428982600215
3671.6506648162626, 0.8952496055663494
3663.1514734636435, 0.8983259205819759
3656.0688140031275, 0.8950275190348037
3650.4026864347147, 0.8921967158315093
3630.5712399452696, 0.891848684139999
3620.655516700547, 0.8945048457928114
3613.572857240031, 0.8949730403964876
3595.1579426426897, 0.8958389172818998
3589.491815074277, 0.8950529704947203
3579.576091829554, 0.8970762492993009
3566.8273048006254, 0.8955894718111749
3554.0785177716966, 0.8980316525691159
3545.5793264190775, 0.897916734534807
3537.0801350664583, 0.9002098448222039
3528.5809437138387, 0.8981874594871672
3511.5825610086004, 0.9018270375784752
3500.250305871775, 0.8997046361033214
3490.3345826270524, 0.9018194085815783
3476.1692637060205, 0.9015678771217127
3470.5031361376073, 0.9014425282215465
3450.6716896481626, 0.9007043843553405
3435.0898388350274, 0.9033174524354026
3425.1741155903046, 0.9057789453857055
3411.0087966692727, 0.9061968931393577
3403.9261372087567, 0.9051706205278464
3391.177350179828, 0.9071560506375336
3377.012031258796, 0.907810510177146
3357.180584769351, 0.9104720952176935
3350.097925308835, 0.9092738633046393
3333.0995426035965, 0.91072887247557
3317.517691790461, 0.9108771690965917
3306.1854366536354, 0.9101651318399575
3287.770522056294, 0.9094396235286168
3277.8547988115715, 0.9099111564510414
3270.7721393510556, 0.9108576185843412
3253.7737566458172, 0.907155812317645
3242.441501508991, 0.9049389965999871
3231.1092463721657, 0.9068252451492445
3212.694331774824, 0.9057951575792077
3198.5290128537918, 0.9069821240467173
3187.196757716966, 0.9070665242531306
3177.281034472244, 0.9074857243363903
3170.198375011728, 0.9079459320032598
3160.2826517670055, 0.906899274299811
3150.366928522283, 0.9072941547125865
3134.7850777091476, 0.9091410050275975
3124.869354464425, 0.9080272322108133
3105.0379079749805, 0.9082128410769404
3089.456057161845, 0.9074637897051
3082.373397701329, 0.9078972346925885
3059.708887427678, 0.9050654772895858
3034.2113133698203, 0.9111816296554205
3024.2955901250975, 0.912522614261586
3017.2129306645816, 0.9128996731314958
3000.2145479593432, 0.9155709151883782
2981.7996333620013, 0.9156276592458669
2939.3036765989054, 0.681112170414062
2926.5548895699767, 0.631051838368281
2898.2242517279124, 0.7895485165758848
2892.5581241594996, 0.788819313846194
2879.8093371305704, 0.7784484033838175
2859.9778906411257, 0.7421031600894287
2837.3133803674746, 0.7950176009992693
2831.647252799062, 0.7882964611741697
2757.987594409695, 0.8818890457139321
2748.0718711649724, 0.8821136957945496
2712.6585738623926, 0.8902990822166863
2697.076723049257, 0.8919459591413201
2689.994063588741, 0.8915817143361536
2672.9956808835027, 0.8820141562942098
2658.8303619624703, 0.882103979888358
2640.415447365129, 0.8909550314856409
2627.6666603362, 0.8923081759270486
2610.6682776309617, 0.8970878128747445
2592.25336303362, 0.8967921140223989
2579.504576004691, 0.8964013466980482
2568.1723208678654, 0.8963620073536586
2555.4235338389362, 0.8990418914970029
2546.924342486317, 0.8976573357581559
2537.0086192415947, 0.8966450099209742
2518.593704644253, 0.9003418694397127
2500.1787900469117, 0.8988684424661179
2477.51427977326, 0.9010350113337516
2469.015088420641, 0.9008542295955609
2459.0993651759186, 0.9014592179749799
2447.7671100390926, 0.8988486536339788
2432.1852592259575, 0.8969978098505643
2403.8546213838936, 0.8991706974157847
2361.3586646207973, 0.8449764851452938
2342.943750023456, 0.8617526299983647
2330.1949629945266, 0.8620484475505775
2276.366751094605, 0.9023032191189582
2267.867559741986, 0.9030293825799539
2256.53530460516, 0.9040274027827422
2246.6195813604377, 0.8977409602747387
2225.3716029788893, 0.907270372412044
2212.6228159499606, 0.9072559480777832
2204.1236245973414, 0.9042668940273869
2191.3748375684127, 0.9085211165942947
2182.8756462157935, 0.9101368794312344
2172.959922971071, 0.9011680490408255
2161.6276678342456, 0.9071782235887125
2137.546625668491, 0.9160016181169169
2121.9647748553552, 0.9093241699646741
2110.6325197185297, 0.9091627602288559
2100.7167964738073, 0.9111791857263699
2096.4672007974978, 0.9114909173421858
2083.718413768569, 0.9102183590688199
2063.8869672791243, 0.9110272535768548
2051.1381802501955, 0.9113622908534359
2044.0555207896793, 0.910778463255785
2039.8059251133695, 0.9111199388499741
2028.473669976544, 0.9084327827294887
2021.391010516028, 0.9134260426321462
2012.8918191634086, 0.909493745147177
2004.3926278107895, 0.9111050369557822
1990.2273088897575, 0.9163377292132276
1973.228926184519, 0.9169069530465859
1956.2305434792804, 0.9113845236146255
1943.4817564503514, 0.9174190767228535
1933.566033205629, 0.9154634485612422
1925.06684185301, 0.9185702206745998
1919.4007142845971, 0.9179667836748419
1909.4849910398748, 0.9178920993746201
1899.5692677951524, 0.9143638019488195
1869.822098060985, 0.9171359545355166
1854.2402472478498, 0.9178015599006523
1844.3245240031274, 0.9162606009839555
1830.159205082095, 0.9164257649481344
1820.2434818373727, 0.9178990732218619
1801.8285672400311, 0.9154226783773671
1793.329375887412, 0.9152373078311286
1780.5805888584828, 0.9152762892356082
1773.4979293979668, 0.914513826619072
1749.4168872322125, 0.9109308729652313
1742.3342277716965, 0.9106589564134282
1733.8350364190774, 0.9099087125219908
1716.8366537138386, 0.9061180957507113
1684.2564201954651, 0.9180309782193494
1648.8431228928848, 0.8984364872079715
1633.2612720797497, 0.6702198988493117
1606.3471661297885, 0.8906118876522318
1576.5999963956215, 0.9112195970501811
1570.9338688272087, 0.9137009984526444
1559.6016136903827, 0.9090114841491499
1541.1866990930412, 0.9134478576434153
1534.1040396325252, 0.9178799993493887
1521.3552526035965, 0.9148598321314523
1508.6064655746677, 0.9157917503104701
1498.690742329945, 0.9177842149975637
1490.1915509773257, 0.917373479411042
1446.2790623221263, 0.7205994129979274
1429.280679616888, 0.7078950407343535
1368.3698082564501, 0.9128411421349196
1351.3714255512118, 0.9181486972024648
1321.6242558170443, 0.6637946971166001
1260.7133844566065, 0.8053193692490264
1240.8819379671618, 0.8863014583977771
1215.3843639093038, 0.9133620265975165
1192.7198536356527, 0.9171409012834744
1170.0553433620012, 0.8273227222416432
1140.308173627834, 0.7823832036876939
1113.394067677873, 0.7229647636564954
1099.228748756841, 0.8612075454853049
1072.3146428068803, 0.7282177204657032
988.739261172791, 0.5281715394651741
961.8251552228303, 0.6184020643630446
946.2433044096947, 0.8028053649496808
933.494517380766, 0.8106723431185051
896.6646881860825, 0.8828513032109677
851.3356676387803, 0.7249229553671785
815.9223703362, 0.6969797018287264
784.7586687099292, 0.847089827704219
770.5933497888973, 0.8979406962653814
747.9288395152462, 0.47947192196784105
696.9336913995307, 0.8702139862507186
668.6030535574664, 0.8955509072364618
577.9450124628615, 0.8819530019385512
543.9482470523844, 0.6434047228418831
502.86882218139135, 0.7422369127561682
466.03899298670785, 0.8231303699102138
##END=

##END=

