##TITLE=CHS- 290
##JCAMP-DX=5.0
##DATA TYPE=LINK
##BLOCKS=1


$$ === CHEMSPECTRA SPECTRUM ORIG ===
##TITLE=CHS- 290
##JCAMP-DX=5.00
##DATA TYPE=INFRARED SPECTRUM
##DATA CLASS=XYDATA
##ORIGIN=Fabienne
##OWNER=
##XUNITS=1/CM
##YUNITS=TRANSMITTANCE
##XFACTOR=1
##YFACTOR=8.9205343e-010
##FIRSTX=3997.453
##LASTX=373.96442
##MAXX=3997.453
##MAXY=0.9578350761416029
##MINX=373.96442
##MINY=0.5876712190625817
##NPOINTS=2559
##XYDATA= (X++(Y..Y))
2559A048604268A047959146A047641630A047708648A047970038A048227485A048418115
2552A048573599A048672956A048561037A048112425A047462293A046926685A046720353
2545A046881249A047354717A047992822A048571594A048906349A048899667A048567184
2538A048135878A047967231A048254346A048871738A049545658A050079662A050386153
2531A050377734A050002020A049419841A048934680A048666341A048566115A048748794
2524A049352489A050065697A050399450A050337911A050239823A050217573A050033023
2517A049547328A048890781A048289024A047931417A047939369A048244857A048527361
2510A048499899A048248933A048200357A048611284A049118160A049189588A048872272
2503A048744918A049175957A049859632A050308044A050399717A050255926A049984447
2496A049692656A049587218A049823885A050111133A049869321A049295493A049343400
2489A050162181A050821535A050769685A050422435A050439273A050875189A051142325
2482A051040094A051057266A051560468A052127680A052165967A051811434A051433983
2475A050974613A050359826A049944490A050102714A050711420A051312509A051559399
2468A051299680A050728391A050344325A050539432A051212350A051878318A052266126
2461A052386865A052233920A051751365A051102502A050892896A051350728A051784440
2454A051788315A051444005A051009158A050779173A050845053A051041097A051358279
2447A052059059A052972318A053316428A052807881A052039816A051724037A051936449
2440A052175789A052144051A052013623A051910992A051716954A051516502A051622608
2433A051958900A052324324A052804941A053269054A053385517A053196491A052939378
2426A052802469A052991027A053427345A053562182A053203573A052872493A052954879
2419A053048156A052871224A052707655A052769996A052906036A052909510A052754160
2412A052564131A052504597A052633621A052825521A052873095A052757100A052743670
2405A053055372A053478660A053656461A053585434A053379236A052970581A052331607
2398A051726175A051495455A051793995A052547494A053327052A053616170A053355516
2391A052910980A052565668A052240067A051816779A051438459A051573831A052728034
2384A054274121A054841267A054494017A054494418A055608664A056635246A056404726
2377A055414693A054521345A054057833A053789495A053538596A053477524A053491489
2370A053233775A052632018A051999859A051837626A052345104A053141366A053720339
2363A053958409A054033578A054047076A053923463A053608286A053258096A053210188
2356A053600535A054151244A054533305A054546736A054155253A053583697A053186936
2349A053007732A052826122A052691149A052829730A053116109A053087912A052568140
2342A052034337A052122602A052702042A053194620A053380172A053334001A053183127
2335A052942184A052526112A052102557A052229310A052958487A053474117A053639891
2328A053945981A054325637A054290625A053956271A053716196A053651584A053598932
2321A053444249A053292641A053439439A053964890A054298643A053868272A052869620
2314A052103760A052363145A053307742A053904420A053908563A053613297A053335471
2307A053246804A053291371A053322976A053350237A053497369A053711452A053780407
2300A053759828A054041997A054573262A054702152A054368066A053940635A053601471
2293A053390729A053385250A053555567A053723078A053860388A054026362A054123915
2286A054034046A053833861A053688333A053596125A053345894A052793515A052184809
2279A052118660A052900022A054039993A054817413A055025282A054909086A054654378
2272A054279600A053932083A053923931A054246325A054383635A054125385A053771855
2265A053556102A053382509A053115842A052948532A053194687A053753814A054093514
2258A053848027A053205845A052789640A053177047A054110285A054683778A054526958
2251A054011729A053691006A053742723A053913040A053965492A053923597A053858383
2244A053710383A053491356A053448325A053757556A054147302A054148571A053735039
2237A053289367A053114706A053245802A053522025A053740183A053796310A053698289
2230A053503717A053348233A053409438A053695817A053962217A053937896A053604745
2223A053230501A053077422A053111499A053137691A053111031A053081899A052956216
2216A052642441A052328667A052259444A052335015A052285236A052109773A052014625
2209A051953354A051604300A050950960A050485977A050631105A051160032A051436789
2202A051128093A050438204A049760208A049259412A048801713A048254813A047707646
2195A047300127A046986620A046621864A046190491A045819455A045574703A045271218
2188A044586608A043415032A041962223A040487564A039199593A038354353A038082674
2181A038109267A037967681A037468422A036710713A035793044A034760114A033686092
2174A032635523A031641816A030834729A030466966A030626192A030959276A030968163
2167A030587638A030224887A030239720A030611759A031098190A031454326A031469828
2160A031035983A030272461A029513349A029052042A028852191A028598820A028132836
2153A027686496A027543841A027645203A027740617A027773626A027880801A028104639
2146A028286516A028295603A028248496A028354469A028609711A028833616A028960836
2139A029073423A029193227A029253029A029289778A029501589A030035459A030798113
2132A031571524A032263685A032893037A033382541A033591345A033576980A033628897
2125A033961246A034488235A034944797A035138501A035059924A034866822A034812299
2118A035039611A035370290A035429424A035063732A034490239A034008085A033693776
2111A033399446A032972015A032437410A031976103A031745516A031783869A031995480
2104A032187179A032247582A032266959A032275110A032036105A031461075A031006783
2097A031228417A032078935A032955244A033281847A032928517A032275177A031935411
2090A032241969A032983575A033683754A034030803A034034478A033902848A033801553
2083A033747698A033762999A033969999A034373977A034753700A034972994A035141441
2076A035251222A035014488A034355936A033756451A033824137A034685680A035911511
2069A036897000A037322493A037343607A037323161A037474970A037837588A038349876
2062A038858757A039295876A039815515A040477408A041007069A041199569A041244538
2055A041359129A041478331A041522832A041552566A041499847A041146851A040492375
2048A039841908A039474212A039444946A039713017A040216486A040765858A041063262
2041A040956020A040595140A040290185A040270474A040561798A040989763A041354987
2034A041672569A042104945A042614560A042926932A042918913A042805792A042859513
2027A043124110A043465346A043741502A043865648A043798163A043542453A043160592
2020A042774722A042523956A042454065A042463219A042438296A042461215A042700354
2013A043020743A042968626A042301053A041287030A040323928A039514102A038816662
2006A038368251A038415090A038980098A039734733A040254104A040353662A040113654
1999A039678272A039218101A038931187A038821473A038605520A038086750A037459067
1992A037044934A036937090A037023552A037149904A037192399A037165606A037214716
1985A037364922A037458667A037476173A037619229A037950776A038301167A038633650
1978A039129969A039834558A040550573A041104221A041490225A041823176A042274594
1971A042898601A043467016A043705755A043728072A043957723A044554736A045188632
1964A045544033A045788117A046270071A046954347A047510401A047864800A048270849
1957A048823496A049225335A049148829A048665740A048217863A048177238A048466090
1950A048663335A048509521A048201025A048038926A047942709A047591651A046955684
1943A046338692A045918879A045623346A045436524A045475612A045823998A046541550
1936A047645974A048818885A049419373A049073860A048035519A046791246A045578645
1929A044451102A043567977A043179969A043361912A043940952A044733272A045682880
1922A046701243A047609024A048344816A048980917A049431066A049404473A048746121
1915A047602075A046219557A044774832A043380020A042113364A041066002A040436783
1908A040485092A041235718A042233902A042751670A042375288A041300130A039973471
1901A038604050A037113355A035358865A033284988A031010057A028832948A027064293
1894A025845678A025184721A025069260A025535178A026672676A028491311A030761764
1887A033132110A035389400A037437686A039130637A040335087A041064799A041387593
1880A041325119A040943659A040396558A039778498A039022259A038015856A036814013
1873A035689610A034923483A034561600A034471731A034555119A034749156A034965979
1866A035269129A035924808A037004710A038126773A038860495A039212154A039510293
1859A039977012A040520505A040830470A040701647A040329808A040169580A040437317
1852A040928224A041359998A041693350A041999707A042173566A041964094A041264583
1845A040170983A038725657A036817888A034391283A031496822A028024525A023589390
1838A017850047A010847254A002856635I93952154I83966034I72931951I61272992
1831I49435697I37682325I26417521I16363916I08158011I01918206H97312753H94005428
1823H92034183H91743460H93266762H96140911H99480642I02465039I04588227I05486853
1815I04636135I01374914H95310905H86589371H75715449H63246329H49635368H35201752
1807H20232594H05139491G90404395G76408499G63492371G52108366G42733959G35724886
1799G31314740G29605285G30549548G34040554G39884800G47564519G56250640G65206838
1791G74025725G82421392G90112403G97046239H03487165H09728239H15869555H21907705
1783H27861732H33769923H39693548H45739583H52000769H58445169H64888833H71134050
1775H77121687H82864303H88264014H93128584H97270725I00424437I02197035I02321849
1767I00906457H98408892H95524454H92990673H91203643H89981287H88772962H86952456
1759H83840639H78717953H71057210H60790324H48386752H34777061H21214008H09062805
1751G99506454G93362065G91233932G93670226H00794291H11751669H24898517H38691154
1743H52240643H65144610H77204206H88389163H98789283I08430826I17198665I24973265
1735I31800727I37858456I43302800I48241404I52807367I57105460I61087640I64606643
1727I67595850I70140723I72376899I74378680I76200923I77970714I79773446I81482032
1719I82942192I84265977I85673484I87112931I88323327I89239593I90124454I91276854
1711I92686700I94016365I94964036I95592854I96213854I97035841I98011375I98977019
1703I99879922A000825454A001862259A002833048A003579131A004189507A004924899
1696A005951213A007149649A008172489A008807321A009256534A009856820A010659832
1689A011527923A012412785A013254483A013836195A014018673A014004909A014177297
1682A014675688A015218846A015430590A015284595A015093497A015122830A015399721
1675A015784656A016056268A016023528A015706613A015313393A014977970A014645821
1668A014257612A013906086A013717928A013683651A013741916A013953860A014407617
1661A014998282A015500615A015848867A016192442A016696378A017387604A018150858
1654A018807807A019256619A019546005A019793897A020103328A020560893A021189244
1647A021853542A022331553A022511626A022498930A022559868A022911060A023463573
1640A023876437A023991964A024056911A024372489A024915848A025449451A025836724
1633A026118694A026380551A026637463A026837915A026971550A027141934A027491255
1626A028012564A028458370A028547036A028305559A028057132A028011429A028085262
1619A028180877A028360349A028664635A029015560A029341628A029610902A029770128
1612A029831199A029932160A030160943A030433157A030704301A031141287A031879151
1605A032726662A033336972A033586134A033607916A033543905A033409803A033137722
1598A032709022A032278518A032066373A032098245A032244842A032469950A032757933
1591A032902659A032742698A032503893A032555008A032890498A033176009A033261000
1584A033389958A033856410A034630622A035441584A036105749A036608082A036938494
1577A037046003A036984263A036988740A037327903A038027683A038749376A039066559
1570A038914817A038668929A038751916A039253715A039907856A040339096A040336757
1563A040011223A039738875A039859347A040307758A040608370A040370968A039721369
1556A039114133A038851942A038926109A039142798A039243024A039030745A038522265
1549A037963472A037696403A037947569A038599974A039159368A039103042A038387628
1542A037561632A037262892A037577134A038047261A038322749A038506363A038780982
1535A039049989A039128031A039053129A039073041A039383541A039891553A040331612
1528A040682537A041197231A041847364A042132607A041721346A040993371A040697170
1521A041194358A042175170A043067048A043614148A043919036A044069308A044060287
1514A044011778A044059085A044098908A043998682A043909481A044043049A044301431
1507A044429587A044397381A044424576A044696789A045153954A045494522A045396634
1500A044841984A044201205A043930595A044200604A044826749A045451558A045750365
1493A045570894A045018715A044463396A044374997A044973881A046006744A047018826
1486A047795778A048312076A048399673A047893198A047036733A046325596A045986832
1479A045915137A045995650A046240070A046704584A047412514A048215525A048722134
1472A048637810A048193943A047936228A048071600A048359048A048619502A048927063
1465A049270771A049488928A049588153A049705618A049748381A049511714A049137203
1458A049031030A049297364A049608065A049678424A049593365A049594367A049755330
1451A049970081A050146680A050314859A050544711A050780242A050823940A050620615
1444A050482905A050780175A051436989A052034871A052361140A052521034A052572283
1437A052444662A052209665A052115653A052306951A052651662A052838149A052607897
1430A051990571A051338100A051017243A051065817A051231459A051275826A051113393
1423A050739617A050214232A049719717A049508240A049716443A050181491A050473751
1416A050323612A050095965A050489586A051596817A052727099A053426743A054102868
1409A055242104A056500141A056966392A056191712A054855699A054293097A055113280
1402A056430317A056825742A056032353A054939020A054032376A053033590A051937251
1395A051247963A051341307A052017231A052606427A052702176A052494374A052140175
1388A051544632A050620281A049456724A048421723A048023892A048445777A049203352
1381A049457325A048839866A047814487A047153396A047260237A048057769A049276384
1374A050530144A051290058A051208407A050439139A049542517A049096177A049311396
1367A049953377A050622219A051023190A051041765A050827214A050759528A051050518
1360A051424896A051440932A051047177A050594356A050375529A050313122A050133717
1353A049769830A049475700A049517994A049915425A050493929A050952497A050908665
1346A050333969A049934869A050502014A051811835A052849642A053165287A053221748
1339A053393401A053545277A053664346A054003444A054500231A054741375A054485397
1332A053829986A053107356A052781488A053042477A053495899A053640559A053516479
1325A053587974A054194074A055205087A056040571A056126565A055499952A054792223
1318A054549876A054784940A055195064A055574320A055905199A056162513A056232003
1311A056056875A055729804A055474361A055694858A056736340A058306214A059453735
1304A059448657A058446864A057259720A056739080A057245822A058395214A059368409
1297A059570264A059023164A058308820A058113245A058614509A059398544A060022952
1290A060337595A060290221A059879762A059286758A058829728A059002183A060439892
1283A063295398A066659451A069039352A069428897A067873990A065318427A062987370
1276A061667527A061456384A062047117A062907256A063351191A063096550A062667716
1269A062628227A062597424A061786195A060246723A058654733A057349991A056863159
1262A058475930A062322204A066268570A068801883A070430957A071059775A069511684
1255A066129389A063050179A061479370A060774848A060411428A060896522A062391694
1248A064011012A064946856A065241253A065167286A064799457A064388530A064264049
1241A064250285A063951745A063435381A062989308A062579918A062140728A061915286
1234A061971546A061862768A061215642A060315879A059837667A060115360A060763088
1227A061115549A061037974A060893448A060737630A060324298A059919051A060157188
1220A061013920A061808178A062238214A062623283A063088799A063186954A062582056
1213A061677684A061135193A060939151A060503101A059714187A059214262A059547947
1206A060568048A061662583A062151819A061635789A060295099A058733711A057558394
1199A057205532A057758845A058717675A059390125A059692273A060202356A061320612
1192A062634708A063166508A062331892A060876141A060512723A062104580A064490360
1185A065724810A065192076A063876910A062883469A062631568A063370367A065094322
1178A066864113A067315330A066047471A064036202A062810705A063340099A065361190
1171A067745701A069415867A069653470A068281777A066337659A065703295A067076859
1164A068979617A069697302A069528254A069983548A071130601A071366065A069998247
1157A068281910A067528812A067546518A067399453A066728607A065870405A065278003
1150A065093921A065091248A065020221A064932691A065074811A065642291A066725601
1143A068210683A069676990A070651120A070945784A070721144A070307545A069854056
1136A069142518A067905194A066411359A065619640A066450714A068779165A071451124
1129A073247241A073741823A073267420A072097782A069994238A066945897A063854192
1122A061799892A061022673A061047796A061397986A061644743A061293216A060332583
1115A059486074A059327985A059336470A058385927A056325614A054623175A054977641
1108A057293530A059664544A060751461A060980578A061317271A061855150A061836642
1101A060892780A059694745A059094525A059207713A059670758A060232157A060807722
1094A061450772A062327883A063246288A063425492A062368441A060694800A059426741
1087A059044679A059343620A059654254A059440371A058854584A058379646A058075360
1080A057594141A056773424A055840988A055100451A054708567A054685315A054918507
1073A055202615A055410417A055569375A055685303A055576257A055073657A054340471
1066A053807535A053717198A053938230A054338199A054987597A055831032A056524262
1059A056859952A057056729A057414401A057830608A057895087A057540552A057171455
1052A057225710A057752966A058288975A058231646A057447945A056477222A056043043
1045A056314121A056790195A056987507A056929576A056860554A056875454A056980157
1038A057103101A056999066A056527402A055890499A055422444A055194663A055019335
1031A054856167A054865655A055035237A055027954A054589031A053786287A052844230
1024A051981818A051216826A050398648A049527884A048775254A048107013A047267921
1017A046205525A045135646A044223054A043485190A042999696A042919916A043283669
1010A043978503A044903255A046102961A047605549A049135399A050272429A050886014
1003A051285849A051892884A052643711A053150186A053381508A053597595A053872281
996A053929677A053569198A052986016A052483550A052115052A051796333A051581515
989A051663834A052060997A052404505A052389404A052038078A051472469A050863496
982A050417156A050210357A050097502A049937140A049740697A049494342A049130588
975A048645227A048081489A047494699A046880046A046004873A044590617A042638212
968A040408051A038232077A036416717A035198971A034613584A034606902A035334744
961A036816418A038206486A038850205A039030946A039062417A039040968A039031948
954A039050456A038980298A038764211A038639329A038995800A039741481A040194369
947A040230451A040175260A040102161A039930508A039649340A039279105A038756259
940A037993874A037055624A036164548A035455215A034624074A033307104A031501299
933A029370761A026947897A024017087A020435611A016585194A013124457A010423031
926A008785739A008475640A009157110A010365101A011795794A013260296A014654774
919A015662246A015850404A015129111A013553290A011164036A008201221A004692909
912I99998790I93232999I84482465I74868317I65075433I55283485I44785677
905I29448089I04436151H80501976H67621663H61542220H60201997H64827963
898H73493304H83298082H93958856I05229874I16258278I27385838I39805045
891I51465073I58941601I63238223I66747270I70649938I74845332I78660670
884I81923695I84872812I87281912I88756036I89544748I90218467I90856439
877I90871741I89999908I88412060I86147954I83025981I78834662I73543597
870I67185792I59492109I49943442I38571129I26827645I17563889I13897420
863I17281385I26083368I36713340I46325884I53996449I60083843I65260451
856I69930916I74092100I77422878I79525620I80257137I79858905I79126520
849I79402006I81188504I84100871I88116460I92923701I97056956I99592073
842A000952273A001530444A001388190A000844564A000866012A002077812A002909153
835A002662463A001872348A000834675I99677265I98505288I97367189I96281139
828I95294114I94424152I93464721I91871328I89438976I87218502I85939885
821I85537311I85918036I86518724I86238425I84515540I81260733I76663766
814I71864675I68638468I68467216I71878575I77131555I82134637I86728731
807I90812474I93555192I94742135I94907976I94699907I94956352I96718123
800I99135042A000091466I99814307I99106578I98224121I96845078I93952956
793I88877510I82549974I76018845I69271830I62134869I55475852I50666740
786I48054516I47305694I48051776I49776466I51729203I53334088I54472589
779I55042608I54367151I51074657I44194411I34674809I24047243I13070556
772I02672440H94738281H90520102H89016912H88738551H89239748H90944125
765H93791677H96807213H99959789I03646169I07736928I11674207I14452138
758I14247811I09050022H98419315H85204715H75064247H73046630H81221866
751H96545757I10787140I20039605I26953864I34180027I41720899I48129284
744I52851534I56383164I59064611I60799524I61536920I61331256I60234450
737I58643128I57207757I56408355I56452721I57220185I58374990I59713742
730I61294707I63096370I64726513I65907042I66974650I68463539I70404852
723I72340751I73987665I75319602I76225244I76636370I76725840I76678333
716I76267874I74823483I71727234I66609760I59541955I51665592I45179098
709I42153007I43425009I48051776I53575032I57913749I60509470I61477653
702I61091917I60029254I59352728I60078498I62381759I65340030I67892185
695I69434597I69681554I68629248I66688671I64599827I63018795I61985799
688I60620119I57358698I50629389I39469355I24147268I07484492H95177605
681H91688670H96203853I04765026I14042147I22543251I30044501I36701647
674I42580103I47557059I51350281I53695103I54615578I54568673I54316972
667I54526377I55382374I56655445I58050124I59444602I60884716I62359642
660I63603781I64225116I63989785I62860371I60901354I58387752I55919586
653I54190954I53564475I53855130I54484149I54859462I54693354I54070548
646I53268741I52530944I51965335I51566302I51248251I50832781I50056230
639I48717745I46890624I44857105I42663826I39772706I35221709I28022341
632I17389495I03054368H85915384H68402087H53910810H45560111H44907840
625H51368543H62816226H76683498H90637433I02917593I12634038I19842026
618I25235790I29633440I33557824I37102751I40080533I42312968I43845424
611I44908154I45699739I46273366I46624223I46759863I46652354I46217172
604I45428327I44428539I43463629I42674249I41968257I41119276I39954850
597I38505715I37098742I36238135I36164369I36495983I36357738I34780715
590I31032596I25047164I17966530I12088007I09728619I11717638I16770767
583I22252393I25773603I26522558I25381385I23839708I22893842I22955113
576I24284578I26866868I29932248I32164548I32532244I30807889I27582616
569I24156690I22226203I23166323I27218728I33226009I39254738I43722079
562I46084272I46599234I45710764I43813619I41388013I38999830I37068140
555I35722305I35004887I35180884I36625876I39295162I42513954I45464408
548I47757980I49446789I50695538I51597105I52220978I52701128I53161833
541I53528794I53559864I53163103I52534352I51847269I50928797I49381040
534I47007755I44078750I41129499I38472106I35949952I33174493I29889819
527I26071408I21802314I17177083I12281844I07163301I01798202H96176524
520H90400432H84608637H78903906H73506133H68785821H64924180H61730912
513H58964673H56608026H54744824H53428723H52698409H52495685H52587693
506H52707362H52679433H52347017H51521555H50108769H48188372H45806266
499H42669125H38185347H31921020H24031161H15323791H06955520G99934754
492G94883295G92418203G93490955G98727364H07369988H17362789H26650334
485H34221608H40043805H44421076H47597973H49782433H51233038H52195074
478H52847545H53340123H53738221H53904328H53586545H52675691H51304399
471H49704524H48036897H46339736H44574288H42698525H40689728H38506872
464H36093630H33508867H30997404H28761094H26652472H24316270H21749816
457H19521190H18225134H17769774H17296640H15814431H12952510H09073095
450H04369688G97694034G86790645G70697019G52578827G39676597G38523397
443G48225676G58646844G57507942G40917395G16705862F97367251F90598587
436F96267972G09994260G27621411G46715070G65759016G83426726G98771798
429H11505380H21814762H30078532H36724118H42088482H46325972H49482288
422H51631737H52999287H54092286H55707662H58625709H63133007H68873953
415H75245255H81826630H88319806H94298689H99359101I03481665I07014298
408I10302380I13461638I16466080I19319581I22074661I24726441I27169952
401I29288396I31064000I32577079I33911555I35100570I36142252I36988494
394I37555172I37865872I38107551I38403886I38665342I38784945I38805124
387I38865994I39208567I40103118I41490313I42856193I43679182I43836203
380I43538532I43111435I42815301I42737993I42940784I43616173I44788818
373I45971618I46522862I46316930I45690317I44709906I42867953I39744576
366I35784846I32058509I29228060I27074937I25160219I23620681I22998144
359I23394838I24183083I24731052I25154607I26065528I27708231I29655891
352I31329398I32528436I33389711I34044321I34444089I34312793I33115693
345I30299275I25855454I20658668I16159254I13660286I13603491I15254882
338I17177083I18272620I18410465I18149209I18129164I18693837I19685273
331I20535724I20835132I20715730I20283088I18860413I15514133I10500026
324I05536031I02191689I00296281H98180176H94179354H87720722H79394880
317H70479908H62276943H55514961H50232582H46081821H42502082H38705052
310H33943915H28030513H21432701H14724840H08020054H00807054G91606038
303G77337795G54464947G23106697F90169953F66307006F58784776F67681439
296F88055986G14082078G41355517G67323812G90970338H12190258H31167988
289H47956181H62344696H74194686H83852866H91884980H98456733I03268852
282I05834705I05452109I01221635H92624247H80229562H65866705H52009923
275H40438227H31003016H22012074H12255071H02362562G93957474G87950594
268G83965674G81013283G78313729G75487154G72237827G68459039G65050285
261G64018758G66906803G73360358G81834201G91094083H00155585H07387561
254H11119443H11593713H11417048H12842061H14503007H11864390H01486119
247G84781514G68452023G61366978G68480019G86923879H08793732H26544696
240H35972557H36218445H28150918H12788941G90937931G64119051G35616575
233G10463117F94451542F92236948G04606042G27332961G53682983G78338117
226G99143569H16129742H29939819H41057424H49493648H54936656H57763565
219H59610730H62114376H65373125H68326987H70078403H70351886H69490076
212H68406232H68073749H69313946H72276293H73740261H69842204H60567221
205H47487123H34706836H29070993H34809200H49315714H65503152H77256589
198H82581466H83142865H82329698H82950364H85472719H88479032H90695831
191H92015273H92917976H93568710H93679960H93235358H92938689H93517595
184H94839041H96193897H97217672H98014068H98441966H97845822H95903909
177H93436612H91790165H91699495H93083482H95278833H97186201H98111822
170H98594909H99622362I01315781I03098000I04673285I05948495I06463656
163I05882813I04801040I04306592I04801575I05655100I05979832I05487589
156I04732418I04722931I05988985I07849714I08976523I08664687I07149871
149I04802644I01792121H98812870H96967575H96254366H95300816H93213375
142H90578099H88197998H86270051H85149190H85533055H87423251H89803486
135H91742792H93319080H95211214H97604745H99878740I01342908I01725905
128I01010759H99554475H98238975H97761833H98074939H99054682I00963720
121I03560108I05615475I06107052I05408343I04649231I03922993I01859473
114H97585435H92458139H88757793H87164868H86640419H86336734H86392594
107H86975107H87849279H89192641H91827650H96176992I01247560I05448567
100I08401159I10943893I13580105I15783140I16872396I16889234I16265828
93I15269648I14248746I13734119I13776548I13955017I14247209I14877364
86I15297845I14494033I12683683I11687570I12964650I15971230I18673524
79I19366621I18173597I16563165I15562241I15189000I15205303I15582220
72I16418172I17912876I20171636I22621561I24121210I24024458I22863908
65I21640148I20595523I19323524I17960851I17582130I18792459I20194955
58I20200368I19361676I19090197I19413259I19330940I18769073I18436857
51I18301886I17612532I15888644I12870638I07962770I00411940H90454687
44H80593048H74308877H73003132H75770640H81593504H89856405H99117490
37I07267269I13172385I16805178I17729863I15630195I12881329I11891630
30I11330899I09163946I05030023H99914420H94271228H87666399H80957604
23H76447900H74666149H73521835H72058936H72804952H76781319H77247971
16H70604590H64281597H64703482H70754127H78250165H85347838H91795378
9H95472804H94096367H90310963H88646677H89349595H89134377H86883434
2H89231663I01763457
##END=


$$ === CHEMSPECTRA PEAK TABLE EDIT ===
##TITLE=CHS- 290
##JCAMP-DX=5.00
##DATA TYPE=INFRAREDPEAKTABLE
##DATA CLASS=PEAKTABLE
##$CSTHRESHOLD=0.93
##MAXX=3997.453
##MAXY=0.9578350761416029
##MINX=373.96442
##MINY=0.5876712190625817
##$CSSOLVENTNAME=- - -
##$CSSOLVENTVALUE=0
##$CSSOLVENTX=0
##NPOINTS=27
##PEAKTABLE= (XY..XY)
376.7974837842062, 0.7911474093098786
393.7958664894445, 0.7709853630897278
400.8785259499605, 0.7779231650209505
432.0422275762312, 0.7787654383013428
526.9498643471461, 0.7906597236996976
569.4458211102419, 0.7896003710012217
650.1881389601249, 0.7870852334917642
660.1038622048472, 0.739575623019156
671.4361173416728, 0.7743681652884091
699.7667551837371, 0.6175123438361316
719.5982016731818, 0.6791800242136345
729.5139249179042, 0.7238273608288747
742.2627119468334, 0.68154555365824
794.6743919546516, 0.5876712190625817
991.5723249569974, 0.6160508382865034
1001.4880482017197, 0.6588023294291018
1068.0650471305703, 0.7068793759805863
1092.146089296325, 0.7604716998644495
1259.2968525645033, 0.7537029367058912
1337.2061066302017, 0.7954339365656381
1439.1964028616103, 0.778804240841441
1457.6113174589732, 0.7947697626445988
1597.8479747771894, 0.8185160144265893
1647.4265910007816, 0.7673461419166997
2850.0621673964033, 0.7058229429729868
2919.4722301094607, 0.6508468970303776
2952.052463627843, 0.7968416789470937
##END=


$$ === CHEMSPECTRA PEAK TABLE AUTO ===
##TITLE=CHS- 290
##JCAMP-DX=5.00
##DATA TYPE=INFRAREDPEAKTABLE
##DATA CLASS=PEAKTABLE
##$CSTHRESHOLD=0.93
##MAXX=3997.453
##MAXY=0.9578350761416029
##MINX=373.96442
##MINY=0.5876712190625817
##NPOINTS=57
##PEAKTABLE= (XY..XY)
2953.4689955199374, 0.7954828121730678
2919.4722301094607, 0.6508468970303776
2850.0621673964033, 0.7058229429729868
1647.4265910007816, 0.7673461419166997
1596.4314428850662, 0.8152453281791506
1576.5999963956215, 0.8734331705699636
1535.5205715246284, 0.8791519386705268
1522.7717844956996, 0.8639245018753509
1510.022997466771, 0.887325463860031
1484.525423408913, 0.8450472935912304
1460.4443812431587, 0.7928022727927799
1439.1964028616103, 0.778804240841441
1413.6988288037528, 0.8531673535584077
1376.8689996090693, 0.8404508214791641
1364.1202125801406, 0.855793891592257
1337.2061066301794, 0.7954339365656381
1318.791192032838, 0.851301728179814
1296.1266817591868, 0.8506304606498992
1259.2968525645033, 0.7537029367058912
1213.9678320172006, 0.8351086364102357
1202.635576880375, 0.8115265349481132
1191.3033217435495, 0.823270617281978
1177.1380028225171, 0.8226750476220263
1157.3065563330724, 0.8340743165151124
1092.146089296325, 0.7604716998644495
1068.0650471305703, 0.7068793759805863
1001.4880482017197, 0.6588023294291018
991.5723249569974, 0.6160508382865034
906.5804114308053, 0.840972660246966
882.4993692650505, 0.8233636602388339
854.1687314229866, 0.8149831278065242
845.669540070367, 0.8190202699292325
794.6743919546516, 0.5876712190625817
742.2627119468334, 0.68154555365824
729.5139249179042, 0.7238273608288747
719.5982016731818, 0.6791800242136345
699.7667551837371, 0.6175123438361316
671.4361173416728, 0.7743681652884091
660.1038622048472, 0.739575623019156
650.1881389601249, 0.7870852334917642
636.022820039093, 0.7965490203021532
620.4409692259574, 0.7954435930440179
600.6095227365126, 0.8066897971652106
592.1103313838935, 0.8070611937982033
569.4458211102419, 0.7896003710012217
549.6143746207972, 0.8008515224507372
526.9498643471461, 0.7906597236996976
501.45229028928816, 0.8150996549619782
490.1200351524626, 0.8132740239068651
478.78778001563705, 0.81639748654827
458.9563335261919, 0.818532286373206
451.8736740656759, 0.8198775627132258
432.0422275762312, 0.7787654383013428
400.8785259499605, 0.7779231650209505
393.7958664894445, 0.7709853630897278
381.04707946051576, 0.7927203162759521
376.7974837842062, 0.7911474093098786
##END=

##END=

