##TITLE=X7391
##JCAMP-DX=5.0
##DATA TYPE=LINK
##BLOCKS=1


$$ === CHEMSPECTRA SPECTRUM ORIG ===
##TITLE=X7391
##JCAMP-DX=5.00
##DATA TYPE=INFRARED SPECTRUM
##DATA CLASS=XYDATA
##ORIGIN=ComPlat
##OWNER=
##XUNITS=1/CM
##YUNITS=TRANSMITTANCE
##XFACTOR=1
##YFACTOR=9.1824548e-010
##FIRSTX=3997.453
##LASTX=373.96442
##MAXX=3997.453
##MAXY=0.9859585756567101
##MINX=373.96442
##MINY=0.14113090889334154
##NPOINTS=2559
##XYDATA= (X++(Y..Y))
2559A014334021A014885444A015534104A015777262A015604533A015200913A014731474
2552A014478514A014670457A015133925A015513462A015746040A015940190A016002764
2545A015770057A015302759A014794048A014439762A014460858A014900438A015376044
2538A015397984A014911214A014251583A013771953A013763190A014400945A015440372
2531A016196655A016052552A014966258A013568066A012798735A013257529A014643454
2524A015837370A015928506A015189489A014774575A015446668A016649802A017348119
2517A017316897A016871864A016181011A015516448A015484187A016158617A016646232
2510A016344199A015663797A015225904A015085760A014911278A014575492A014268525
2503A014216986A014417757A014682724A015014553A015691384A016802214A017810159
2496A017924403A017007204A015871578A015568767A016270654A017310535A018249609
2489A018948057A019177519A018820960A018066689A017350001A017043360A016925870
2482A016547761A016043399A015780573A015436607A014559588A013846796A014354922
2475A015663278A016546657A016645453A016042945A014895245A014071389A014754712
2468A016583982A017987821A018496338A018499908A018052863A017189995A016409175
2461A016043724A015935127A016038985A017102494A019751660A022186424A022754659
2454A022074127A021068259A020149438A019321168A018438891A017519485A016934438
2447A017263215A018593575A019999038A020496000A019934451A018742482A017474242
2440A016610725A016519005A017147543A017891688A018409941A019072037A019816961
2433A019659161A018734238A018512695A019646504A020925324A021059886A019832670
2426A017922261A016794489A017386547A018467322A018584552A018151398A018312898
2419A019105337A020088291A021211584A022130405A022325464A021889973A021267797
2412A020724164A020390259A020359231A020483602A020369682A019831112A019174208
2405A018938579A019292152A019827347A020139441A020162550A020089005A020231226
2398A020631081A020861776A020758372A020749479A021033077A021247415A021219113
2391A021223462A021309989A021080268A020378770A019564650A019388546A020500479
2384A021935541A021854791A020295294A018704444A018279858A018504192A018137053
2377A016932491A015519044A015033052A016029638A017364347A018087785A018770913
2370A019692266A020421741A020729032A020753958A020619721A020386429A020132106
2363A019828840A019484874A019222892A019013163A018800837A018993949A020149308
2356A021752815A022684035A022679037A022021029A021096885A020471334A020584929
2349A021200289A021785336A022170975A022474631A022906614A023631677A024552511
2342A025197147A024963465A023787789A022230953A020804329A019705703A018889636
2335A018187294A017525392A017308523A018437139A020578697A021676869A021110127
2328A019947238A019418989A019645660A019925493A019736471A018867566A017491509
2321A016075011A015083618A015015396A016037232A017121124A017050111A016097405
2314A015740003A016802474A017732914A017424909A016864464A016822661A017179934
2307A017554473A017802499A017899672A017639572A016783519A015367022A013708924
2300A012479566A012860531A015009684A016815910A017057965A016343160A015778430
2293A016272082A017807238A019019784A018758775A017459312A016280521A016006789
2286A016653112A017976592A019716608A020999648A020804070A019272549A017569078
2279A016632146A016382042A016228137A015816988A015016305A013889248A012706691
2272A011674664A011043919A011392818A012969582A014878823A016084228A016291426
2265A015809783A015394674A015527613A015705859A015247260A014400490A013783961
2258A013412863A013157566A013462909A014617230A015637638A015570454A014787817
2251A013992327A013516331A013490626A013816612A013870553A012919730A011183219
2244A009912707A009914460A010718453A011310121A011051254A010218051A009765878
2237A010294322A011416121A012175845A011955925A010929545A009708626A008721907
2230A008017163A007451849A006911656A006359195A005866257A005745133A006396519
2223A007640872A008525939A008318482A007446007A006933791A007013113A006964364
2216A006358286A005706705A005658865A006181922A006881473A007554733A008098108
2209A008305630A008025667A007364544A006674340A006360883A006583724A007157930
2202A007823857A008494327A009163499A009712715A009974957A009987291A010023057
2195A010275497A010569352A010552280A010214091A010023252A010362933A010899426
2188A010932012A010413045A009948668A009750429A009380953A008659137A008010867
2181A007774719A007878188A008289986A009185504A010523070A011828179A012578621
2174A012730513A012748234A013061431A013534247A013564301A012788090A011605079
2167A010852625A010941878A011352833A011228398A010445371A009730436A009689152
2160A010163201A010670549A011072156A011514852A011968583A012128716A011759633
2153A011026977A010418108A010251870A010396103A010589344A010760386A010864374
2146A010736758A010318339A009813847A009539921A009674482A010031301A010104521
2139A009607104A008886328A008465117A008327765A008004830A007221479A006219051
2132A005567275A005756752A006779562A008076557A009003752A009298645A009090734
2125A008685946A008406502A008361389A008328803A008108039A007832880A007607183
2118A007166109A006256700A005053631A003987980A003443308A003469986A003556384
2111A003141015A002553567A002683909A003542882A004023032A003311667A001803125
2104A000414540I99649558I99496367I99680651I99771267I99402700I98646417
2097I97983346I97803282I98076884I98489266I98716002I98684520I98735540I99336555
2089A000485293A001594760A002139626A002287495A002705394A003787663A005249209
2082A006442087A006859857A006427027A005571689A004953408A004917642A005273811
2075A005549814A005269462A004220493A002849303A002207134A003086814A005195917
2068A007264645A008068313A007451720A006257544A005284975A004704992A004554462
2061A005154114A006633835A008414032A009604508A009817677A009332399A008645052
2054A008217480A008439802A009249507A009880706A009605936A008633757A007753363
2047A007389340A007564211A008336593A009587047A010689243A011060342A010944670
2040A011090980A011637275A011878680A011294737A010276601A009536091A009244249
2033A009044647A008604547A007985097A007658722A008106741A009207315A010255505
2026A010881316A011507582A012427247A012945111A012184868A010498468A009282417
2019A009443463A010609597A011732954A012071532A011704913A011371203A011673625
2012A012335203A012503518A011880368A011162707A011127980A011724516A012401023
2005A012913174A013355870A013693864A013744950A013514514A013191450A012842486
1998A012343446A011672327A011135769A011127720A011700953A012534481A013239030
1991A013522952A013246754A012527925A011648569A010860220A010470167A010864569
1984A012062899A013484135A014470465A014839941A014776328A014439827A013902684
1977A013271421A012658267A012129888A011805525A011821623A012073090A012265358
1970A012304305A012292816A012189022A011894519A011478566A010949343A010248170
1963A009734915A010015982A011079101A012210508A012798151A012746936A012292491
1956A011736070A011162772A010451472A009773602A009679545A010350340A011227424
1949A011662396A011540232A011122462A010683206A010431415A010450434A010532677
1942A010266410A009496950A008574493A007889288A007280353A006256505A004723102
1935A003067081A001514789I99872854I98097850I96777551I96599759I97412775
1928I98287781I98547427I98202812I97306579I95590775I92954007I89616455I85524502
1920I80233635I73745281I67064141I61599895I58097987I56201145I54910510I53349455
1912I51133248I48195486I44457171I39760892I34102561I27773890I21114040I14181757
1904I06880062H99418167H92532295H87302575H84740650H85294344H88566790H93567438
1896H99225120I04661714I09284902I12954541I15959681I18600344I20861015I22553127
1888I23602550I24058813I23840970I22580909I19917267I15924044I10942870I05090259
1880H98492659H92018132H87163729H85130443H86323775H90566387H97325616I05764689
1872I14932198I24038625I32566626I40141403I46266512I50354570I52336577I53033466
1864I53462336I53943719I54231342I54215828I54172597I54569660I55813429I57959206
1856I60608892I63220149I65483222I67369419I68962800I70322890I71490387I72559868
1848I73596245I74434446I74746540I74355124I73296938I71666362I69646513I67578564
1840I65767859I64335912I63308429I62582200I61741921I60216956I57770768I54692473
1832I51448393I48264097I45151204I42264657I39958028I38395025I37352548I36506946
1824I35667511I34705459I33562498I32398051I31485526I30917162I30541779I30143871
1816I29546426I28618517I27361247I25968053I24716106I23856548I23616895I24043883
1808I24741292I25090255I24917007I24716236I25166591I26622231I28961704I31768216
1800I34797178I38222101I42169237I46224190I49775690I52640817I55072594I57379677
1792I59678191I61833446I63668038I65314777I67158976I69349413I71617159I73604553
1784I75167881I76389904I77477819I78655832I80068695I81756003I83668100I85668930
1776I87547078I89097813I90234867I91015881I91570484I92025384I92429392I92634318
1768I92321380I91338491I90016180I88998303I88691013I88871856I88870493I88157311
1760I86717705I84860134I82859108I80877751I79032059I77388242I76020752I75138216
1752I74986713I75507432I76246254I76863952I77664180I79272491I81814748I84745500
1744I87404598I89467418I91092152I92844047I95131786I97645352I99789832A001538741
1736A003270384A004983072A006308564A007141053A007737460A008286156A008713339
1729A008878733A008743652A008342564A007782184A007322870A007216221A007361038
1722A007391936A007191749A007032716A007153581A007448344A007604976A007371100
1715A006681805A005666395A004598861A003811615A003540805A003754883A004153504
1708A004393741A004371671A004320651A004579777A005229411A006035741A006736915
1701A007232059A007547724A007782119A008038649A008312575A008508413A008549956
1694A008416434A008153023A007875202A007721816A007852158A008406048A009233409
1687A009791777A009645337A008951564A008213455A007748690A007556811A007463858
1680A007306448A007135082A007187790A007579011A008194761A008968895A009966973
1673A011072480A011907241A012306187A012635613A013338799A014309874A015024809
1666A015219803A015097769A014908552A014731344A014686880A014919133A015275302
1659A015416614A015335410A015383185A015742729A016237874A016648763A016893609
1652A016957093A016907955A016940800A017229721A017758295A018320752A018678934
1645A018745792A018611750A018373785A018055719A017770887A017782507A018217608
1638A018834916A019279494A019487601A019598859A019578087A019302084A018972009
1631A018989470A019381276A019753088A019828061A019671949A019412433A019101248
1624A018860945A018879445A019192643A019624499A019953340A020077775A020058172
1617A020027469A020022341A019961844A019856103A019884599A020172027A020673598
1610A021353156A022182854A022902008A023125693A022815351A022372525A022182010
1603A022266719A022417314A022483848A022440033A022247830A021833046A021309405
1596A021127523A021737107A023010799A024234964A024891219A025238625A025776352
1589A026373537A026478239A026060599A025693070A025693589A025833019A025930841
1582A026117331A026413133A026611827A026673752A026780272A026959752A027063805
1575A027093210A027209856A027442693A027625419A027646905A027624770A027739404
1568A027987495A028267393A028591756A028929880A028994142A028555016A027826709
1561A027236470A026986755A027010383A027152929A027310534A027483847A027654434
1554A027724344A027776598A028125302A028794539A029366539A029744843A030525533
1547A032035892A033463879A033623237A032362008A030620109A029322075A028787788
1540A028956169A029572243A030238429A030623614A030582136A030122108A029510253
1533A029258007A029659030A030459128A031161535A031443835A031245531A030755579
1526A030343261A030263355A030473539A030814129A031158614A031341859A031238910
1519A030946678A030606283A030133143A029468450A028934618A028940395A029407887
1512A029791254A029650786A029119421A028826281A029263589A030160666A030716827
1505A030520145A029852336A029009980A027921999A026689785A025886701A025887545
1498A026360425A026762616A026909965A026822984A026551264A026418196A026952158
1491A028339899A030218956A031960985A032949067A032876561A032084122A031282725
1484A030747919A030166313A029384779A028806548A028822776A029195627A029239312
1477A028568582A027594326A027122096A027394204A027818141A027783933A027301381
1470A026649735A026023210A025725201A026038529A026692901A027051602A026908018
1463A026592029A026376003A026260851A026206714A026165496A025972903A025508657
1456A024965218A024772042A025210518A026162185A027190967A027764979A027564013
1449A026822335A026197172A026038334A026086174A026099286A026250465A026641491
1442A027016420A027200963A027332668A027615358A028218190A029238079A030484119
1435A031614747A032547719A033329902A033762407A033664131A033267003A032949196
1428A032875976A033119264A033730146A034570425A035395904A036049887A036343546
1421A036067607A035391035A034874081A034835653A035049342A035201429A035277700
1414A035399863A035644450A036045278A036457595A036574241A036260135A035603491
1407A034767171A034279427A034892840A036442146A037643982A037698248A037190121
1400A036965592A036998048A036656484A035628611A034325644A033448106A033374691
1393A033899760A034458972A034705895A034608463A034132078A033527168A033567024
1386A034743219A036491869A037767963A038167428A037986065A037419388A036434162
1379A035317361A034559909A034192770A033856204A033563713A033686266A034171544
1372A034531024A034510901A034240804A033914170A033717683A033885609A034509408
1365A035361890A036054106A036428255A036768911A037491635A038616680A039743738
1358A040430241A040377662A039560492A038481275A037858839A037835990A038039293
1351A038417012A039208932A040123145A040463541A040074396A039431319A038916441
1344A038577798A038391632A038355217A038460633A038702103A039005889A039244698
1337A039456959A039903290A040682552A041317191A041077927A039936395A038743517
1330A038123353A037850985A037691692A037832160A038155225A038396760A039138438
1323A041145370A043772272A045490932A045844051A045635423A045405574A044752370
1316A043223186A041285255A040012536A039911663A040447507A040737856A040493595
1309A040425957A041601763A043952985A045929149A046315502A045584859A044798262
1302A044305390A044166090A044672659A045871638A047234064A048150874A048543393
1295A048802974A049109746A049093648A048438951A047442820A046700557A046568527
1288A046857124A046789745A045706373A044000825A042754006A042400693A042279309
1281A041571839A040477107A040331056A042282684A045912143A049637541A052198557
1274A053182225A052554142A050359680A046978508A043556701A041735545A042384984
1267A044735688A047146888A048716577A050320344A053793431A058933769A062088335
1260A060724741A057526683A056279994A057606265A060095100A062433859A063987515
1253A064780019A064906726A063859574A061362690A058127374A054750940A051362433
1246A049173683A050176890A054307465A058910141A061664464A062305205A061575730
1239A060150729A058423954A056558594A054956320A054449037A055197661A055943039
1232A055528449A054566656A054339856A054758600A054736530A054043924A053544950
1225A053813619A054390746A054436249A053834975A053458488A054020816A054937366
1218A055085623A054486880A054187054A054598658A055114379A055277242A055273542
1211A055294444A055268544A055193766A055066994A054692065A054244436A054578340
1204A056060983A057676045A058412076A058850877A059978973A061279669A061642718
1197A061394367A061841802A063321588A064838439A065302686A064441375A062821056
1190A061415658A060988930A061584623A062251523A061399495A058408700A055130997
1183A054553350A057277034A060763817A062759844A063705734A064953202A065905648
1176A064407686A060191233A056380931A056091102A058743124A061650313A063552089
1169A064440467A064277928A064001276A065447113A068673472A071190738A070904219
1162A068407076A065831519A064894392A066412152A069867453A072979892A073741823
1155A073030004A072858962A072702071A070559215A066785717A064083908A064368869
1148A066763907A068286340A066834661A063516972A061123816A060755574A061174902
1141A060924149A059394380A056474728A052699608A049320253A047636840A048536123
1134A052312996A057803076A062042962A062688117A060339361A056895614A053005861
1127A048807323A045617575A044730300A045467824A046258835A046666349A047304493
1120A048484324A049482207A049083781A046784877A043563387A041558402A042732910
1113A047161753A052561412A056222288A057358563A057080287A056779423A057163439
1106A058318473A060045183A061930341A063371700A063895535A063507754A062716224
1099A062334350A062978985A064342061A065343645A065326703A064584895A063571238
1092A062556217A062143575A062764972A063596358A063362093A061990124A060681185
1085A060328067A060391355A060047000A059533226A059312917A059020361A058213317
1078A057212252A056502575A056134852A055976728A055882217A055652820A055190845
1071A054664413A054637280A055827561A058202736A060497615A061220924A060296390
1064A059063267A058690286A059197764A059934703A060488528A060898898A061186066
1057A060952450A059783330A058246616A057490203A057710448A058060515A057787952
1050A057005055A056286031A056018011A056380023A057358887A058573251A059443194
1043A059642342A059344528A059043274A059049701A059172059A059014843A058489450
1036A057738814A056900742A055964654A054686743A052966265A051107655A049460397
1029A048304065A048015079A048619340A049473704A049741074A048993035A047465149
1022A045840805A044835911A044650589A044791641A044724263A044399706A043994074
1015A043547613A043131011A043066749A043568515A044425995A045351243A046374831
1008A047666245A049185367A050677682A051838233A052547261A053067202A053753316
1001A054506094A055060178A055370650A055330340A054807608A054013481A053319837
994A052777956A052179668A051487127A050926877A050617963A050223496A049209385
987A047654236A046068385A044611642A043222537A041794225A040138918A038179177
980A036085198A033971292A031731133A029311429A026855764A024518238A022160524
973A019334085A015962130A012632367A009497469A006198604A002694814I99006480
966I94771463I89984503I85331391I80954801I75922346I69295861I61920363
959I55084668I48373278I41069442I33003675I23729062I12456021H99293602
952H84364747H64750065H34112056G89580790G39144594F90396485F43193593
945E96237300E49881762E04693657D60513432D19372847C86456998C63847594
938C49323333C42250906C46261882C65693156D00945526D43261170D84427199
931E27128742E74596667F20874830F59127796F92588025G26888533G54540421
924G67094036G68890850G64538407G52904912G29907695F96652001F59529144
917F17960955E65640704E06920672D56481295D17060767C80895872C43071451
910C07084479B78680073B57649120B41298283B27843065B14691551A99981724
903A89296456A84980785A82969066A80805210A77438318A72507450A66572109
896A60554558A55643407A53696274A58185355A74152890B00261103B26486545
889B49407525B71665904B93922287C12463950C22600944C22606949C13433825
882B99206696B85383868B74320847B66937071B65639638B71032839B80366894
875B92067085C05722247C20158034C33911634C46826968C60444222C76998069
868C97745229D21963593D47846449D74025399D99903354E24941193E47965447
861E67259920E80885158E86893427E84721490E77353845E71420290E74044855
854E88110646F09924658F33401182F56499077F80781931G03491591G18951096
847G28719491G38293345G50650083G63498915G73974909G82598460G89841409
840G95086968G99549501H08300213H23362071H35072486H41336571H46376750
833H51853069H57888990H64217207H70037103H74872681H79279779H83842859
826H88591651H94621990I03217694I10931381I15057931I17305750I19995551
819I23717638I26900506I28657659I29649441I30381188I30520812I29586542
812I27630760I25334193I23471104I22080896I21117545I20757416I20590139
805I19840217I18084687I15189637I11267817I07345413I04838143I02147628
798H95556585H79860347H46747264G86771812G02595943F25270763E89186099
791E99911353F49576725G26749428H05852987H61985876H95673296I17431548
784I33024512I44690852I53330566I59344611I63236118I65524960I66347453
777I65371445I62416156I58001918I52447380I45286804I35671211I23265789
770I08976767H93229120H73208546H40999680G88639574G32768537G02774969
763F96918008G00967444G03537613F95415828F71463438F33767802E87901177
756E36473264D81387007D27193801C75938714C24136230B72994025B34912214
749B16124163B13059466B23758220B46163348B73159971B97869942C17987882
742C33420450C45656582C59194806C79711173D06970736D33721491D57013277
735D79382606E03154379E28911535E55797402E82668016F09749137F37288729
728F62766472F83583964G00877282G17079699G32527456G46315037G58595180
721G69777994G79275773G86710730G92754440G98113335H02192240H03438735
714H00908292G94073636G82034509G64061762G40399981G11899052F79696027
707F47043361F19878634F01973914E92347676E88244688E87235056E87453093
700E87843146E88177700E88448186E88387169E87704171E86315845E84426013
693E82726436E82266993E83885820E87689631E92718775E97125548E99143191
686E97959725E93578008E86124096E75673223E62780641E48729519E34902634
679E22148573E10494534D99052073D86627795D73044100D59867433D49590036
672D44141304D44093659D48815447D57046576D67413616D78819207D90795986
665E03492763E17032155E30925250E44356305E56779318E67915786E77550332
658E85646413E92467373E98573398F04832160F12193638F21180888F31629619
651F42971466F54699602F66555159F78358332F89766974G00286328G09522189
644G17342396G23780119G28870669G32647931G35278468G37098585G38441992
637G39503424G40439837G41429607G42436253G43070438G43093741G43221098
630G45130208G50251787G58488271G68289705G77925225G86535080G94097523
623H00789958H06545657H10999750H13645801H13997816H11594469H05887325
616G96331516G82780082G65761728G46299978G25543698G04542442F84082419
609F64535179F45905009F28039172F10781944E93997206E77501519E60997653
602E44132263E26654142E08646310D90913216D75274068D64223900D60011861
595D63744886D74739652D90162028E05631530E17204268E23521937E26393360
588E29602160E37034261E51142537E72220324E98564570F27259845F55089655
581F79283969F98055776G10744666G17490264G18801670G15353055G07949709
574F97602565F85764404F74509148F66313753F63414743F67014797F76784944
567F91081106G07801127G25223100G42244700G58119898G72196660G83883836
560G92657138G97959105G99213779G96275302G90176612G83500080G79712043
553G81553386G89486019H01425636H14048771H24644397H32149199H36925059
546H39883787H41786537H43059126H43935950H44575198H45065474H45472988
539H45952034H46793157H48369207H51012206H54855613H59708263H65052033
532H70217557H74696901H78384196H81494168H84202664H86380443H87721189
525H88113838H87774221H86959128H85737754H84260045H83111437H83116825
518H84735522H87680879H90982080H93324994H93453194H90420596H83644620
511H73104428H59980956H47193531H38744851H37676344H44060580H54679898
504H64504376H68644363H63693761H48624049H25633647H00045229G77887641
497G62158688G51125170G40308521G26087461G08043376F89216590F74991310
490F71163158F81404691G05105290G37270146G70981193H00763019H24407794
483H42309074H55757103H65995846H74085630H80804419H86566868H91570048
476H95972472H99979391I03814035I07445117I10331923I11544340I09801532
469I02898264H87352297H59827246H20768469G78118077G46425516G38787646
462G57246709G91417135H27030671H55397559H75368605H89240246H99147940
455I06421528I11953866I16196348I19178770I20788963I20728790I17716510
448I09031747H92904757H73187645H59787261H60802281H74191630H89746621
441H98862006I00125896H96677605H91756474H87259798H84074528H82379950
434H81944070H82477058H83765160H85553081H87386830H88717579H89267055
427H89143853H88510901H87359048H85714841H83832798H81976720H80065727
420H77589485H73787492H67927286H59666720H49443881H38649561H29326524
413H23361227H21580771H23451649H27571319H32375220H36532020H39037667
406H39053830H35537836H27191068H13262823G94727619G74535809G56343402
399G42746790G34465906G30699939G29923014G30707858G32344795G34753529
392G37832149G41204624G44596961G48040254G51531256G54622210G56431292
385G56088429G53140476G47479678G39051770G27913680G14643638G00701178
378F88394616F80246866F78012614F82069320F91509457G04637343G19550619
371G34683749G49133427G62611186G75105147G86705602G97928467H09930075
364H23803144H39574030H56136576H71954133H85629807H96342143I04214019
357I10031838I14504496I18070407I21197061I24273929I27214677I29582128
350I31184142I32330219I33446631I34561290I35266358I35216247I34516372
343I33375358I31508570I28390029I24129501I19515855I15069745I10695752
336I06470861I03153301I01565697I01799638I03233727I05087272I06750369
329I07730727I07522102I05417088I00242477H90530686H75414367H55393989
322H32192235H08274054G86741758G71024943G63700400G65195311G73636591
315G85948475G99155164H11071348H20574319H27796432H33887203H40089102
308H46819316H53639757H59945580H65433388H70096692H74340472H79101013
301H85250140H92883921I01652159I11408285I21900052I32264009I41468388
294I49055757I55240325I60534049I65290695I69448078I72775180I75187224
287I76485648I75868600I71754447I61789955I43236056I14233426H75402878
280H30856293G88287429G56800962G40788541G33066480G15534872F71176659
273E98674465E15156377D43988308C99732655C82394612C82236229C88809227
266C96730403D04978831D12997050D18883740D20706453D18094222D12175369
259D04381191C95469174C85589132C75012947C64581418C55709191C50284475
252C50479957C58569709C76831279D07069986D49645178E02578875E61257039
245F19343958F71168286G13668603G45778025G66460500G73674694G64440001
238G35732264F86586832F20037927E42610057D61934473C84671901C15769891
231B58563122B14800521A85201403A70960010A74496191A98368983B42974540
224C04271963C73710077D41372571E00148525E47589999E84421988F12112109
217F32022333F45784664F55445110F63215854F71001658F79599050F88835884
210F99085856G11001132G21842642G27603403G29026002G28692098G28652177
203G30729149G36274210G45640347G58185264G72458253G86298283G97593459
196H05572180H10777429H13669688H13999958H11606737H06997505H00465661
189G90959444G76711121G57005239G32683308G05071795F74984430F42912656
182F10126598E79580178E55900417E43960540E45483103E55760987E64982827
175E64970494E55868545E45961111E44019512E51839881E64596863E76581919
168E85021705E89574594E89125602E79471062E55882371E19638934D81751419
161D58808533D63142540D94981574E43446928E94696043F39493121F75412326
154G04201527G28155800G48542019G65669814G79544766G90787299H00604117
147H09556444H17024247H22175230H25083912H27059687H29843090H34039355
140H38540834H41767193H43357913H44237658H44783953H43308386H36569084
133H21509304G96139118G59200609G10507675F52556291E91439760E35983150
126D96426924D82847352E01355813E49069655F12940574F75885725G26490107
119G62774374G87732306H04360478H14579227H19721188H20468124H16171700
112H04119656G79519320G36170806F69149280E81827153D89521774D10691785
105C59303857C46403096C77481660D43539315E22150293E92666262F46721206
98F85532021G13283548G33299967G47474875G57645330G66010729G73308982
91G78402389G81440245G85049257G90702849G96587332H00209585H01523458
84H02340693H03993209H06325542H07678751H05315325G96886898G81906569
77G61126921G34711986G02353174F65817116F30088880F00738844E81273394
70E72510997E73004519E80834397E94609905F12749410F33275968F53604027
63F69783270F77338314F73076423F57548371F37896040F23648431F20137047
56F28206254F44737577F64172000F81790850F94795599G02137538G04565096
49G03935455G01768971F98200075F92501174F84736012F76509589F69128379
42F61706468F52472101F41160307F28823626F16135580F03817724E93889972
35E88183087E86973008E90527235E98865045F09306896F18707307F25624466
28F30509572F35445049F41543349F47555578F52957573F60136066F71227225
21F84644357F96526917G04716016G11647390G21348081G31647711G37621512
14G39193602G39792540G40908173G40546357G37113774G33313858G34594561
7G42840068G54895422G67089622G76777071G80548621G75220560G65560762
##END=


$$ === CHEMSPECTRA PEAK TABLE EDIT ===
##TITLE=X7391
##JCAMP-DX=5.00
##DATA TYPE=INFRAREDPEAKTABLE
##DATA CLASS=PEAKTABLE
##$CSTHRESHOLD=0.93
##MAXX=3997.453
##MAXY=0.9859585756567101
##MINX=373.96442
##MINY=0.14113090889334154
##$CSSOLVENTNAME=- - -
##$CSSOLVENTVALUE=0
##$CSSOLVENTX=0
##NPOINTS=40
##PEAKTABLE= (XY..XY)
420.70997243940565, 0.5389853114780039
453.2902059577791, 0.5694380403882976
471.7051205551211, 0.5257056352455436
519.8672048866297, 0.3180830771600061
549.6143746207972, 0.443372398503969
600.6095227365126, 0.4212988616126809
616.1913735496478, 0.4995434579258058
626.1070967943701, 0.4994893071533592
695.5171595074276, 0.1569832564432548
730.9304568100074, 0.32164713680116847
752.1784351915558, 0.3509866895714949
823.0050297967159, 0.701264440374192
845.669540070367, 0.8278586261932996
905.1638795387021, 0.6225820181884848
933.494517380766, 0.6702485083534767
956.1590276544171, 0.7544128294256651
987.3227292806878, 0.8098411558903036
1002.9045800938229, 0.7894957661748303
1028.4021541516809, 0.6783884166193401
1066.648515238467, 0.6162925361760259
1090.7295574042219, 0.7691925165809251
1157.3065563330724, 0.7159670591863156
1179.971066606724, 0.6091775891251117
1216.800895801407, 0.4224038121096383
1323.0407877091475, 0.4077869950734113
1352.787957443315, 0.5346640344754416
1366.953276364347, 0.5392259358695469
1432.1137434010943, 0.1956408916257137
1453.3617217826427, 0.6399418107766038
1494.4411466536353, 0.5410174722855825
1585.0991877482406, 0.5247040984727892
1616.262889374511, 0.24392239690233625
1638.9273996481625, 0.14113090889334154
1699.8382710086003, 0.3142703474604049
2854.311763072713, 0.8952771422723073
2871.310145777951, 0.9078610538038713
2936.470612814699, 0.8481070390853847
3007.297207419859, 0.8761646743351116
3031.3782495856135, 0.8127670284951477
3063.9584831039874, 0.8124091028347621
##END=


$$ === CHEMSPECTRA PEAK TABLE AUTO ===
##TITLE=X7391
##JCAMP-DX=5.00
##DATA TYPE=INFRAREDPEAKTABLE
##DATA CLASS=PEAKTABLE
##$CSTHRESHOLD=0.93
##MAXX=3997.453
##MAXY=0.9859585756567101
##MINX=373.96442
##MINY=0.14113090889334154
##NPOINTS=46
##PEAKTABLE= (XY..XY)
3341.5987339562157, 0.9162283536256653
3106.4544398670837, 0.9151232240708393
3063.9584831039874, 0.8124091028347621
3031.3782495856135, 0.8127670284951477
3007.297207419859, 0.8761646743351116
2936.470612814699, 0.8481070390853847
2929.387953354183, 0.8491165039896134
2871.310145777951, 0.9078610538038713
2854.311763072713, 0.8952771422723073
1699.8382710086003, 0.3142703474604049
1638.9273996481625, 0.14113090889334154
1616.262889374511, 0.24392239690233625
1585.0991877482406, 0.5247040984727892
1494.4411466536353, 0.5410174722855825
1453.3617217826427, 0.6399418107766038
1432.1137434010943, 0.1956408916257137
1366.953276364347, 0.5392259358695469
1352.787957443315, 0.5346640344754416
1323.0407877091475, 0.4077869950734113
1216.800895801407, 0.4224038121096383
1179.971066606724, 0.6091775891251117
1157.3065563330724, 0.7159670591863156
1109.1444720015634, 0.8109130853615548
1090.7295574042219, 0.7691925165809251
1066.648515238467, 0.6162925361760259
1028.4021541516809, 0.6783884166193401
1002.9045800938229, 0.7894957661748303
987.3227292806878, 0.8098411558903036
956.1590276544171, 0.7544128294256651
933.494517380766, 0.6702485083534767
905.1638795387021, 0.6225820181884848
845.669540070367, 0.8278586261932996
823.0050297967159, 0.701264440374192
752.1784351915558, 0.3509866895714949
730.9304568100074, 0.321647135882923
695.5171595074276, 0.1569832564432548
661.5203940969504, 0.66908156802241
626.1070967943701, 0.4994893071533592
616.1913735496478, 0.4995434579258058
600.6095227365126, 0.4212988616126809
549.6143746207972, 0.443372398503969
519.8672048866297, 0.3180830771600061
471.7051205551211, 0.5257056352455436
453.2902059577791, 0.5694380403882976
420.70997243940565, 0.5389853114780039
385.29667513682534, 0.6733621355298619
##END=

##END=

