##TITLE=CZ-PHOS16
##JCAMP-DX=5.0
##DATA TYPE=LINK
##BLOCKS=1


$$ === CHEMSPECTRA SPECTRUM ORIG ===
##TITLE=CZ-PHOS16
##JCAMP-DX=5.00
##DATA TYPE=INFRARED SPECTRUM
##DATA CLASS=XYDATA
##$CSCATEGORY=SPECTRUM
##ORIGIN=Angelika Moesle
##OWNER=
##XUNITS=1/CM
##YUNITS=TRANSMITTANCE
##XFACTOR=1.0
##YFACTOR=8.4983609e-10
##FIRSTX=3997.453
##LASTX=373.96442
##MAXX=3997.453
##MAXY=0.9125045525277921
##MINX=373.96442
##MINY=0.23262414315303423
##NPOINTS=2559
##XYDATA= (X++(Y..Y))
2559A069730498A069240243A068457027A067877068A067980659A068718567A069579284
2552A069985024A069741580A069176840A068827349A069032919A069690240A070307512
2545A070501440A070478365A070745516A071429067A072165432A072485255A072112268
2538A071206033A070365936A070055231A070087985A069951078A069527803A069246835
2531A069487896A070076693A070480610A070385925A069926951A069487966A069401698
2524A069637778A069818730A069805615A069929685A070309055A070418679A069867826
2517A069040845A068542524A068543786A068896363A069496242A070205253A070692282
2510A070743552A070512522A070219281A069841945A069358774A069015455A069034252
2503A069395526A070080480A071145014A072351925A073104281A072868411A071640880
2496A070056213A068949597A068825736A069633570A070884106A072033224A072689002
2489A072629175A071885727A070709185A069468538A068651797A068514189A068489080
2482A067938788A067387163A067986972A069610424A070764523A070932290A070788159
2475A070506911A069673687A068419574A067307909A066683412A066863243A068198925
2468A069906331A070512802A069947852A069249151A068943776A068700402A068240586
2461A067440888A066032474A064281443A064000264A067078632A071019960A072534070
2454A072069766A070980824A070053057A069640723A069525979A068953455A067678090
2447A066659566A066850758A067726134A068367463A068897486A069737302A070612326
2440A070971917A070801906A070315228A069391528A068140220A067604236A068595406
2433A069954094A070542610A070907251A071511268A071618997A070632315A068850213
2426A067165952A066765612A067869563A068847127A068562022A068022391A068505562
2419A069318726A069528294A069669969A070300639A070940005A071048576A070778761
2412A070474368A070250211A070174042A070301270A070349033A069927793A069238630
2405A069030254A069604533A070278826A070244319A069377641A068317736A068055355
2398A068947072A070132171A070712551A070737660A070536088A070129997A069518335
2391A068848670A068174096A067430858A066717569A066353139A066757897A067954428
2384A068666946A067612793A065682983A065479096A068745079A072714251A073741823
2377A072021091A069608040A068474071A069187991A070212057A070091702A069269490
2370A068618482A068377072A068550590A069141491A069993160A070897011A071675878
2363A071973819A071449406A070178882A068605156A067395019A067374749A068737995
2356A070217247A070732190A070634279A070385575A070030052A069705179A069585526
2349A069470712A069188553A068954577A068822650A068368655A067286026A066190071
2342A066550293A068865924A071143962A071661921A071032304A070503264A070423589
2335A070130347A068945880A067315273A066598336A066883863A066483102A065246523
2328A064816305A065741687A066366184A065739513A064609893A063826817A063481675
2321A063148385A062684572A062644945A063456636A064246094A063831727A062408304
2314A061437963A062289212A063887975A063850383A062021009A059938021A058911431
2307A058997349A059217578A058881973A058333786A058209364A058411708A058331892
2300A058048330A058476724A059442225A059294658A057800257A056046350A054918973
2293A054844208A055796453A056931755A057244073A056676948A055714744A054808087
2286A054472272A055059527A056091728A056592504A056307468A055709412A055202886
2279A054961827A054961336A054889937A054407537A053510980A052508868A051747254
2272A051508930A052024925A053192981A054209119A054279608A053554886A052528577
2265A051399587A050257833A049378530A049077433A049372989A049868364A049940254
2258A049248777A048245192A048045793A049253336A050730975A050922097A049759512
2251A048228640A047299960A047227439A047408883A047122164A046374718A045736966
2244A045340694A044657422A043475480A042332673A041772842A041703126A041763795
2237A041806999A041789816A041671004A041457579A041165880A040828804A040555481
2230A040430847A040426921A040490184A040551273A040451679A040050357A039425580
2223A038830401A038442264A038197558A037864689A037290130A036558955A035910051
2216A035577183A035658120A035937825A035911244A035238633A034100316A032989983
2209A032220163A031725068A031298497A030820376A030293720A029881176A029805708
2202A030013384A030114240A029879353A029589127A029563948A029569279A029058053
2195A027881370A026500660A025490903A025013553A024832320A024651438A024334631
2188A023934712A023622113A023521116A023564110A023628004A023750322A023961504
2181A024011651A023646310A023061230A022701428A022698904A022797797A022677933
2174A022144544A021188301A020069201A019191231A018679654A018230289A017605862
2167A017041332A016849298A016836954A016515799A015814011A015206418A015059902
2160A015165949A015096654A014811338A014625055A014663770A014691404A014462548
2153A013920392A013088642A012123632A011402347A011171738A011179733A010959504
2146A010411737A009888798A009761079A009978853A010021707A009404154A008368867
2139A007744581A007862200A008109291A007883592A007399859A007136566A007101077
2132A007061170A006931276A006644277A006153461A005640061A005289939A005012619
2125A004737122A004624342A004656956A004480983A003953415A003422972A003251698
2118A003384327A003527265A003507557A003356342A003191591A003068080A002891336
2111A002516596A002015049A001720335A001839988A002155182A002293912A002146134
2104A001807164A001314594A000653767I99868447I99047357I98330771I97936393
2097I98002462I98387721I98745910I98835405I98692466I98479251I98262458I98055345
2089I97977213I98108018I98230406I98036829I97580520I97208865I97082550I97108500
2081I97258242I97550922I97720653I97312388I96220080I94911751I94003271I93680712
2073I93652518I93657848I93815866I94253518I94621595I94393090I93553555I92607271
2065I91994487I91863893I92226288I92917415I93518907I93685622I93483418I93197752
2057I92948416I92676356I92355902I92040918I91779659I91596182I91499323I91436831
2049I91309884I91134332I91107119I91342778I91617503I91628935I91434236I91342357
2041I91443564I91559921I91534040I91329873I91026462I90805601I90698994I90458916
2033I89991596I89640632I89663987I89821865I89859669I89966767I90382116I90875738
2025I90991463I90621282I90045390I89475670I88858398I88209424I87820797I87949217
2017I88509188I89171207I89565165I89444740I88909948I88390937I88190066I88169165
2009I88063960I87911834I87958264I88256976I88579885I88714758I88691262I88662927
2001I88748844I89081713I89788059I90742478I91514542I91702228I91234417I90374752
1993I89586627I89269399I89428609I89690709I89753271I89695409I89795213I90189170
1985I90717650I91043014I90937388I90434368I89716029I89021185I88651214I88793311
1977I89295349I89782588I89950004I89717642I89293526I89110820I89450351I90086841
1969I90447554I90147018I89311481I88391709I87712926I87316163I87181711I87327035
1961I87673229I88095311I88593913I89176047I89659569I89802086I89553171I89104788
1953I88713496I88438279I88105902I87664252I87367363I87406850I87596780I87607932
1945I87271977I86585129I85687941I84858435I84327361I84110288I84103625I84237376
1937I84446873I84604260I84581887I84348262I83952270I83479689I83085171I82918456
1929I82905481I82775658I82455414I82229995I82348456I82677677I82931712I83054030
1921I83141070I83088467I82591619I81587263I80453152I79608428I79082824I78646574
1913I78168872I77674480I77235916I76953756I76885161I76911464I76830736I76613593
1905I76394206I76211710I75965461I75670396I75570451I75893921I76595358I77382431
1897I77908596I77930759I77426968I76638071I75932356I75529211I75295586I74841730
1889I73912772I72706842I71683619I71033593I70495294I69758297I68863144I68041003
1881I67287525I66317675I64938579I63291560I61699809I60366862I59220128I57994420
1873I56461725I54596791I52561496I50610926I49012723I47884645I47025822I46057164
1865I44857338I43707237I42861458I42179100I41391886I40542672I39882265I39450083
1857I39043291I38598414I38364088I38543638I38884361I38895583I38486546I38070846
1849I37968025I38065867I38139230I38113770I37944600I37554921I36955043I36234178
1841I35410985I34356691I32849875I30767448I28260835I25584421I22653692I18931400
1833I13897062I07536231I00267831H92487714H84380831H76190343H68490815H62059005
1825H57503700H55112462H55013359H57245317H61473783H66837273H72431862H77928050
1817H83466459H89034817H94246811H98682322I02204023I04948048I07164997I09071171
1809I10664324I11637330I11702768I11114953I10554140I10349411I10177226I09691950
1801I09043397I08531259I08103426I07496744I06745721I06296846I06570940I07581609
1793I09100839I10969419I12957723I14566096I15432564I15896798I16730723I18233260
1785I19895639I21079264I21781122I22511384I23588683I24821475I25834599I26469826
1777I26818335I27005249I27078542I27079313I27084293I27111576I27081137I26922979
1769I26620480I26132820I25423878I24589323I23796498I23031588I22017342I20480789
1761I18402921I15851700I12644352I08428439I03104647H96969165H90500112H84261528
1753H78963477H75295962H73617873H73915182H75990245H79529339H84064444H89058103
1745H94041591H98657985I02722051I06350992I09869115I13429812I16842941I19836443
1737I22343688I24473317I26353680I28041448I29471743I30516079I31169751I31638335
1729I32165833I32824626I33500463I34042268I34389234I34575096I34657717I34700781
1721I34810966I35106522I35579523I36038497I36267423I36212717I35933082I35479368
1713I34979153I34718385I34886854I35288105I35530427I35494026I35421996I35551328
1705I35819881I35996415I35968922I35805714I35607578I35409442I35192649I34919607
1697I34581058I34208632I33814535I33406620I33094652I33036509I33222722I33472198
1689I33676927I33884391I34095432I34142914I33885373I33435867I33049414I32800990
1681I32542396I32190451I31854216I31633916I31486139I31332118I31141838I30918873
1673I30714776I30635030I30724665I30870549I30915928I30845440I30748652I30651302
1665I30537821I30465440I30464248I30429600I30292343I30129275I29967540I29723744
1657I29408972I29119237I28854472I28607941I28488148I28499370I28432810I28202762
1649I28033943I28111935I28270514I28200167I27831739I27387634I27131144I27143418
1641I27289934I27337206I27151063I26816091I26530564I26405791I26424518I26524112
1633I26620760I26623215I26489324I26245458I25959372I25718172I25581405I25542129
1625I25562819I25569342I25410693I25015543I24592970I24431936I24500389I24501231
1617I24296362I24014763I23779315I23566871I23336682I23130060I23031237I23079561
1609I23184345I23159096I22949388I22755811I22780218I22960189I23117365I23211348
1601I23262618I23222850I23087487I22953105I22860454I22797051I22855124I23116243
1593I23413762I23488668I23330300I23120451I22952333I22827771I22786881I22846567
1585I22953105I23125711I23476885I24019533I24591567I24977177I25014280I24694457
1577I24250773I24017008I24110219I24356820I24569193I24756458I24957820I25005303
1569I24722161I24324557I24259891I24579924I24868325I24872885I24820142I25006425
1561I25417636I25847434I26162768I26327449I26294625I26064226I25815662I25750575
1553I25818606I25855850I25913853I26176725I26695035I27416741I28248631
1546I28963885I29322002I29328314I29216868I29263859I29609843I30061171
1539I30204532I29940607I29621346I29511231I29548053I29689308I29950918
1532I30096101I29845292I29374604I29155077I29406447I30046233I30913964
1525I31737929I32223836I32408155I32595840I32884242I33148517I33403955
1518I33717325I33920581I33827861I33546262I33305483I33250496I33530832
1511I34259832I35282144I36230952I36891218I37374319I37903360I38487037
1504I38867949I38785118I38275645I37734962I37657460I38180540I38900142
1497I39314790I39394395I39498969I39837729I40239331I40410535I40282184
1490I40054170I39911793I39877847I40034462I40545828I41227626I41561547
1483I41397287I41127962I40996105I40832757I40606496I40591908I40883606
1476I41269919I41646763I42113943I42636531I42972626I43008605I42885797
1469I42714453I42424298I42028236I41760805I41773149I41936638I42068144
1462I42047172I41693614I41003049I40506762I40848468I41925135I42905926
1455I43156032I42802334I42363068I42090097I41808428I41302252I40641144
1448I40055994I39756230I39934096I40594573I41285419I41385784I40713595
1441I39607470I38580038I38069584I38168547I38447620I38417602I38127727
1434I37932958I37900344I37846690I37691407I37412404I36896058I36124204
1427I35376197I35008260I35049500I35151690I34984975I34571730I34162763
1420I33894771I33666546I33290404I32665696I31824197I30901269I30125418
1413I29766037I29949725I30485429I30978279I31179010I31220251I31405552
1406I31667652I31553749I31009280I30541748I30173952I29233560I27702407
1399I26515345I26038205I25501520I24253649I22520713I20976935I20147219
1392I19938282I19673586I18906922I17824013I16796511I16044997I15690034
1385I15852542I16543248I17369808I17551742I16568707I14668846I12534027
1378I10771213I09755003I09504405I09599089I09512401I09045501I08393230
1371I07920369I07873588I08190395I08548443I08576918I08073688I07202450
1364I06444484I06146684I06178315I06196900I06106145I06022330I05924280
1357I05632582I05179499I04912630I05025550I05190441I04968669I04454427
1350I04132009I04217014I04568189I05154811I06078160I07102295I07710310
1343I07692916I07208412I06342435I05204608I04283364I04094416I04636993
1336I05560271I06499681I07078309I07092546I06763044I06426529I06200829
1329I06207632I06675163I07507054I08195445I08448708I08581056I08992337
1322I09488975I09521238I08999141I08416025I08249310I08659679I09491430
1315I10101408I09692792I08401156I07512174I08083998I09813637I11566422
1308I12575338I12839262I12723465I12627449I12933385I13815634I15005151
1301I16007753I16568006I16745592I16687799I16509091I16184639I15460759
1294I14180976I12890111I12712735I13992939I15353099I15161977I13887313
1287I13540698I14714014I15864676I15710585I14646472I13619041I13172901
1280I13761138I15657632I18346461I20649678I21430719I20190353I17599155
1273I15418747I15062313I16213395I17497176I18188373I18469550I18303958
1266I17105112I14862353I12947483I13292064I16787534I22262680I26854876
1259I27995929I25379833I21256850I18607509I18347232I18926140I19035343
1252I19242947I20199050I21041110I20763439I19890238I19747861I20833576
1245I22392152I23198653I22675153I21449656I20730614I21082140I21903510
1238I22073521I21072251I19482322I18311252I17905582I17808162I17602662
1231I17414134I17506995I17851436I18198892I18307956I18114729I17842389
1224I17768184I17939598I18432729I19554985I21156204I22176272I21773407
1217I20552468I19784191I19811966I20059969I20103734I19987868I19879297
1210I19890519I20014029I20131228I20325015I21015651I22466988I24384453
1203I26199800I27433854I27726394I27107508I26325485I26222945I26666980
1196I26752056I26181635I25794410I26433074I27825848I28917875I28987240
1189I28237269I27466959I27350181I28067118I29421947I30970073I32122488
1182I32689192I33186461I33939167I34273509I33533707I32626981I33552995
1175I37193086I41901850I44538987I43372826I39894609I37177306I36994740
1168I39220737I42815660I46148483I47526738I46896280I46099456I46415563
1161I46981987I46729775I46445582I47196955I48110625I47654315I46209011
1154I45491653I45937161I46469007I46355175I45739516I44857688I43760401
1147I42556856I41535526I41055160I41173270I41467283I41658756I42090517
1140I43013866I44008263I44528958I44352213I43415188I42144172I41820071
1133I43276388I45334687I46262385I46258106I46504567I46843537I46319827
1126I45230535I44809364I45018091I44343797I42028517I39343686I38121415
1119I38494472I39006680I38667429I37772415I36840510I35917792I35004052
1112I34283889I33925841I34036026I34511412I34864059I34756259I34474661
1105I34309489I34108758I33783674I33506354I33120602I32141776I30632926
1098I29411076I29152482I29773682I30701380I31351476I31429959I31000863
1091I30254539I29305661I28335250I27708649I27667900I27974326I27983655
1084I27137175I25494225I23816066I22928417I22944478I23327635I23552423
1077I23345449I22628092I21676127I21005691I20821442I20946426I21194779
1070I21445799I21543569I21391372I21025469I20577226I20203118I19966477
1063I19803409I19631434I19388060I19027137I18685010I18753884I19473767
1056I20304535I20237344I19092364I17621458I16509863I15892730I15589319
1049I15455078I15416362I15403177I15375403I15299445I15080268I14578300
1042I13746899I12813101I12224865I12176471I12202421I11723598I10708651
1035I09465339I08333404I07448981I06654753I05862911I05295716I05068754
1028I04835690I04326007I03696530I03060461I02366670I01728146I01291615
1021I00886857I00168377H99019609H97606356H96167082H94924191H93993898
1014H93219309H92309777H91225044H90232330H89588686H89277630H89057051
1007H88690236H88086289H87304687H86577580H86259370H86429732H86550157
1000H86133545H85320100H84452651H83653233H82855709H82050120H81304638
993H80564065H79615046H78349641H76994391H75977198H75392961H74747143
986H73681697H72280578H70637066H68842690H67135284H65655050H64166891
979H62388787H60424260H58512195H56658904H54762410H52926092H51376072
972H50013949H48382711H46294533H44006045H41883009H40123140H38649359
965H37203001H35663362H34286369H33536328H33455811H33136690H32049642
958H30704491H29533701H28495678H27428058H26295562H25128980H24048034
951H23404600H23696509H24901246H26062428H26545669H26582141H26517755
944H26480793H26541882H26851044H27339686H27591898H27579203H27972319
937H29102430H30078031H30457330H30812502H31155049H31043322H30554680
930H30009928H29512870H29168710H29432072H30553698H31514640H31441768
923H30814816H30288160H30300154H30982162H31793854H32078117H32119428
916H32683326H33636063H33941437H33432386H32910569H33021806H33553091
909H33847875H33712862H33314977H33002378H33661382H35931775H37603832
902H37189185H36144569H35916836H36681465H37267948H37130340H36613012
895H35914030H35066358H34348020H34217776H34550643H34716588H34765333
888H35214698H36351823H37887325H39315517H40645448H42099310H43284058
881H43719326H43783431H44292623H45360874H45966223H45486910H44221434
874H42516272H40436090H37837738H34479526H29996182H23792175H15005878
867H02631391G85917831G65105906G42355194G22249264G10399400G10133161
860G20472704G37154212G55087238G70427523G81151836G86272161G85258967
853G78813831G69627825G62077196G61606018G70016172G81587104G91993627
846H01899234H11902683H20175019H25720231H29668643H32746169H34825089
839H36355821H39049629H43526170H46958306H48682335H49920667H51117830
832H52301035H53505140H54575636H55308143H55738501H55952347H56084205
825H56895756H59045864H61050720H61666309H61622123H61987886H63014546
818H63917555H64233310H64352473H64682746H65124957H65504116H66127911
811H67260337H68395920H69058220H69457087H69739036H69687346H69229424
804H68553727H67862741H67547898H68392904H70031366H70710569H70327342
797H69665182H69136843H68775920H68361483H67448724H65608479H62363117
790H56377095H44638186H23365815G91718271G53566466G15805742F86901873
783F74380029F79761122F96627861G16023937G31715607G40671284G41832606
776G36162340G26832063G16480948G05902309F95684172F87564665F83299796
769F82579493F84173418F87919907F94337689G01527256G06285606G09041484
762G11696858G15506469G21308312G29386089G38772475G47818908G55178696
755G59418316G58864517G51819783G36701971G16176694G00412434F96737064
748G04804530G22088792G44091357G64761114G81263774G94351621H04825265
741H12713883H18809528H24532958H29983347H34035000H36623392H38556709
734H40387906H42287837H44212176H46062591H47883128H49744344H51444947
727H52728377H53677957H54596537H55724264H57170691H58925300H60747099
720H62240939H63262479H64064842H65059730H66412315H67837702H69017541
713H69950779H70777409H71554804H72256731H72910615H73631760H74462669
706H75292455H76080440H76937720H77853705H78620158H79190860H79898258
699H81091703H82596695H83907689H84876345H85728997H86622538H87487603
692H88225230H88860107H89472119H90090724H90667528H91127204H91481674
685H91905720H92656533H93840790H95219466H96404144H97284569H98025212
678H98748391H99429838H99990440I00361323I00512046I00483080I00337336
671I00071378H99639336H99039317H98343702H97654119H97001568H96283439
664H95361142H94252422H93123012H91990024H90503477H88156917H84728778
657H80396088H75454821H70132643H64669489H59302915H53944757H47895752
650H39985182H28987827H13913079G94208051G70203507G43567015G17122067
643F94082462F77251984F68324712F67372678F72869075F82295299F92984263
636G02795186G10381375G15132921G16937958G15842213G11841058G04936527
629F95157166F82418389F66661352F48354147F28738332F09608705E92964440
622E80560425E73337649E71136831E72899330E77085295E82107744E86734237
615E90319868E92739441E94119380E94612861E94314149E93265887E91543261
608E89356260E86989570E84599173E82158488E79622207E77052085E74568512
601E72255476E70135105E68217078E66544740E65158560E64042896E63176534
594E62589806E62280538E62125185E61971832E61765279E61501566E61148182
587E60687735E60125870E59349703E58070166E55992087E52958608E48916283
580E43880893E37982121E31433218E24437790E17231425E10259564E04234897
573D99889827D97632304D97521313D99558116E03766349E09889979E17227498
566E24886875E32064131E38063199E42347145E44865401E46333746E47985850
559E50856683E55215534E60580040E66133424E71169690E75369963E78784215
552E81532238E83512301E84335284E83461732E80520833E75746281E70210291
545E65598913E63622918E65317454E70565323E78209936E86734343E94953304
538F02292823F08698893F14363268F19422013F23802607F27307896F29824118
531F31488881F32709890F34003630F35739582F38004645F40692140F43705420
524F47039014F50682332F54535007F58429345F62095106F65035725F66595494
517F66241233F63696115F58861527F51894223F43472917F34814129F27293026
510F22028851F19719112F20615528F24422264F30169611F36348508F41397364
503F44194203F44216857F41461960F36334972F29452323F21313878F12097854
496F01784192E90455793E78456186E66224041E53958966E41529527E28782123
489E15822661E02870142D89969912D77032964D64079989D51279036D38736607
482D26350757D13932856D01397474C88697659C75676266C62265685C48825542
475C35997481C24220523C13617161C04256445B96225659B89466172B83811826
468B79255820B76014771B74240893B73728247B73957804B74428596B74939857
461B75555464B76328037B77172149B78082452B79332094B81277684B84039753
454B87507992B91544285B96024894C00761396C05495830C09960447C13982608
447C17630870C21183431C24816369C28392881C31683692C34726220C37847616
440C41358410C45283781C49389581C53438429C57396730C61399428C65577117
433C69960691C74530584C79305206C84328707C89565950C94889637D00215146
426D05564047D10958922D16359653D21742851D27135166D32512296D37756482
419D42784087D47664475D52530239D57404454D62194436D66811391D71204258
412D75329590D79185457D82831650D86345706D89819539D93355127D96947876
405E00431457E03656164E06653383E09541400E12382600E15209983E18055847
398E20865380E23503675E25930192E28261534E30611287E32960724E35212110
391E37300148E39242968E41091349E42789672E44136506E44972710E45366983
384E45567048E45860009E46488082E47555176E48990487E50695509E52694438
377E55036405E57614383E60198216E62619999E64839052E66854288E68653433
370E70253040E71695259E72955685E73896568E74331099E74154074E73479079
363E72689657E72287984E72573335E73386219E74203451E74601441E74659023
356E74834926E75454899E76382210E77147611E77293180E76551801E74787864
349E71991692E68416266E64429735E60007340E54622599E47820748E39581587
342E29985388E18948616E06525244D93173262D79548660D66207865D53540347
335D41810345D31220835D22014490D14486339D08888348D05388284D04090020
328D05020558D08151072D13447685D20808666D29946838D40393936D51576030
321D62832574D73422505D82585646D89666255D94239129D96107008D95214449
314D91701234D85981907D78575899D70117912D62123703D57689244D60550012
307D72658086D92522920E16000563E38693237E57887565E72891089E84111899
300E92082751E97178038E99784596F00490381F00093057E99273020E98139682
293E96248588E93126596E88634414E82844740E75795342E67417871E57649276
286E46624954E34727781E22412770E10105719D98277035D87348835D77439616
279D68416502D60276094D53445732D48748226D46984570D48448111D52942923
272D60183021D69818814D81089947D92869571E04252291E14943534E24983032
265E34312888E42779678E50304427E56791820E62091204E66271909E69701871
258E72680784E75246207E77471818E79738704E82635277E86674656E91999360
251E98214237F04584117F10489691F15689061F20214066F24214099F27933094
244F31614916F35299474F38786808F41831510F44338895F46413957F48289832
237F50207788F52253533F54189445F55473014F55650391F54807559F53442630
230F51857332F49932923F47595970F45264207F43698687F43507144F44772970
223F47118129F50192077F54006318F58645225F63762675F68643483F72840810
216F76488406F79831048F82753081F85032241F86843660F88694005F90916635
209F93215152F94821561F95903559F97328105F99351828G01547525G03293787
202G04455250G05466410G06677529G07867608G08590927G08929897G09534194
195G10823446G12536674G14209783G15704325G17121225G18539247G19929706
188G21065920G21564802G21375082G21172247G21778438G23111385G24213933
181G24439632G24107746G23857709G23890252G24125140G24634823G25502343
174G26515887G27308712G27674895G27609948G27217183G26742499G26568840
167G26919243G27478863G27528380G26721247G25543302G24601297G23702917
160G22180952G19774143G16469936G11791261G04887362F95119502F82356318
153F67342098F52293792F40752247F35928740F38662947F47152426F58381512
146F69589556F79080236F86126723F90392644F91842579F90966711F88496921
139F84773367F79492569F72124224F62589990F51495988F39691290F27752071
132F16136532F05767462E98017504E93788545E92615019E92937016E93489062
125E94148907E95039502E95418731E94407852E92353830E90451093E89385507
118E88968896E88507046E87086288E84130099E79996526E75558315E71204583
111E66704617E61921474E57231261E53220007E50181197E47949379E46046011
104E43899900E41358148E39054686E37647675E36940312E36375431E35875322
97E35871745E37007994E39713549E43415116E46551240E48047886E48465094
90E49177507E50749304E52739676E54603698E56259133E57831561E59116254
83E59884986E60733359E62652508E65569350E68252252E69976351E71265848
76E72715712E74220564E75540150E76781217E77996089E78714499E78458851
69E77642636E76993802E76348965E75041128E73150209E71586092E71240388
62E72525712E75311680E79007530E83159198E87685185E92040810E95342422
55E97697890E99997671F02381125F04828683F08867080F16120962F25018355
48F31945751F36098120F39883184F44719386F48922043F50482092F50227637
41F50931949F54159496F58296646F59918205F57680426F54331401F53384697
34F54798862F54987950F51653024F48035095F47643172F50177699F53468159
27F56390894F59444292F62067402F62153530F59575518F57349661F58031670
20F61024891F63726274F64139238F62451050F59494580F55248648F50130988
13F45842063F44592157F47297959F52058133F55119036F54622258F51901097
6F48405206F45008208F42885944F42525722F43628270F46782806
$$ === CHEMSPECTRA INTEGRALS AND MULTIPLETS ===
##$OBSERVEDINTEGRALS= (X Y Z)
##$OBSERVEDMULTIPLETS=
##$OBSERVEDMULTIPLETSPEAKS=
$$ === CHEMSPECTRA SIMULATION ===
##$CSSIMULATIONPEAKS=
##END=


$$ === CHEMSPECTRA PEAK TABLE EDIT ===
##TITLE=CZ-PHOS16
##JCAMP-DX=5.00
##DATA TYPE=INFRAREDPEAKTABLE
##DATA CLASS=PEAKTABLE
##$CSCATEGORY=EDIT_PEAK
##$CSTHRESHOLD=0.93
##MAXX=3997.453
##MAXY=0.9125045525277921
##MINX=373.96442
##MINY=0.23262414315303423
##$CSSOLVENTNAME=
##$CSSOLVENTVALUE=0
##$CSSOLVENTX=0
##NPOINTS=0
##PEAKTABLE= (XY..XY)
##END=


$$ === CHEMSPECTRA PEAK TABLE AUTO ===
##TITLE=CZ-PHOS16
##JCAMP-DX=5.00
##DATA TYPE=INFRAREDPEAKTABLE
##DATA CLASS=PEAKTABLE
##$CSCATEGORY=AUTO_PEAK
##$CSTHRESHOLD=0.93
##MAXX=3997.453
##MAXY=0.9125045525277921
##MINX=373.96442
##MINY=0.23262414315303423
##NPOINTS=100
##PEAKTABLE= (XY..XY)
2797.6504873885847, 0.7943574175595146
1946.3148202345583, 0.7936838850654017
2515.760640860047, 0.7931099525112006
2769.3198495465203, 0.7929280986358098
2039.8059251133695, 0.7925800669615443
2740.9892117044565, 0.7908872351122327
2374.1074516497265, 0.7901487343487114
2548.3408743784203, 0.7899321901641267
2558.2565976231426, 0.7896820298631662
2538.425151133698, 0.7896295176413289
1926.483373745113, 0.7896273123166754
2714.075105754496, 0.7890627373076613
2708.408978186083, 0.7886767375064029
1912.3180548240812, 0.788365660954511
2053.971244034402, 0.7880956518818323
2699.909786833464, 0.787909506334187
2689.994063588741, 0.7872930751767971
2069.553094847537, 0.787137686047085
2063.8869672791243, 0.7867735015382569
2573.838448436278, 0.7867362489732518
2675.828744667709, 0.7865591040396356
2586.587235465207, 0.7859455334305248
2667.3295533150895, 0.7856156219613702
2592.25336303362, 0.7854694119112662
2605.002150062549, 0.7852630011722187
2654.5807662861607, 0.7844252573999433
1903.818863471462, 0.7843378772531695
2633.332787904613, 0.7842262376853706
2620.584000875684, 0.7842175948523353
2647.4981068256448, 0.784191190445019
1892.4866083346365, 0.7825472938574418
2130.463966207975, 0.7824701057948953
2087.9680094448786, 0.7817466250344287
2095.0506689053946, 0.7816658005232532
2138.963157560594, 0.7816349259781035
1872.6551618451913, 0.7807316768400109
2150.29541269742, 0.7804446209052028
2106.38292404222, 0.7799525250169606
2116.2986472869425, 0.779651640549296
2335.8610905629394, 0.7781864389963631
2174.3764548631743, 0.7776529781862762
2195.6244332447222, 0.7763598548441908
2187.125241892103, 0.7760472885296331
2163.044199726349, 0.7758557193280614
2202.707092705238, 0.7756562220056061
2221.1220073025797, 0.7755837428848344
1844.3245240031274, 0.7752004855046384
2321.6957716419074, 0.7729296673829764
2239.5369218999217, 0.7718630423555979
2313.1965802892882, 0.7715437402401909
2231.037730547302, 0.7712365975795596
2916.6391663252543, 0.7702037679839722
2256.53530460516, 0.7701221692721186
2303.280857044566, 0.7700761548970255
2291.9486019077403, 0.7690274112708166
2284.8659424472244, 0.7683640113724048
2267.867559741986, 0.7683320634842734
1793.329375887412, 0.7531751977266633
2852.8952311806097, 0.7424319973444365
1508.6064655746677, 0.7372735135240388
1535.5205715246284, 0.732237576067819
2954.8855274120406, 0.7266212099103263
1647.4265910007816, 0.7103922954714113
1636.094335863956, 0.7089483729643359
1655.9257823534008, 0.707915483880222
1664.42497370602, 0.7078374612786352
1678.5902926270523, 0.7056088434676944
1687.0894839796715, 0.7046574944567439
1702.6713347928066, 0.7033066740428363
1709.7539942533226, 0.7023732055832194
1719.669717498045, 0.699758945752014
1576.5999963956215, 0.6472402804575896
610.525245981235, 0.6174644221014356
626.1070967943701, 0.6151604051329178
634.6062881469898, 0.6128782026069942
1592.1818472087566, 0.6034967889235805
1433.5302752931975, 0.5921123022278397
1461.8609131352619, 0.5800806874453024
1481.6923596247066, 0.5731124870194466
1279.128299053948, 0.567157387244349
403.71158973416686, 0.5586394656670655
422.12650433150884, 0.5552698961643148
432.0422275762312, 0.5525869126380193
415.04384487099287, 0.5503905410076775
389.5462708131349, 0.5477976791993822
691.267563831118, 0.546875595144027
376.7974837842062, 0.546041547308907
585.0276719233775, 0.5404351939202265
1093.5626211884282, 0.526659667040352
553.8639702971068, 0.5036256306222358
885.3324330492569, 0.48635098267654253
461.7893973103983, 0.48546069778800294
1250.7976612118841, 0.48537269131203076
1143.1412374120405, 0.4789870968675106
509.9514816419073, 0.45540314851227703
1181.3875984988272, 0.42281156733158615
810.2562427677872, 0.38896083755601596
762.0941584362781, 0.3798636192591313
838.586880609851, 0.3434102826048218
1031.2352179358872, 0.23262414315303423
##END=

##END=

