##TITLE=X7597
##JCAMP-DX=4.24
##DATA TYPE=INFRARED SPECTRUM
##DATE=29/10/2018
##SAMPLING PROCEDURE=Diamant-ATR
##ORIGIN=ComPlat
##XUNITS=1/CM
##YUNITS=TRANSMITTANCE
##RESOLUTION=4
##FIRSTX=3997.453
##LASTX=373.96442
##DELTAX=-1.4165319
##MAXY=0.87589067
##MINY=0.27263612
##XFACTOR=1
##YFACTOR=8.1573676e-010
##NPOINTS=2559
##FIRSTY=0.78754073
##XYDATA=(X++(Y..Y))
3997+965434900+966114363+966866384+967166257+967030058+966598661+965944406
3988+965320694+965161697+965642414+966454936+967115255+967289597+966859589
3978+966048748+965454263+965507164+965950105+966212860+966138403+966005491
3968+966069792+966334007+966652367+966934630+967227708+967595827+967993758
3958+968209237+967828112+966546637+964797816+963666204+963871380+965040257
3948+966012579+965902319+965007741+964578610+965337499+966349717+966371930
3938+965526528+964499842+963407834+962460647+962624321+964222036+965810033
3928+966035669+965262750+964634288+964577953+964648829+964526439+964433204
3918+964666877+965199546+965760931+966208037+966694746+967353020+967774187
3908+967163115+965297312+963116144+962071558+962613579+963971046+965513887
3898+966844391+967268626+966440541+964986917+964215241+964779256+965463908
3888+965027762+964003561+963267762+962232381+960236662+958743507+959538931
3878+961623282+962900154+963170581+962955613+962238008+961606404+962531670
3869+964854955+966634173+967212144+967232019+966910152+966051817+964876364
3859+963681914+962551179+961990013+963505892+967811160+971715355+972912216
3849+972455465+971409490+970170176+968825496+967186205+965210579+963830389
3839+964579122+967507999+970486343+971977890+972152670+971464291+970198453
3829+968993554+968615790+968894619+968723858+967902422+967855878+969179586
3819+969974425+969746963+970397126+972342428+973487850+972635433+970442429
3809+968320885+967884082+969275306+970264580+969680836+969143710+970255593
3799+972196657+974085769+976095883+977672409+977960445+977344550+976768113
3789+976557822+976538167+976530568+976269421+975385000+973940071+972655600
3779+972348931+972940932+973391473+972976517+971963934+971360826+972125634
3769+973915520+975236013+975641909+975907659+976109255+975555761+974256384
3759+973065806+972449620+971867995+970664338+968751770+966851917+966473860
3750+967756797+968509110+968094592+968287274+970311928+972154862+971696941
3740+969308552+966355270+964502984+964948775+966970288+968952782+970428253
3730+971485847+972196438+972846674+973591315+974051573+974059684+974119965
3720+974488815+974739732+974393022+973336671+971968610+971419208+972861945
3710+975543266+977422441+977728160+976783677+975406847+974848823+975749685
3700+977032475+977461971+977248319+977128414+977359602+978016196+979554653
3690+982198197+984387767+984041130+981725517+979275020+977579027+976470651
3680+975303309+973759226+972721508+973990926+977003613+978433855+977894245
3670+977811823+979571897+981675465+982549218+982198928+981164790+979868482
3660+978401048+976919000+976330214+977362160+978587080+977937501+975504540
3650+973267548+973204344+974814993+976449900+977851646+979062463+979812950
3640+980046915+980112092+980161779+979869797+978921880+977286388+975125168
3631+973256077+973589707+976609116+979343704+980150965+979803524+979238778
3621+979103382+979787376+980674062+980588133+979633494+979032286+979465217
3611+980422852+981490821+983015760+984847441+985951725+985849502+985016960
3601+983978949+982772735+981408035+980291987+979860152+979975527+979818576
3591+978677466+976941724+976342562+978263167+981296021+983122367+983223859
3581+982448530+981929378+982167874+982708069+982995228+983132670+983231020
3571+982782014+981507919+980374554+980792944+982296840+983171177+983204716
3561+983284799+983845818+984482976+984578330+983957102+983034904+982489302
3551+982613884+983110603+983674107+984198958+984404865+984158625+984123259
3541+984996501+986370992+987142960+986877137+986210168+985835619+985717687
3531+985505715+985128097+984778757+984604342+984680041+985228712+986449321
3521+987909449+988582775+987913248+986578799+985771611+985796235+985944199
3512+985770661+985749545+986328466+987019402+987099119+986681606+986500104
3502+986833296+987174818+987073472+986699654+986503977+986717848+987254901
3492+987847925+988230658+988361085+988420563+988501742+988516283+988456513
3482+988418005+988343768+988084448+987748771+987738176+988341503+989345244
3472+990204164+990574914+990379748+989533030+988189813+987072011+986828839
3462+987271123+987857862+988524320+989401361+990232880+990667638+990750790
3452+990781552+990968022+991354335+991815178+992068653+991901253+991440264
3442+991104076+991248240+991819562+992434141+992797876+992904775+992874744
3432+992838502+992917928+993114555+993334491+993588989+993892661+993999634
3422+993706921+993351955+993498165+994246824+995308144+996427261+997339667
3412+997690615+997369406+996764106+996517646+996993541+997925165+998681643
3403+998941620+998897998+998773490+998485892+997915081+997239855+996820881
3393+996811674+997064783+997482370+998198660+999189176+999994975+1000208335
3383+1000119192+1000505505+1001718588+1003225625+1004225860+1004555545
3374+1004692840+1005069143+1005682772+1006249710+1006543153+1006662913
3366+1006868381+1007168254+1007541488+1008442642+1010245460+1012283194
3357+1013369649+1013237687+1012694423+1012453517+1012529069+1012711741
3349+1012982094+1013300672+1013405745+1013093450+1012515479+1012029573
3340+1011838353+1011777049+1011364065+1010240565+1008707807+1007591394
3332+1007459724+1008166297+1009157470+1010057163+1010924047+1012011160
3323+1013379586+1014843513+1016166345+1017210128+1018026742+1018757865
3315+1019119042+1017888569+1012988597+1001875831+981636520+949027811+901634060
3305+840869509+774987533+717685989+680886657+667785844+672902610+687687432
3295+705685222+723922968+741279801+756584725+768423645+776222829+780922520
3285+784556508+789261168+796375189+806047190+817422710+829131350+839920349
3275+849297958+857602556+865287387+872346460+878610182+884231194+889531363
3265+894638996+899621828+904647478+909602909+913942665+917363439+920239341
3255+923010244+925582182+927702410+929559518+931694433+934436474+937510903
3245+940226128+942212860+943908487+945949363+948193880+949875040+950717373
3235+951328883+952301863+953503182+954504220+955223214+955895225+956775700
3225+958007196+959486322+960846126+961846872+962692347+963685275+964675499
3216+965191509+965146425+965103315+965668353+966835842+968153705+969329011
3206+970337210+971027123+971080609+970581332+970301187+971044075+972773386
3196+974642405+975804413+975986427+975472390+974757561+974107836+973464541
3186+972935818+973035264+974054934+975553057+976822111+977536501+977706970
3176+977399352+976833217+976477812+976712216+977467378+978371966+979113465
3166+979569632+979856279+980316538+981107212+981852072+982087645+981846884
3156+981463786+981208265+981339277+981970662+982779822+983318922+983451614
3146+983198797+982649980+982168897+982086695+982310065+982747380+983623398
3136+984834289+985659816+985637969+985175080+984957190+985218264+985783668
3126+986424770+987004203+987463658+987851725+988309206+988847867+989202761
3116+989175141+989006937+989031123+989075695+988646710+987663208+986666335
3106+986180941+986000827+985350883+983906831+982378019+981721937+982106058
3097+983078088+984325001+985696935+986854413+987532708+988025482+988951917
3087+990522743+992247524+993404637+993708821+993508102+993370002+993482163
3077+993496995+993011967+991996096+990470353+988073195+984601054+980875292
3067+978371455+978009985+979681061+982591744+985645276+987940722+989280506
3057+989855920+989540922+988114260+985888375+983409600+980814646+977984923
3047+974935848+971632422+967802830+963400162+959091021+955848827+953906666
3037+952459910+950780358+949390888+949593288+951893045+955332305+958361944
3027+959974931+960020087+958921795+957315603+955665352+953683150+949824038
3017+941902392+929180147+914048468+901122581+894439153+895379399+902652854
3007+913654483+925890677+937687729+948093265+956522226+962717629+966891958
2997+969663226+971746774+973510355+974753250+975177997+975074824+975193999
2987+976036332+977600071+979641604+981877134+984051360+985973426+987553021
2978+988970038+990656458+992687762+994359496+994848397+994120854+992747970
2968+990973868+988242787+983440727+975176974+961728866+941389086+913974815
2958+882403679+852514944+831148113+823629732+831406995+851041518+876006022
2948+900282732+920513494+935354799+944040741+945921962+940404927+926569337
2938+903213289+870074103+829424135+786539514+748383300+720983277+706987668
2928+705074516+711430597+721888377+733304596+743677470+751449034+755150975
2918+754313318+750836793+748766617+751956787+761681544+776265062+792664187
2908+808439964+822630739+835210282+846161128+855234626+862190307+866783611
2898+868595197+867162471+862351642+854747478+845977872+838474689+834279097
2888+833768568+835688223+838497194+841720830+846188821+853049951+862456568
2878+873210568+883689684+892919475+900755558+907436721+913193056+918076880
2868+921997953+924872541+926609963+926901214+925133030+920435238+911609881
2859+897279471+876940860+852545194+828807656+810958269+801438031+798804204
2849+799981630+803222582+808699065+816880908+827141987+838006174+848325636
2839+857916897+867123890+876090124+884629125+892538788+899705710+905979954
2829+911251407+915661016+919523709+923001768+926038713+928620880+930843331
2819+932675377+934015526+935107316+936519802+938541461+940890393+943125778
2809+945065088+946720966+948091292+949151954+949922827+950423419+950650881
2799+950725630+950957257+951582212+952523407+953543005+954468490+955201586
2789+955780727+956453541+957382388+958313134+958818695+958783914+958431505
2779+958025829+957761467+957779223+958042488+958266516+958223844+958098532
2769+958248395+958682130+959176877+959819149+960891867+962260440+963397458
2759+964040680+964446064+964987794+965732508+966434257+966876322+967130381
2749+967379836+967611975+967731004+967884301+968344925+969060850+969620335
2740+969771587+969763842+970036314+970691373+971395022+971745240+971651127
2730+971341463+971090400+971031434+971192988+971533560+971909790+972174663
2720+972353462+972605840+973027811+973557703+974052888+974423565+974707436
2710+975012789+975408163+975882377+976311874+976462541+976180862+975574247
2700+974877320+974264787+973934152+974103013+974684858+975218258+975386534
2690+975388069+975539321+975744278+975690938+975457265+975546847+976224557
2680+977093999+977524372+977341628+976897152+976582300+976529471+976719596
2670+977118550+977675843+978296048+978834051+979164832+979319226+979456449
2660+979654172+979854891+980020391+980211246+980574543+981292513+982314376
2650+983167743+983382930+983084883+982827025+982925448+983227659+983389433
2640+983127774+982309042+981004112+979469455+978056310+977153988+977121034
2630+978067417+979658994+981313776+982654071+983600893+984093959+984086287
2621+983835004+983787583+984078761+984475376+984830928+985198827+985507834
2611+985644034+985902185+986764173+988117621+989275391+989806087+989782121
2601+989335453+988606741+987998812+987915221+988285678+988655478+988689089
2591+988444895+988193247+988057486+987964689+987952632+988284582+989109233
2581+990133361+990835184+991057970+991176267+991482351+991787485+991999895
2571+992506406+993402518+994074675+994247628+994648043+995880270+997349312
2561+997981354+997509843+996473513+995365137+994358400+993601630+993248782
2551+993302560+993673383+994177336+994423431+994183401+993891711+994191073
2541+995031214+995750574+995876471+995453039+994881059+994693784+995187435
2531+996169110+997188342+997859257+997952127+997540605+997024961+996650558
2521+996223034+995649666+995390492+995931856+997098175+998219484+998747112
2512+998575328+998121280+998127126+998918896+999872440+1000078347+999394060
2502+998357145+997391545+996651873+996297856+996413378+996885985+997544843
2492+998152846+998372198+998177397+998117919+998754784+1000012366+1001320511
2482+1002094379+1002012323+1001302901+1000813708+1001219165+1002105339
2473+1002419826+1001843462+1001106858+1000934271+1001271263+1001631125
2465+1001741750+1001720195+1001776750+1001838347+1001603432+1001091441
2456+1000834532+1001212004+1001939035+1002558802+1003040981+1003485457
2448+1003667397+1003376146+1002858675+1002480546+1002240954+1001957960
2439+1001634997+1001363621+1001164290+1001171816+1001624549+1002453511
2431+1003224310+1003635685+1003709485+1003496563+1003059614+1002679804
2422+1002586422+1002655180+1002755941+1002995532+1003281596+1003212546
2414+1002732048+1002366340+1002605566+1003403766+1004311715+1004891879
2405+1005107650+1005258975+1005400289+1005159309+1004381642+1003495248
2397+1002965136+1002834197+1002987422+1003434163+1004147895+1004925929
2388+1005455456+1005342127+1004262832+1002387822+1000421988+998896172+997626680
2378+996150916+994421458+992724881+991206152+989782486+988274353+986497400
2368+984418310+982182999+980008700+978341278+977750884+978184692+978897986
2359+979504308+980391652+981998574+984358759+987053452+989176383+989892381
2349+989109087+987447729+985874126+985134016+985049110+984739738+983728982
2339+982456640+981874796+982617464+984368916+986140534+987288732+987931369
2329+988261200+988133623+987648302+987439399+987995085+989086363+990197881
2319+991169399+992050824+992759223+993218678+993537914+993880094+994424819
2309+995492934+997334187+999642785+1001586991+1002551276+1002743885+1002968936
2299+1003899097+1005543065+1007182722+1007814472+1007001147+1005451803
2291+1004462528+1004628832+1005421991+1006105254+1006542130+1006928590
2282+1007365977+1007943365+1008703861+1009411968+1009797258+1009866892
2274+1009622551+1008939215+1008023740+1007414568+1007383660+1007857217
2265+1008760197+1009872080+1010639665+1010641564+1009997173+1009033400
2257+1007860286+1006600877+1005773961+1005785872+1006145515+1006159325
2248+1006338342+1007749441+1009978249+1011387594+1011526643+1011573187
2240+1012212317+1012626908+1011946787+1010627901+1009865212+1010166546
2231+1010992220+1011531904+1011405788+1010891239+1010801657+1011791078
2223+1013609971+1015359742+1016265134+1015946774+1014656458+1013568980
2214+1013928769+1015564772+1016936925+1016981132+1016453212+1016871091
2206+1018230384+1018778178+1017551358+1015787412+1014917240+1014680425
2197+1014218413+1013590974+1013171560+1012566042+1011181321+1009494316
2189+1008659143+1008793589+1008919413+1008828078+1009483794+1011285955
2180+1013597915+1015952035+1018143286+1019460784+1019142278+1017482747
2172+1015849813+1015447132+1016107379+1016600153+1016337179+1016231084
2163+1017805125+1021775520+1026706181+1029162597+1027467262+1024163033
2155+1022330183+1022490714+1023720092+1025200970+1026470024+1027270927
2146+1027255072+1026041769+1024070966+1022322438+1020671602+1018166376
2138+1015410086+1014755831+1017407998+1021838286+1025669266+1027859494
2129+1028633070+1028402393+1027367305+1025780111+1024299086+1023820195
2121+1024501632+1025144269+1024485776+1023004240+1022231979+1022408147
2112+1022172209+1020516916+1017669948+1013958800+1008957336+1002121487
2104+993943371+986244510+981055406+979119165+979812804+982355002+986329051
2094+991124243+995911543+1000302009+1004273281+1007565381+1009917310+1011597665
2084+1012857220+1013345756+1013110694+1013470849+1015488343+1018172513
2075+1019711116+1019966564+1020184527+1020774774+1021039867+1020825338
2067+1020977905+1022062679+1023504393+1024197448+1023478235+1021461910
2058+1019064680+1017778455+1018474067+1019888234+1019304052+1015750220
2050+1011751182+1010832200+1013715994+1018216135+1022368617+1025973889
2041+1029139435+1030671242+1028989717+1024732821+1021152538+1020762572
2033+1022727237+1024955387+1027024394+1028957421+1029288202+1026987129
2024+1023963775+1023235794+1025108612+1027014092+1027036524+1026032417
2016+1026143481+1028399616+1031736142+1033630881+1032572849+1030296109
2007+1029739035+1030812557+1030862462+1029128255+1027780288+1028632778
1999+1030763820+1031494139+1029300916+1025676354+1023790310+1025203455
1990+1028353656+1030466504+1029809399+1026323083+1021697775+1018373598
1982+1017607183+1019226672+1023136128+1029085729+1034832638+1037435484
1973+1036593442+1034160627+1031337334+1028603404+1027350280+1028964216
1965+1032280064+1034320647+1033841537+1032588340+1032744853+1034152005
1956+1034810645+1033405976+1030728016+1028898236+1029416291+1031771507
1948+1033933092+1034415198+1033698615+1033281906+1033763793+1034617379
1939+1035590212+1036887251+1038115167+1038321585+1037167761+1035317667
1931+1033696204+1032788694+1032404134+1031961778+1031289840+1030830458
1922+1030650198+1030011361+1028676327+1027620049+1027485456+1027148392
1914+1025116211+1021370648+1017083355+1013180329+1009877633+1007522636
1905+1006719468+1007250602+1007798689+1007195947+1005456333+1003363725
1897+1001747011+1001289237+1002205955+1004011842+1006109200+1008406473
1888+1011277625+1015161069+1019915854+1024282061+1026666797+1026993925
1880+1026803728+1027313672+1028376380+1029246553+1029558263+1029574557
1871+1029822260+1030348133+1030453717+1029893647+1029619495+1030366254
1863+1031758793+1032919705+1033351540+1033218263+1033051229+1033313179
1854+1034045618+1034810133+1035065508+1034635792+1033801277+1033032450
1846+1032756105+1033205622+1034076160+1034687013+1034802899+1034728370
1837+1034748317+1034663266+1034050879+1032940019+1031912749+1031652990
1829+1032336473+1033519305+1034733777+1035665765+1035973895+1035404911
1820+1034034219+1032350794+1030953652+1029973877+1029126648+1028338020
1812+1027850360+1027793440+1028064597+1028566870+1029151564+1029502293
1803+1029427544+1029124748+1028920668+1028773800+1028282780+1027148830
1795+1025432013+1023535082+1022006855+1021085534+1020638209+1020598679
1786+1020915212+1021318623+1021606732+1021978285+1022628302+1023265752
1778+1023430083+1023024260+1022321196+1021795833+1021858014+1022376143
1769+1022899240+1023150596+1022850796+1021785531+1020101814+1018189173
1761+1016354350+1014719589+1013393396+1012376502+1011418282+1010400731
1752+1009621748+1009525955+1010286378+1011604022+1012923931+1013792350
1744+1014192985+1014563661+1015265557+1016008298+1016176940+1015812913
1735+1015795230+1016911790+1018370529+1019092665+1019443686+1019854696
1727+1020139517+1020143536+1019983443+1019565418+1018600402+1017282247
1718+1016705225+1017971064+1020125926+1021613966+1022524910+1023345323
1710+1023920007+1023965748+1023885007+1024362802+1025133017+1025457660
1701+1025450572+1025722022+1026130694+1026421579+1026970031+1027524256
1693+1027381188+1026567205+1025509173+1024324003+1022948196+1021939340
1684+1022497218+1024248523+1025296106+1025380061+1025082453+1024719157
1676+1024327583+1023658714+1022448700+1021142893+1021020065+1022658480
1667+1024431048+1024948080+1024658364+1024636297+1025209446+1025684903
1659+1025468401+1024487311+1023045816+1022330621+1024102313+1026381319
1650+1026364732+1025413600+1025980684+1028962609+1031972007+1033240841
1642+1033277741+1032814706+1032205826+1031973249+1033125905+1035539430
1633+1037280944+1037705472+1037541360+1037476110+1037637810+1037731776
1625+1037784386+1038291846+1039204910+1039691400+1039495138+1039424408
1616+1040289100+1041326161+1041390388+1040605779+1039656473+1038931999
1608+1038121012+1036444164+1033348764+1028771827+1022855911+1015775648
1599+1007956298+1000172093+993029357+986087194+977647711+966273580+953099040
1589+942298277+938479207+943222374+954365975+968177233+981481030+992339883
1579+1000339712+1006874154+1014251440+1022224307+1027675727+1030033354
1571+1031275372+1033289651+1035978498+1037842767+1038309017+1037576287
1562+1035768134+1033131604+1031099570+1031598481+1032244772+1031059236
1554+1029557898+1029474527+1031418221+1034624685+1037438991+1038735299
1545+1038711332+1038095804+1037425766+1037892746+1041205963+1045336013
1537+1047262537+1047253915+1046849115+1047195898+1047870612+1047935205
1528+1047554957+1047448861+1047669601+1047709643+1047896552+1049172547
1520+1051127786+1052589448+1053760297+1055305403+1056845541+1057532238
1511+1056944110+1054909811+1051545738+1047072632+1037460473+1015751974
1503+981603493+941762027+910691337+905428872+928864929+961269412+983551864
1493+995079805+1001704778+1005835997+1005141919+995757442+976721130+950087742
1483+920658243+896572315+885817146+889879899+903693715+920935099+937773438
1473+953683807+968396365+979731186+987139672+992330457+997003917+1001511658
1463+1004713080+1005683941+1004681515+1002469513+999722357+995223896+984581837
1453+963916244+933176992+899200295+875927181+875559646+895816640+922376960
1443+943441653+954344639+955779777+953063237+953515969+958983318+959315414
1434+945341141+921169065+901155754+900702291+920259947+946528065+968812198
1424+983597532+991289816+993544271+991281559+984002477+971191454+953381962
1414+932691014+914120733+904006156+904655515+911853929+918640457+920148517
1404+916565750+912887629+915002596+925932326+943133450+960490648+974537040
1394+985047941+992105114+996110947+998330110+1000319984+1003083580+1006330086
1384+1009110561+1010991343+1012119959+1012813233+1013275025+1013566861
1375+1013906264+1014770445+1016282378+1017947828+1019384939+1020549431
1367+1021362975+1021815050+1022298252+1023307035+1024723979+1025853034
1358+1026193533+1025799840+1025257160+1025324529+1026270474+1027729871
1350+1029209069+1030462778+1031480183+1032307392+1032880979+1033073661
1341+1032968734+1032960258+1033336123+1033813844+1033913875+1033572938
1333+1033052179+1032502265+1031819513+1030738977+1028667339+1024440328
1324+1016917343+1006332278+994897718+985802665+981304277+981133297+982653487
1315+982918872+980599678+976271905+971323635+966981540+964322359+964304603
1305+967219232+972408409+978743446+985272919+991507122+997297141+1002527237
1295+1006988725+1010570323+1013392666+1015628196+1017326453+1018546916
1286+1019498706+1020348493+1020980754+1021125284+1020666852+1019678820
1278+1018185008+1016039644+1013148544+1009860682+1007092555+1005827448
1269+1006333739+1008027101+1010125701+1012207568+1014138403+1015785878
1261+1017010286+1017844144+1018470633+1018916351+1018838679+1017699687
1252+1015105975+1010975707+1005539412+999311054+993018470+987493032+983517668
1242+981577261+981628336+983162555+985504327+988024020+990154551+991407018
1232+991527873+990686928+989430588+988320970+987574649+987013995+986191244
1222+984463466+981167566+975919715+968618274+959026136+946489850+930232917
1213+910044242+886901409+863069394+841562563+825439419+817205259+818046131
1203+827079075+841426948+857327819+871466131+881659988+886870209+887088318
1193+883378851+877742640+872504580+869471288+869283210+871408042+875051163
1183+880219735+887620476+897598927+909576239+922343056+934522475+945098626
1173+953957011+961690140+968718159+974877466+979835382+983467251+985700589
1163+986351190+985004684+980094556+968346605+948048620+924690162+910274189
1153+913330059+930725691+951644466+967888905+978059745+984066997+987419744
1143+989011979+990107933+992137922+995649885+999974735+1004065767+1007432031
1133+1010219009+1012721532+1015008575+1016889577+1018133787+1018732437
1125+1018975171+1019320273+1020135937+1021464175+1023033905+1024530056
1116+1025799182+1026819583+1027561009+1027765747+1026684041+1023341451
1108+1017801983+1012234750+1009791047+1011816359+1016701206+1021794883
1099+1025729256+1028536912+1030418571+1031078526+1029550737+1023839339
1091+1011668907+993680032+975999652+967131404+970820631+983199966+997370867
1081+1009019663+1017346401+1023117057+1027342973+1030734666+1033346791
1072+1034869099+1035366184+1035464608+1035771641+1036385490+1037163669
1064+1038194957+1039565284+1040894838+1041698518+1042034414+1042306229
1055+1042705182+1043248885+1044017858+1045020065+1046043316+1046802790
1047+1047165575+1047290595+1047560875+1048235297+1049200897+1050167374
1038+1050986545+1051657898+1052182968+1052553644+1052768904+1052779645
1030+1052551745+1052220744+1051966393+1051733597+1051344873+1050777934
1021+1049983607+1048745242+1047255741+1046483554+1047351826+1049773827
1013+1052830647+1055630339+1057818375+1059528762+1061026008+1062386981
1004+1063521516+1064403306+1065173448+1066053265+1067143739+1068266583
996+1069102340+1069541043+1069788088+1070064433+1070260402+1070025487
987+1069313873+1068661152+1068672697+1069407474+1070478512+1071515353
979+1072377196+1073092829+1073635216+1073741823+1073121691+1071807993
970+1070196175+1068870859+1068276958+1068009016+1066295926+1060947532
962+1051551291+1039724938+1025237651+1003687637+973596064+945823247+937958155
952+955875935+986025378+1006735543+1002126821+968890235+919998435+880968833
942+872390740+893729878+927802440+958303562+978647581+988078748+987258336
932+979527763+972147189+972237940+981286741+995055692+1008513883+1019406494
922+1027583076+1032980206+1034852367+1031805923+1021507140+999849934+961032889
912+901400314+826678222+755114587+709208803+701168786+726343289+770004555
902+818114669+862197467+898536907+926314401+946196115+958973819+964700634
892+963126301+955196106+943746713+931927741+921230296+912044857+905752492
882+904883562+910921430+922567888+936225044+947809394+954100882+952769721
873+941810983+919764981+886898852+846363747+804620674+770567694+752553464
863+754286794+772982680+801573573+832741956+861494037+885623295+905068352
853+920779390+933737939+944764777+954666725+963996108+972753950+980589668
843+987254974+992804014+997470606+1001493245+1004980072+1007640203+1008617056
833+1007045280+1003024541+997692149+992131711+986470511+980074316+972198776
823+962199354+949471629+933917688+916861239+901269668+890554321+886627037
813+888638904+893460766+897687851+899439960+898385801+894370980+886229763
803+871738092+848615791+816322884+778636062+745592961+730823190+743011963
793+778655498+824481418+867314526+901133176+926276624+945152989+959662344
783+970878136+979563640+986532035+992437941+997452777+1001476220+1004565482
773+1006982003+1009025582+1010971322+1012994954+1015094942+1017233364
765+1019549635+1022240236+1025207839+1028087833+1030758924+1033622551
756+1037116759+1041069691+1044777989+1047679685+1049760090+1051325436
748+1052529678+1053199131+1053149299+1052460701+1051030678+1047936228
739+1041588331+1030226913+1011779825+983131866+939498950+876425800+797566059
730+722688330+681379577+690685359+738842456+794403217+828776018+827959331
720+792028856+734290290+678856887+649941571+658250772+696316601+747228745
710+797090821+839670967+874179529+902043609+924694034+942759777+956660471
700+967223981+975560291+982709896+989206049+994798126+998977643+1001517138
690+1002010642+999812377+995636514+992510206+993659500+999536032+1007728324
680+1015636306+1022326822+1027747626+1031260613+1031492970+1027290144
671+1018052097+1002942046+982635950+963524817+949680605+935164236+911997947
662+873922036+816501828+738655766+645993973+551613318+469654852+407547813
652+365045668+340087010+334220707+350190371+386137689+435303569+489890290
642+544002578+594371092+639614657+679568501+714816444+745695549+772059679
632+794446546+814342216+832777540+849615660+864416996+877123604+887571447
622+894992939+898586813+898355843+894870477+888149126+876661592+856435945
612+820397547+760691320+676169356+580027421+498188677+456446664+465666482
602+517055069+589925021+663634750+725394348+770827964+799407750+809789392
592+797383388+754931989+678537943+577734788+480819240+424293610+427970270
582+481393924+556355243+628074878+685953079+730276857+764453762+791614339
572+814268563+833498872+848947302+860760941+870684810+880334891+889447407
562+896723932+901785020+905455177+908325087+910052207+910222383+908657037
552+904169829+894701104+880994480+869308857+867117168+875648352+888897494
543+899646452+903453027+896439695+873249221+831189835+777124275+727296759
533+696131372+684429820+681155476+677438774+676329083+687630220+714800734
523+751465547+789050585+821840358+848081002+869831078+889622991+907302494
513+921403395+931705393+939475495+946273495+953186869+960800458+968632815
503+973947743+972405852+959086199+924627469+855195169+749963332+640360832
493+576356241+584069313+643332235+713259793+768113470+801955794+816883173
483+818157049+814227353+814079754+823221717+841249173+863294152+884693060
473+902790296+915844345+924218212+930790284+937589525+943982871+948498137
463+950658553+951000002+950947393+952650254+957356375+963435308+968137045
453+970514401+970700799+967850982+959375988+943104149+922191877+906844793
443+906706840+920263454+936185806+946671864+952396560+955884995+957039404
433+955270636+952362876+951849496+956119107+963979156+971525669+975373528
424+975090315+972465403+969422174+968940287+974557792+983936277+990958596
414+992207337+988213852+982521306+977974255+974456007+971613132+971175452
404+974487573+978865325+976600713+956235432+913462970+869788771+853478425
394+866318530+893477499+921552455+942347744+951268675+949253081+945014305
384+948640694+960565251+974142690+984888944+990627377+988337338+975742524
374+958867139
##END=
