##TITLE=X7662
##JCAMP-DX=5.0
##DATA TYPE=LINK
##BLOCKS=1


$$ === CHEMSPECTRA SPECTRUM ORIG ===
##TITLE=X7662
##JCAMP-DX=5.00
##DATA TYPE=INFRARED SPECTRUM
##DATA CLASS=XYDATA
##ORIGIN=ComPlat
##OWNER=
##XUNITS=1/CM
##YUNITS=TRANSMITTANCE
##XFACTOR=1
##YFACTOR=8.9569169e-010
##FIRSTX=3997.453
##LASTX=373.96442
##MAXX=3997.453
##MAXY=0.9617416280665508
##MINX=373.96442
##MINY=0.544364393827219
##NPOINTS=2559
##XYDATA= (X++(Y..Y))
2559A056898978A057126899A057089301A056504628A055728303A055369088A055569325
2552A056003670A056434954A056856589A057273566A057681360A058063134A058229632
2545A057952335A057353421A056860715A056688960A056617556A056381784A056044662
2538A055843893A055826059A055839169A055853210A056067954A056597526A057217867
2531A057571759A057497227A057096687A056653824A056503364A056807412A057393881
2524A057838209A057780314A057267178A056825646A056986421A057606363A058176794
2517A058608611A058928697A058744165A057800344A056694217A056244899A056390968
2510A056505626A056293810A055922151A055744940A055859864A055868915A055337878
2503A054393724A053697920A053756148A054490282A055571920A056738005A057632914
2496A057711638A056704798A055197200A054375424A054707621A055483015A056165377
2489A056868035A057616078A058161555A058251259A057780713A057023420A056492982
2482A056240307A055885152A055219094A054384874A053568954A052997191A053200955
2475A054289713A055467975A055905182A055257890A053788422A052430220A052468417
2468A054220239A056223405A057019427A056479539A055533257A055079879A055179232
2461A055475628A055670541A055511097A054719533A053630842A053557708A054724989
2454A056338197A057687282A058281072A058005904A057208019A056329080A055475828
2447A054688589A054410893A054959831A055860796A056367078A056198982A055751794
2440A055608787A055935128A056474815A056877485A056856589A056189333A055122735
2433A054496405A054790538A055872242A057138611A057814518A057593785A056605312
2426A055259886A054427862A054895547A055979181A056171632A054999558A053647212
2419A053648277A055155476A057352623A059028250A059404234A058854698A058180987
2412A057744578A057472406A057230644A056961200A056652826A056264064A055708339
2405A055114350A054915245A055264145A055811818A056228995A056465233A056548881
2398A056398620A056006332A055682253A055831715A056454985A057037861A057013571
2391A056242570A055243117A054679073A054478570A054007824A052872085A051532582
2384A050918629A050979984A050977921A050373684A049114102A048057153A047737533
2377A047578754A046929532A045957762A045666291A046646446A048450041A050526207
2370A052430087A053672632A054007625A053711895A053492892A053872270A054633955
2363A055089329A054962559A054687525A054714808A054979262A055105167A054924428
2356A054840647A055334950A056223006A056847672A056720503A055994354A055359306
2349A055245246A055436433A055667347A056026695A056809275A058115439A059461863
2342A059819481A058689997A057146663A056251753A055835176A055365228A054679339
2335A054048284A053722742A053583128A053547127A053755948A053733921A052829429
2328A051619158A052005058A054414420A056975773A058241344A058074779A057099149
2321A055960349A054925959A054121086A053734187A053621791A053250997A052326075
2314A051049059A049951650A049542858A050153683A051747059A053727067A055279850
2307A056069617A056445336A056655754A056314972A055068833A053283472A051556472
2300A050029508A048894967A048929105A050113024A051492388A052503354A053092551
2293A053467604A053888774A054302224A054291510A053676426A052911214A052768539
2286A053502275A054772437A056224669A057369392A057536290A056643975A055387455
2279A054460536A053882052A053358402A052927451A052811794A053032460A053273091
2272A053014227A052039928A051133372A051797301A054107909A056430097A057536889
2265A057416507A056949354A056905235A057070268A056893389A056565584A056504695
2258A056343254A055459790A054138188A053432934A053585990A053864085A054119355
2251A054748414A055825394A056937243A057560779A057322344A056208232A054845305
2244A054120819A054158884A054299296A054079827A053681416A053619129A054346344
2237A055903785A057597512A058397594A057998850A057104207A056446000A056119327
2230A055959018A055862060A055734691A055567395A055554951A055969066A056911623
2223A058054616A058723735A058577933A058115705A058119964A058632368A058922242
2216A058458217A057530966A056837158A056641247A056600787A056400883A056266460
2209A056590672A057174213A057430215A057276761A057249210A057680029A058222378
2202A058406910A058260509A058160158A058381889A058930760A059568203A059869989
2195A059514235A058676687A057850386A057264982A056919076A056958471A057421431
2188A057866491A057877338A057601505A057332526A057044116A056692288A056448663
2181A056386243A056414791A056593134A057090565A057832619A058429403A058517776
2174A058193298A058037314A058494551A059219569A059349667A058558502A057449846
2167A056803087A056810340A057016233A056847606A056225401A055646385A055602198
2160A056050984A056613431A057064279A057400203A057629521A057698861A057463821
2153A056728289A055573717A054561220A054296434A054845372A055734425A056387906
2146A056539565A056335002A056101892A056101426A056447665A057057758A057663259
2139A057997919A057912474A057299253A056180150A054920702A054035574A053725137
2132A053801798A053988859A054119222A054160947A054166137A054181443A054236609
2125A054483295A055172378A056255081A057165163A057306773A056692820A055839767
2118A055189481A054834059A054643338A054524554A054560222A054718868A054579055
2111A053941478A053546661A054262096A055665084A056389038A055839967A054726055
2104A053940014A053722742A053899621A054233482A054445297A054334964A053954654
2097A053456425A052914940A052430619A052080055A051666738A050980783A050328100
2090A050284113A050935598A051764095A052164768A051855329A050989034A050034167
2083A049408635A049133067A048838003A048148321A047097494A046083068A045381341
2076A044885640A044296110A043331527A041887945A040264690A039078309A038740722
2069A039105593A039590513A039590580A038927516A037906768A036884157A036010009
2062A035449493A035422409A035902072A036597011A037231793A037605514A037523597
2055A036994290A036465183A036554887A037361624A038178475A038210683A037534111
2048A036947242A036912838A037156130A037292283A037250559A037009263A036520683
2041A036085738A036268407A037163716A038157846A038665591A038757824A038799482
2034A038815719A038617878A038372124A038611822A039637495A041126726A042389169
2027A043013437A043366264A044213194A045599479A046575841A046521539A046126922
2020A046372809A047200241A047870159A048031001A047891986A047829566A048173742
2013A048992257A049888298A050335753A050328167A050392849A050828392A051317172
2006A051544294A051759170A052323613A053066266A053524701A053584259A053514719
1999A053489698A053362595A053005110A052699930A052919732A053737182A054715274
1992A055370486A055527534A055318513A054963291A054468988A053688138A052836483
1985A052569301A053185649A054140051A054691584A054714941A054572666A054476574
1978A054376090A054290511A054312937A054405702A054553434A054882704A055316716
1971A055499252A055335083A055118942A055006679A054882704A054703828A054532938
1964A054439441A054600749A055116480A055675133A055822332A055447213A054738765
1957A053989724A053537411A053435197A053316745A053043973A053095280A053794944
1950A054654252A054980793A054732443A054379483A054264958A054390131A054564880
1943A054604941A054512975A054496937A054737101A055154077A055477225A055549827
1936A055480885A055414206A055243316A054750477A054024927A053547792A053701181
1929A054258769A054592364A054434916A054139519A053991521A053740709A053193302
1922A052766343A052870488A053149848A052999853A052559785A052531569A053150779
1915A053902149A054227559A054047818A053591579A053105861A052738527A052442464
1908A052081452A051713320A051493785A051290288A050805168A050077688A049476911
1901A049316801A049709955A050522148A051354837A051920278A052303249A052470547
1894A051988288A050795718A049680142A049366312A049646337A049862012A049814498
1887A049777100A049832466A049631697A048930303A048081243A047636916A047638712
1880A047753704A047908623A048233966A048572618A048583931A048244946A047875084
1873A047724424A047727884A047677442A047597454A047727019A047982356A047820250
1866A047009055A046135373A045894477A046212167A046485604A046359500A045919565
1859A045400506A044971817A044639088A044255650A043705315A043022620A042313241
1852A041704013A041329559A041203254A041160332A041029702A040755001A040337891
1845A039779903A039008969A037823586A036028709A033586539A030540199A027018322
1838A023370207A019873883A016207934A011668769A005987010I99509695I92579667
1831I85197726I77402335I69618124I62356964I55744227I49632914I44113794I39633056
1823I36652996I35412180I35943882I38144357I41858818I46910919I52870374I58796955
1815I63543611I66534052I68066073I68773256I69082296I69275678I69552509I69730387
1807I69351807I68383164I67412858I67019771I67336530I68225916I69550580I71274851
1799I73415368I75826394I78130880I80038220I81628401I83266496I85307194I87715159
1791I89882227I91171488I91739391I92403054I93627167I95066821I96143468I96717227
1783I97142522I97883445I99146953A000799488A002569078A004276979A005861904
1776A007256639A008368157A009197120A009830970A010245617A010208019A009413727
1769A007651590A004909831A001484645I97963832I95006797I93103982I92420822
1762I92741174I93630095I94766899I96105604I97713154I99519610A001233833
1755A002526954A003343206A003986173A004844283A006056418A007430458A008672471
1748A009755839A011020811A012841441A015284077A018121596A021019006A023736942
1741A026275070A028712249A030906801A032647376A034044575A035395657A036737489
1734A037899581A038875411A039800266A040662036A041307931A041683583A041859065
1727A041873505A041752658A041678193A041905647A042477675A043196106A043892642
1720A044578531A045343743A046198991A046994148A047495506A047568773A047259400
1713A046741074A046287164A046188477A046529325A047082987A047519529A047708519
1706A047799621A048043977A048565032A049281466A049946393A050248511A050026847
1699A049461006A048952729A048775783A048869945A048957121A048863624A048729534
1692A048810054A049172330A049794734A050753595A051960672A052944620A053286067
1685A053117040A052914475A052952006A053107391A053093816A052793294A052388229
1678A052153389A052148464A052194581A052148331A052057829A051990484A051855062
1671A051585951A051411002A051664342A052323480A052967445A053235758A053109787
1664A052716434A052149995A051578299A051228200A051133639A051142622A051218219
1657A051482606A051954882A052498696A052982618A053303901A053376769A053290792
1650A053357138A053816971A054523688A055039751A055093388A054837386A054555630
1643A054272744A053851641A053369915A053143393A053334113A053712161A053944805
1636A054003100A054045024A054016941A053757878A053425680A053368517A053595506
1629A053783232A053755416A053591912A053328124A052897971A052381774A052026552
1622A051993146A052256601A052711709A053197295A053510660A053578803A053490363
1615A053286200A052948014A052603638A052493305A052754565A053366321A054109839
1608A054575594A054536998A054280796A054258569A054556496A054948917A055214568
1601A055201326A054837319A054237275A053655330A053302238A053304300A053720013
1594A054423404A055075820A055444817A055661358A055881825A055857136A055298616
1587A054546913A054273675A054539194A054791469A054810036A054964156A055446148
1580A055936058A056183211A056321294A056467163A056553140A056633860A056860316
1573A057096421A056991012A056494380A056002006A055900590A056174094A056574766
1566A056999464A057456501A057790695A057773060A057464420A057239362A057393416
1559A057792425A057966310A057676968A057312895A057417838A057996255A058706167
1552A059390060A059865464A059735565A059118686A058973615A059911580A061195784
1545A061644304A061082390A060172374A059291971A058429070A057811058A057751100
1538A058043170A058194362A058105457A058015620A058005106A058001180A058084961
1531A058427140A058964765A059326775A059202400A058766658A058547389A058818231
1524A059435977A060246639A061181477A061933245A062107730A061729882A061117592
1517A060387584A059596818A059139914A059404900A060144757A060669073A060620694
1510A060313851A060398564A061263195A062594779A063578129A063728722A063354468
1503A062989862A062727472A062393677A062037590A061898043A062057620A062272098
1496A062095285A061314568A060356440A059995428A060570585A061764685A063076439
1489A064074894A064306873A063572871A062397271A061673717A061647831A061674715
1482A061211888A060625086A060632606A061246891A061733741A061573299A061076401
1475A060869642A061011984A060983636A060504638A059876977A059417477A059154221
1468A059239932A059953105A061030617A061679107A061508883A060897658A060358104
1461A060082404A060049464A060075017A059838779A059268281A058792677A058902877
1454A059612190A060540706A061301392A061628066A061454914A061073473A060896993
1447A060968596A061089909A061357424A061951413A062483980A062303241A061460836
1440A060715123A060615104A061095566A061835690A062558179A063093142A063423143
1433A063579326A063432925A062800406A061773469A060761172A060193735A060270263
1426A060894464A061748914A062464216A062698657A062088165A060439955A058120496
1419A055864190A053985931A052174151A050202395A048293192A046538708A044584852
1412A042212224A039689600A037320365A034986732A032324429A029403461A027230404
1405A026893814A027963474A028788577A028755903A028998197A030548717A033103881
1398A035787879A038053236A039647876A040341019A039936020A038597249A037170770
1391A036635541A037017448A037540832A037714384A037787584A038224924A039056615
1384A039948398A040689120A041172111A041061179A040162742A039020880A038485784
1377A038769270A039474657A040481164A041992489A043685085A044764860A044983330
1370A044916118A045164534A045804973A046716386A047949415A049510184A051048992
1363A052084780A052571164A053055818A054147172A055878231A057609889A058492688
1356A058168210A057210281A056652959A056882343A057381238A057736526A058240812
1349A059162074A060149615A060751923A060934591A060846617A060552418A060079609
1342A059430919A058629773A057845396A057295660A057096421A057353022A058236553
1335A059714405A061241102A061936840A061330739A059862603A058409971A057518189
1328A057315158A057625461A057954864A058182783A059203665A061669591A064387860
1321A065492256A064956694A064457600A064947777A065559933A064906452A062845924
1314A060765165A060163523A061152196A062572553A063473984A064109232A065280440
1307A066997192A068393526A068844042A068263562A066476803A063636556A061124713
1300A060613574A062223852A064476499A065924472A066293735A066110202A065644912
1293A064706348A063503198A062723812A062458360A062163695A061738799A061423438
1286A060921149A059795125A058369511A057392883A056994473A056463436A055310794
1279A054537996A055903652A059400774A062863824A064630087A064920959A064260025
1272A062419098A059506981A056524459A053962373A050748737A045326108A037383185
1265A028171164A019839878A014434152A012033840A010126367A007130136A005156850
1258A006887177A012673080A021087149A029884389A036838440A041141899A043623330
1251A045262357A046454195A047276370A047429425A046752919A046467171A048571021
1244A053338838A058661715A062348360A063907531A063906267A062821435A060958082
1237A058897553A057497094A057261189A057748238A057915668A057299586A056497574
1230A056151469A055969798A055307932A054286652A053684544A053941145A054716605
1223A055329626A055484479A055573717A056111142A056903637A057252272A057018496
1216A056846807A057191182A057830423A058462809A059097923A059780418A060449272
1209A060962008A060914627A059918368A058502537A058021742A059052007A060591414
1202A061471351A061800287A062258057A062768065A062812850A062490169A062407319
1195A062801870A063259307A063198018A062427682A061292142A060434831A060539641
1188A061949550A063753677A063567149A059751005A054150499A051183881A053296781
1181A058586118A063767319A067682283A070764824A072665509A072288593A069789527
1174A066809533A064557086A063236216A063364316A065340199A067512990A067443915
1167A065647907A065285631A067378900A069077152A067799337A064752731A062978816
1160A063823018A066488848A069186288A069811420A067570685A064551962A063784221
1153A065557870A067364593A067247072A065598064A063960502A063123553A062476594
1146A061199511A059757726A059461064A060670337A062341971A063292314A062804266
1139A060439556A056564586A052684624A050596613A051656490A056599256A064396843
1132A071315026A073741823A071973897A068991175A066449187A063993109A061735605
1125A060893133A061603777A062454567A062749499A063414359A065172503A066994464
1118A066988009A064348731A060315448A057366531A057333258A060017322A063481903
1111A065769819A066374389A066015973A065536642A065436091A065923873A066789569
1104A067503274A067741908A067434466A066413585A064820807A063506858A063066058
1097A062935095A062338178A061545749A061278035A061382113A061295936A061280031
1090A061950282A062892772A063105120A062504144A062072859A062631246A063861681
1083A064848557A065186411A065038080A064546904A063812903A063171599A062905948
1076A062964176A063308085A063977071A064575586A064422264A063462804A062698524
1069A063310680A065389309A067698254A068785548A068504857A067869676A067588852
1062A067614872A067697123A067648478A067401725A067036455A066448920A065341596
1055A064040157A063448630A063895420A064878836A065609044A065620889A065101099
1048A064662894A064804836A065534646A066379513A066783247A066585340A066070607
1041A065634465A065529455A065771150A066104079A066307244A066398345A066421836
1034A066341848A066033940A065312116A064133521A062776183A061806210A061783052
1027A062724278A064040091A065024105A065395099A065313181A064994692A064711339
1020A064692108A064761781A064627891A064321247A063901608A063289319A062690273
1013A062536152A062888779A063355133A063483966A063176058A062783370A062626921
1006A062617738A062556382A062271765A061606040A060894065A060861657A061430425
999A061872623A061680504A060781868A059606467A058733584A058209069A057649684
992A056917013A056035080A054700900A052309572A048440258A043466548A037932322
985A031516960A023630335A013898058A001338044I85009467I66592546I48569643
978I30350829I11216742H93243615H77774147H63225474H48046545H33590904
971H22354422H14423743H08289405H03007322G98390098G94138145G90032727
964G86616524G84273641G82574391G81288457G81138329G82733236G86274079
957G91765716G98867964H07659881H18490964H30550087H42668502H55693672
950H72327827H93006113I12879126I28629618I41413892I52640724I62503830
943I70944451I78507330I85699882I92050826I97183515A001814580A006539807
936A010595449A013710132A016654391A019334595A021185770A022393313A023397424
929A024193979A024455372A024055297A023409602A023150472A022997283A022360772
922A020977348A018404749A014023364A008127860A001775185I94737619I85952224
915I76273782I67874154I60528081I52448539I42807430I32780887I23941723
908I16350495I09502252I02910478H95271203H85752739H78231583H74600171
901H72799838H72628548H75648603H81595747H88836943H97009184I06036872
894I15709192I27062262I42075092I58495103I70969871I79400044I86199908
887I92632371I98718330A004065230A008687511A012886759A016502134A019098557
880A020826422A022337747A024042720A025511256A026224695A026250781A026000169
873A026009086A026609663A027768760A029382566A031409888A033677507A035837722
866A037595466A038932374A040110903A041390448A042683901A043674105A044287392
859A044831139A045644397A046719780A047752439A048514923A049018875A049295906
852A049262566A048962444A048900224A049561557A050300018A050209116A049239808
845A048177069A047713310A047404937A046677989A045623369A044407907A043025881
838A042335800A044185045A047071275A048775583A049588309A050078087A050509904
831A051005205A051384850A051209168A050277192A048856703A047329806A046149215
824A046555345A048585728A050244785A050641931A050268076A050187488A050683921
817A051000014A050685252A049905068A048874005A047421972A045398643A043260655
810A041422922A039336375A036529933A033369134A030076707A026075898A020773185
803A013928469A005068610I94851346I88455482I88062063I90475285I94383328
796A000130036A008018391A017396910A026085414A032000949A035077301A036314590
789A036932868A038255203A040574595A042863642A044204210A044401519A043828625
782A042955010A041753123A039759740A036611984A032130847A026371429A020369052
775A015323672A010880000A006016224A000182541I93663101I87314153I81359955
768I74969948I66958216I57608245I50805587I48618421I48487792I48388305
761I47665084I46438177I45319406I44588200I43517143I40803466I35556851
754I27884237I18111300I06196516H94067587H86166255H83706784H84665178
747H87588674H91451799H94824481H96777072H97416844H97388895H97247951
740H97224859H97743186H99600017I02779116I06435350I10166181I14221956
733I19093452I24949362I31561898I38940845I47245579I55702303I62998267
726I68845326I73727335I77685887I80168184I80739813I79373159I76281701
719I71680116I65920565I60196949I56630419I56283116I57841090I59274156
712I59321137I57648506I54434470I49726345I43280106I35401266I27631828
705I21621198I18077429I17181787I18685658I21953330I26731395I33182359
698I40753490I48090645I54306036I59326994I63494899I67179282I70432114
691I73030333I74866003I76202578I77631320I79726053I82535356I85488931
684I87985136I89907515I91357484I92073186I91624466I89927878I87103335
677I83133471I78067861I72401474I66845088I61825661I57530320I54177736
670I51848362I50219583I48723897I46826871I44089970I40338642I36075710
663I32488018I30679032I30968242I32983919I36109648I39685960I42938393
656I45003446I45212534I43330481I39508349I34094304I27490684I20118925
649I12484974I05230070H99110106H94930688H93317681H94311278H97135355
642I00411277I02713036I03170672I01725428H98885114H95289304H91435828
635H87530114H83353092H78331003H71955370H64299592H56195162H48850686
628H43184565H39347194H36561315H33163080H26955142H16074948H00208998
621G81367647G63453613G50744137G46140023G50101636G60748986G74867306
614G89174217H01321779H10387998H16745331H21413329H25352250H29124207
607H32880459H36484920H39718920H42471925H44842890H47138392H49626279
600H52143845H54077870H54837225H54195789H52130602H48540183H43191087
593H35878420H26721499H16387913H05910322G96217307G87864261G81108317
586G76062871G72759197G71156904G71102736G72246394G74101229G76301105
579G78710534G81198420G83395568G84664066G84170096G81112842G75160242
572G66676433G56486652G45557414G34826282G25040435G16784546G10936955
565G09015907G12708275G22864050G38865487G58818289G80306439H01178439
558H20070765H36550202H50749906H62715399H72124330H78710049H82915486
551H86070429H89872132H95541313I03295313I12495755I22169205I31389278
544I39436346I45927836I50873863I54495160I56970003I58409591I59018487
537I59111585I58933907I58570899I58064484I57497047I56894274I56119945
530I54908876I52953290I49948874I45631640I39889990I33024778I26000255
523I20236245I16851320I16074862I17408908I20121720I23402634I26337044
516I28116815I28334487I27080096I24914824I22682541I21015964I19938253
509I19119804I18471514I18240599I18640208I19697290I21402929I23728044
502I26557511I29867705I33919887I39061027I45303369I52103232I58452580
495I63258195I65927952I66787393I66844555I67005597I67579555I68633377
488I70502053I73477788I77209551I80994951I84515364I87774185I90574704
481I92572280I93618715I93718601I92839995I90915087I87913333I83967824
474I79487685I75017595I71049860I68085571I66533387I66217693I66290760
467I65978061I65208058I64384219I63857308I63660066I63277028I61528467
460I57124456I49655407I40035659I30087640I21734527I16251142I13907592
453I14204521I16404264I19897593I24279310I29212694I34215617I38716984
446I42545106I46312871I51073634I57470628I65236473I73470535I81274776
439I88106116I93744886I98116755A001100009A002462737A002036644I99888740
432I96387426I92428142I89524410I89047009I91137750I94646118I98099187
425A000520860A001623526A001636303A000931449I99676326I97794207I95079731
418I91295197I86356357I80502577I74191693I67928456I62254416I57683642
411I54529165I52945571I53141549I55341691I59552585I65528143I72846334
404I80772288I88182112I94004349I97795737I99713325A000107211I99452665
397I98434312I97621187I97129479I96865957I96874143I97128947I97265765
390I96928710I96191847I95236514I93705491I90805153I86222933I80801701
383I76219747I74011620I74722064I77660334I81346579I84380475I86111801
376I86721428I86907957I87457759I88803518I90809678I93058598I95321692
369I97567418I99508297A000448591I99845086I97860021I95046858I91602373
362I87238158I81604644I74488621I65751073I55283995I42798912I27596825
355I08880580H86301410H60016363H30578369G99200494G67972415G39542725
348G16513638G00832952F93278325F93235868F98828256G07271871G15455358
341G20722535G21487015G17260350G08248300F95068344F78790275F60953568
334F43317097F27592225F15436012F08443565F07758674F13517892F24710520
327F39563707F56051062F72382767F87553777G01577468G14963916G27840888
320G39671292G49961490G59124267G68292035G78260351G88946897G99804465
313H10290242H19992108H28814103H37073585H45128106H52991840H60559244
306H68136897H76507844H86309795H97377516I08738371I19102635I27416220
299I33424984I37811693I41391200I44228452I45913329I46442901I46318594
292I45924775I45219654I43971984I42073828I39626135I36868604I34088115
285I31491493I29028428I26374509I23063649I18435645I11552932I01612300
278H88606295H73506555H57960027H43967678H33638950H28879318H30893198
271H39451937H52414487H66305220H77968927H86044210H90932408H93573483
264H94608406H94692853H95003290H96840489I00758648I06359288I12912931
257I19854604I26521909I31839661I34823648I35406191I34495110I33261948
250I32482096I32322718I32546113I32957167I33626486I34645371I35855509
243I36921575I37557688I37772431I37916437I38121132I37724319I35874475
236I32750609I29495447I26863822I24590346I22222775I20079862I19226877
229I20663870I24381192I29124254I33409347I36763795I39585609I41943065
222I43239247I43257480I42746408I42465850I42286509I41833397I41474315
215I41893422I43042337I44097556I44106407I42390121I38972854I35758019
208I35676101I37592691I38269729I36971750I34644439I31973751I28478759
201I23488944I17398793I11246355I05462581H99738765H94096734H89420019
194H86442221H84478650H81787066H77566057H73586477H73305321H78949747
187H89809845I03277279I16523847I27370170I34873624I39388366I41709888
180I42335020I41632828I40145393I38244309I35852514I33010404I30518525
173I29472689I30153321I31904810I34052779I36150241I37528873I37721790
166I37378879I37836182I39609765I41794867I42977854I42462722I40664784
159I38655562I37484088I37720391I39390030I42378275I46807839I52563398
152I58540354I63055829I65293969I66028370I66518281I67028755I66808554
145I65038965I61408617I56386196I51247319I47081809I43424710I38426112
138I30957927I22174995I14275459I08313076I03893694I00391647H97644964
131H95681260H94765122H95901460I00336680I08036578I17186312I25778258
124I33632475I42132521I51810098I61349658I69451692I76206305I81860979
117I85842423I87891971I88842314I89655572I90574239I91250478I91269777
110I90912891I91379977I93404970I95777599I96324606I93682866I87739581
103I79830663I72619545I68471005I67783585I69296041I71555143I74030053
96I77160906I81516271I87088363I92969959I97118033I97744164I96160238
89I95847472I98003426A000232583I99747862I96667983I93515835I92403387
82I93492744I95526255I96924784I97021608I97009963I98751337A002220377
75A005128035A005387032A003282583A000550207I98170857I96035730I94135378
68I92954254I92928035I94123533I96003522I97366583I97329849I96869019
61I98514167A003274997A008442888A011102530A011444908A010603768A008397237
54A004503834A000613426I99501842A001653672A004382388A005053504A003694502
47A001599037I99388514I97350478I95939372I94863790I92662384I88539064
40I84108302I81663005I81151533I80599268I79019667I76879550I74429794
33I73071392I76305125I83082497I87574614I86066217I79237805I71155668
26I65341749I62129110I60348341I59762537I60877048I63107402I64209004
19I62062498I58564910I59050296I63046113I65713607I66369684I66571251
12I64223178I55181581I40787827I30107138I31204946I41117762I51082684
5I55942534I53375790I40732129I18822211H98964902
##END=


$$ === CHEMSPECTRA PEAK TABLE EDIT ===
##TITLE=X7662
##JCAMP-DX=5.00
##DATA TYPE=INFRAREDPEAKTABLE
##DATA CLASS=PEAKTABLE
##$CSTHRESHOLD=0.93
##MAXX=3997.453
##MAXY=0.9617416280665508
##MINX=373.96442
##MINY=0.544364393827219
##$CSSOLVENTNAME=- - -
##$CSSOLVENTVALUE=0
##$CSSOLVENTX=0
##NPOINTS=23
##PEAKTABLE= (XY..XY)
385.29667513682534, 0.8330892343162832
514.2010773182169, 0.8668357148029087
556.6970340813132, 0.8014336842772362
640.2724157154025, 0.7822123188524825
759.2610946520717, 0.7424203171454674
840.0034125019542, 0.544364393827219
861.2513908835026, 0.6209256061775369
953.3259638702107, 0.853545428967005
1015.6533671227521, 0.8185794364780021
1090.7295574042219, 0.8224604739449223
1110.5610038936666, 0.8205206413112968
1172.8884071462076, 0.6350596559777129
1198.3859812040655, 0.6906703127714638
1247.9645974276777, 0.6683114181775088
1368.3698082564501, 0.8215121048352501
1433.5302752931975, 0.791528822825425
1504.3568698983577, 0.8849989790333564
1647.4265910007816, 0.7816061389003661
1732.4185045269742, 0.6996591100257861
2158.794604050054, 0.9047617927717903
2359.9421327287077, 0.9214773791858252
2869.893613885848, 0.8889030832483692
2953.4689955199374, 0.8378409163507842
##END=


$$ === CHEMSPECTRA PEAK TABLE AUTO ===
##TITLE=X7662
##JCAMP-DX=5.00
##DATA TYPE=INFRAREDPEAKTABLE
##DATA CLASS=PEAKTABLE
##$CSTHRESHOLD=0.93
##MAXX=3997.453
##MAXY=0.9617416280665508
##MINX=373.96442
##MINY=0.544364393827219
##NPOINTS=46
##PEAKTABLE= (XY..XY)
2953.4689955199374, 0.8378409163507842
2927.97142146208, 0.866151572950403
2869.893613885848, 0.8889030832483692
1732.4185045269742, 0.6996591100257861
1647.4265910007816, 0.7816061389003661
1504.3568698983577, 0.8849989790333564
1433.5302752931975, 0.791528822825425
1420.7814882642688, 0.8036368502677217
1385.3681909616885, 0.856534840288506
1368.3698082564501, 0.8215121048352501
1310.2920006802187, 0.8336014750196441
1286.210958514464, 0.800137223401771
1247.9645974276777, 0.6683114181775088
1198.3859812040655, 0.6906703127714638
1172.8884071462076, 0.6350596559777129
1110.5610038936666, 0.8205206413112968
1090.7295574042219, 0.8224604739449223
1036.9013455043, 0.8654331583510712
1015.6533671227521, 0.8185794355823105
980.2400698201718, 0.8858811869806552
953.3259638702107, 0.853545428967005
930.6614535965596, 0.8928845537287974
913.6630708913212, 0.8724141139974378
861.2513908835026, 0.6209256061775369
840.0034125019542, 0.544364393827219
759.2610946520717, 0.7424203171454674
725.2643292415946, 0.8350737109108134
698.3502232916339, 0.8233438749535521
678.5187768021888, 0.8432707202939423
667.1865216653632, 0.8380773081973008
640.2724157154025, 0.7822123188524825
617.607905441751, 0.8325209636192544
607.6921821970286, 0.8396024723018155
596.3599270602031, 0.8396967071288287
556.6970340813132, 0.8014336842772362
528.3663962392493, 0.8875524419825758
514.2010773182169, 0.8668357148029087
498.61922650508177, 0.8919723051779077
490.1200351524626, 0.8888874668637541
483.03737569194664, 0.8930135387063075
467.4555248788115, 0.8893573897175292
460.3728654182951, 0.8928872963367521
419.29344054730245, 0.8715719595911325
405.12812162627006, 0.8596513287642176
398.0454621657541, 0.8585786242125979
385.29667513682534, 0.8330892343162832
##END=

##END=

