##TITLE=X9301
##JCAMP-DX=5.0
##DATA TYPE=LINK
##BLOCKS=1


$$ === CHEMSPECTRA SPECTRUM ORIG ===
##TITLE=X9301
##JCAMP-DX=5.00
##DATA TYPE=INFRARED SPECTRUM
##DATA CLASS=XYDATA
##ORIGIN=ComPlat
##OWNER=
##XUNITS=1/CM
##YUNITS=TRANSMITTANCE
##XFACTOR=1
##YFACTOR=9.6551123e-010
##FIRSTX=3997.453
##LASTX=373.96442
##MAXX=3997.453
##MAXY=1.0367097882271723
##MINX=373.96442
##MINY=0.42557263502753445
##NPOINTS=2559
##XYDATA= (X++(Y..Y))
2559A029564646A029405928A029246840A028986818A028541223A028156684A028288300
2552A028972742A029641319A029782689A029487417A029140288A028892056A028697595
2545A028592339A028600920A028541594A028221196A027781095A027600586A027866844
2538A028378802A028721980A028586536A028087233A027768687A027964198A028313796
2531A028368863A028271200A028241629A027839496A026415792A024234305A022725594
2524A023088959A024583719A025330265A024800774A024384318A025261679A026878363
2517A028103099A028332501A027310869A025120987A022700468A021602348A022378156
2510A023747967A024024102A022977591A022090600A022380996A022842394A022216290
2503A021174780A021740570A024475191A027717016A029847757A030611959A030258472
2496A028366825A024093182A017610396A011169403A007652863A007691508A010150117
2489A014065705A018235574A020917412A021031249A019394008A018660302A020170063
2482A021847061A021311088A018664500A016049890A014479259A013677214A014716193
2475A018187113A021541108A021988801A019362462A015622630A012460750A010891478
2468A011602404A013187357A013259153A011809953A011688584A014545438A018341570
2461A020401873A019589704A015405512A007696015A001073154A002963566A010780789
2454A018383549A023004198A023977555A021643092A017117390A011996080A007772626
2447A005756957A006715682A009621367A012592490A014900777A016763594A018263415
2440A019070276A019065399A018623694A017676142A015107956A010621763A007193749
2433A007439202A009586982A012173873A016053717A020962169A024829604A026124470
2426A024591806A021456224A018991812A017584591A015169134A011412387A009679027
2419A011799026A015368472A018742408A022131283A025427681A027950431A029475379
2412A030103828A029667124A028165326A026510553A025591090A024814109A023291075
2405A022047881A023076674A026035944A028569312A028950333A026879906A023445348
2398A020804624A020238587A021011618A022171163A023225946A023187486A021161013
2391A018167913A016870949A017809117A018283541A015559044A009222814A002790341
2384A001399911A004010447A006059946A006120631A006296880A008567078A011304106
2377A012031700A009400484A003792033I98797895I99409800A005798319A013475715
2370A018771114A020402984A018768892A015808634A014165466A015086843A017974316
2363A021536725A024434446A025586954A024392529A020690787A015318715A011577093
2356A013233410A019098612A025055179A028481095A028632960A026480056A024665022
2349A025041042A026492280A027314573A027203576A026085763A023010310A017456308
2342A011853969A011061122A015836723A021870458A026242937A028364541A028168969
2335A025676344A020835553A013472258A005788256A003399283A006391950A009082493
2328A009905466A012872391A019901027A027414088A032204135A033802051A033384484
2321A032119683A030228963A027743253A025536147A024081885A021700196A015977105
2314A006565422I98723814A000017507A008590599A017664598A023918290A027199378
2307A028687409A029389013A029370308A028328365A026460302A024254739A021353129
2300A016719145A011838350A012069296A017935362A023916006A026472895A024856829
2293A020049373A015107030A013377311A014328011A015253956A015537808A016146935
2286A016935769A017038803A017335372A019502042A022787019A024810528A024622179
2279A023435964A022803872A022720100A022445384A022304817A023288544A024964122
2272A025162781A022168323A017375437A015572564A018835132A023740312A027134187
2265A028577708A028846373A028650183A028488750A028774268A029501122A029774355
2258A027968890A022804181A015226670A009884970A011072605A016639879A021936328
2251A025174634A027196415A029154734A030827101A031136141A029845534A028105074
2244A027067021A026365232A024939675A022963207A022104305A023538442A026411223
2237A028931319A029953815A029535878A028709818A028468871A028691483A028482823
2230A027438164A026078293A025172227A024878436A024748548A024557420A024687123
2223A025526393A026928861A028471156A029828434A030728636A030840251A029950790
2216A028369295A027095172A027099740A028099148A028675186A027950802A026725510
2209A026547902A027665530A028843101A029155166A029025401A029364999A030202170
2202A030722956A030450093A029803617A029505999A029707004A029855782A029453463
2195A028812667A028781553A029568226A030404287A030612885A030370333A030157228
2188A030020550A029798617A029614650A029746081A030246125A030874142A031276400
2181A031236952A030899453A030741353A031204171A032254016A033345160A033931939
2174A033838845A033026799A031522347A029870537A028984040A029105655A029630516
2167A030085123A030470959A030778825A030858400A030675730A030351257A030073826
2160A030049997A030356073A030831114A031205097A031273313A030899206A029958322
2153A028469797A026879350A025920255A025879819A026244048A026312141A025956863
2146A025679987A026000632A026870152A027805604A028495664A028920886A028967557
2139A028518197A027875548A027517863A027529839A027668617A027762390A027808999
2132A027915613A028208972A028623268A028877919A028801061A028593574A028669012
2125A029211961A029940172A030405768A030480590A030379223A030334034A030442315
2118A030660420A030766417A030513370A029931406A029328699A029002375A029074109
2111A029472477A029897206A029996967A029828619A029933752A030635418A031451847
2104A031611984A031004401A030202356A029732438A029692126A029934246A030280017
2097A030532076A030448488A029874611A028982990A028270336A028148844A028570423
2090A029126274A029446734A029460439A029361356A029354689A029425189A029412534
2083A029302401A029310673A029640084A030253965A030918282A031380915A031476726
2076A031179231A030659432A030231679A030124262A030275016A030406447A030372679
2069A030352183A030523495A030657395A030378420A029774973A029347466A029377037
2062A029730092A030226555A030814446A031371346A031666125A031633776A031493702
2055A031482035A031611367A031778974A031909109A031893922A031652667A031337516
2048A031254793A031558770A032162773A032849870A033369298A033601355A033665311
2041A033738774A033832918A033849031A033756739A033643149A033625431A033743157
2034A033983672A034349445A034709785A034722440A034260919A033767728A033767295
2027A034207704A034712871A035191185A035684993A035884949A035396635A034413710
2020A033660496A033631172A034171898A034781396A035072039A034950670A034564217
2013A034147575A033841252A033598207A033256387A032736156A032199319A031952137
2006A032140055A032591391A033033157A033400720A033821374A034329134A034733799
1999A034821461A034578724A034179800A033877614A033896875A034251103A034665398
1992A034837203A034700154A034359075A033942311A033599750A033496963A033733712
1985A034232212A034657311A034613171A034107448A033675065A033832795A034509459
1978A035170998A035439416A035462875A035620605A035922606A035975697A035603258
1971A035128340A034901962A034898937A034920976A034897888A034865354A034851402
1964A034882763A035011478A035267302A035592701A035892727A036158429A036442652
1957A036689216A036716503A036405114A035824326A035198222A034785409A034665583
1950A034635951A034475011A034219742A033972807A033642470A033170206A032732637
1943A032410264A031975720A031316094A030683817A030253780A029852695A029375555
1936A029064849A029147202A029513839A029884427A030030612A029807013A029219184
1929A028503504A027973211A027683124A027263581A026158794A024090589A021176076
1922A017533784A013035677A007700151A002150285I97415367I94344976I93254881
1915I93911358I95708552I97953932A000079364A001648513A002368946A002232761
1908A001508439A000457545I99169223I97747742I96492941I95746641I95669104
1901I96180815I96931374I97366289I97129046I96454789I96002713I96296442I97326470
1893I98574295I99453631I99885829A000399083A001579124A003536887A005924317
1886A008224209A009980596A010950927A011102978A010464218A009142498A007515752
1879A006185636A005657380A006090875A007260853A008642455A009609885A009660506
1872A008550719A006381209A003700173A001408986A000221105A000074302A000223512
1865I99946760I99026618I97607729I95890605I94025874I92079409I89996450I87737550
1857I85545816I84018090I83818628I85236962I87924973I91074198I93937719I96181185
1849I97661499I98011592I96668512I93233522I87643961I80151643I71335443I62023090
1841I53016565I44821223I37508673I30765617I24206466I17719976I11464925I05619787
1833I00219996H95058127H89654077H83601451H77161138H71397797H67575983H66411190
1825H67801435H71059434H75258195H79475599H82938246H85067381H85474948H84061368
1817H81120557H77114899H72261144H66547375H60184784H53733791H47664497H42023760
1809H36588410H31134541H25585107H20147412H15328968H11669822H09489879H08920756
1801H09998936H12591199H16387208H21118237H26723169H33197004H40311574H47562575
1793H54419097H60635749H66322355H71708194H76885620H81803579H86399473H90634039
1785H94461285H97901276I01144521I04474194I08007526I11517955I14550996I16748224
1777I18058709I18674195I18847913I18757473I18370588I17385687I15448667I12502485
1769I08887541I05219629I02327834I01155942I02382283I05983955I11217064I17018124
1761I22359515I26341281I28307625I28089829I26005265I22532061I18103219I13260328
1753I08837660I05786653I04695879I05496134I07721390I10920557I14542539I17587063
1745I18841246I17561752I13819513I08495222I03260569I00237467I01088282I06199158
1737I14665327I24947889I35580851I45575054I54495521I62269346I68914492I74454912
1729I79025557I82866076I86145497I88897157I91164761I93091534I94814153I96376326
1721I97785276I99078289A000284382A001364229A002234428A002861396A003327610
1714A003787711A004337883A004939417A005497922A005985310A006425163A006796554
1707A007060033A007259310A007494454A007802197A008144140A008502381A008920195
1700A009433018A009983744A010476442A010926666A011468874A012167021A012925605
1693A013634062A014272574A014819350A015210989A015494656A015890678A016569564
1686A017430812A018220140A018804018A019197200A019391538A019333200A019045521
1679A018640485A018249525A017991417A017910175A017906533A017858565A017802943
1672A017864183A018070497A018387006A018816550A019327644A019801327A020147098
1665A020362302A020465212A020505401A020624979A020970256A021542219A022206722
1658A022810786A023256813A023546653A023775624A024012681A024180165A024140532
1651A023925637A023781365A023914031A024241899A024488957A024505008A024398270
1644A024364687A024477783A024661750A024806207A024898808A025051722A025361132
1637A025753203A026019893A025990384A025644428A025092034A024475746A023887979
1630A023384725A023046980A022936909A022979999A022983024A022814244A022527922
1623A022266480A022074797A021879409A021651797A021489931A021521045A021790389
1616A022248268A022789612A023354661A023988420A024676072A025164757A025212539
1609A025026226A025128210A025700976A026373874A026757488A026878856A026927071
1602A026905093A026763414A026636737A026725695A027098505A027665283A028198231
1595A028415040A028236012A027901415A027703558A027662937A027577312A027332476
1588A027035166A026800640A026592474A026415977A026433324A026670135A026878301
1581A026898920A026871325A026957567A027158696A027442301A027807024A028263915
1574A028873289A029674347A030548682A031288808A031741193A031806137A031499382
1567A031105644A031038292A031422585A031946088A032192035A032063073A031860092
1560A031922382A032196541A032297044A032044923A031734526A031752614A032140672
1553A032640592A032966238A032954694A032643432A032267720A032092150A032232347
1546A032620467A033046430A033303304A033380719A033404054A033361458A033168540
1539A032984635A033094768A033414178A033495235A033134833A032637629A032341739
1532A032153143A031732612A030986745A030146795A029387161A028634256A027894007
1525A027510208A027796776A028577338A029376666A029881031A030007339A029854177
1518A029862573A030605230A032086717A033584008A034416488A034531189A034257708
1511A033990216A034170108A034969314A035892110A036239298A036018170A035856548
1504A036029406A036090522A035596467A034869799A034755406A035612086A036822558
1497A037507065A037441627A036990847A036523276A036232386A036189173A036250163
1490A036168554A035956804A035946064A036389190A037139255A037772891A037972414
1483A037723751A037215311A036694649A036432280A036644274A037316799A038091931
1476A038501349A038492089A038561231A039114489A039931844A040535968A040736852
1469A040562269A040089759A039555514A039217828A039028926A038796684A038601849
1462A038717664A039192150A039794548A040325459A040722407A040864765A040591284
1455A040017037A039502918A039185606A038906196A038655190A038637410A038855081
1448A039070782A039219927A039490695A039948142A040333114A040344593A040027282
1441A039739729A039723431A039868996A039970119A040014444A040068399A040058151
1434A039888751A039664781A039560821A039539217A039443530A039332409A039460198
1427A039906039A040452257A040876985A041183928A041482099A041784967A042048818
1420A042343412A042851231A043734644A045109208A047026782A049273395A051379754
1413A053194600A055226138A057920817A060873046A063303631A065069337A066693308
1406A068565939A070433881A071608674A071518049A070017795A067300028A063737372
1399A059772459A055958423A053141879A052175255A053315848A056069542A059358099
1392A061951167A063293750A063799229A064115430A064415332A064431630A064036904
1385A063435000A062624928A061246784A059305752A057506088A056472049A056104237
1378A055877182A055423562A054754368A054019119A053211518A052264028A051249616
1371A050245581A049170673A047977233A046869238A046145345A045906932A045977802
1364A046044351A045907673A045638760A045418123A045238849A044962405A044698432
1357A044812513A045385652A045994223A046278569A046357465A046403395A046282273
1350A045943849A045702096A045843223A046316968A046903068A047368663A047528184
1343A047378295A047066416A046703048A046339933A046008666A045692345A045431582
1336A045447012A045951871A046834417A047633625A047980322A048122557A048707422
1329A049834187A050770935A050886131A050345463A049648616A048952012A048080331
1322A047061971A046463153A046883807A048148729A049523666A050744266A052166859
1315A053916638A055576168A056767383A057484235A057813400A057805498A057720676
1308A057928716A058344431A058474073A058262201A058176024A058148861A057433984
1301A055982747A054988460A055480601A057128896A058808795A059625777A059140059
1294A057477198A055580981A054614847A054897094A055909034A057123463A058193183
1287A058710145A058519881A058038108A057827722A057975883A058014035A057392005
1280A056130661A055032291A055097729A056578104A058480986A059310564A058615936
1273A057379659A056632310A056535758A057111978A058515436A060219412A061278022
1266A061692133A062344412A063531922A064574235A064826109A064306434A063356598
1259A062139332A060695994A059277355A058314555A058009590A058023786A057555600
1252A055931137A053553153A052058578A052825435A055352692A057669684A058374683
1245A057792657A057163714A057261377A057920693A058421104A058076383A056777014
1238A055198852A054308401A054440267A054969943A055125882A054894010A054724489
1231A054616329A054113445A053093113A052023637A051378763A051113064A050832916
1224A050406336A050160759A050308793A050543261A050586598A050725005A051360122
1217A052405149A053442155A054173451A054571636A054813506A055039085A055030565
1210A054333221A052884573A051352714A050626602A050996881A051953878A052764936
1203A053128548A053259300A053488332A053918491A054397668A054593243A053984301
1196A052193158A049885179A048899906A050445845A053383015A055327258A055324788
1189A054535584A054389769A055109461A056083003A056747875A056956165A057172604
1182A058253932A060378929A062600607A064138889A065436903A067147792A068833739
1175A069630971A069511822A069068453A068621254A068155041A067695124A067485600
1168A068042191A069522320A070787368A070111384A067426953A064776475A063943193
1161A064481635A064628311A063724532A062858530A063245848A064855862A066775535
1154A068251098A068883869A068370488A066759237A064761782A063472781A063701690
1147A065296273A067100875A068022681A068188624A068464450A068972269A069251679
1140A069650476A070894538A072593328A073631073A073741823A073515507A073289065
1133A072849276A071919566A070721807A069977298A069794196A069048575A067017658
1126A064928340A064539788A065839037A067391638A068001447A067286197A065575186
1119A063681932A062527637A062681228A063866146A064941428A064800304A063341659
1112A061391860A059695786A058267758A056945670A056143008A056310553A057103585
1105A057847601A058140836A057747839A056634038A055176007A053906146A053105333
1098A052560474A051489516A049393652A047299522A046941096A048301091A049761465
1091A050614132A051730402A053664274A055497890A055927060A054756591A053219050
1084A052649123A053142006A053852438A053954913A053130891A051660889A050084950
1077A048764708A047999210A048113297A048825704A049113631A048471600A047962296
1070A049214133A052253657A055502579A057587207A058219114A057906985A057448800
1063A057497447A058057248A058463827A057945634A055945333A052259213A047845125
1056A045317992A046490810A049868635A052849879A054255066A054391497A054146538
1049A054180982A054679300A055407632A055881010A055722845A054864375A053378076
1042A051344192A048881265A046440188A045377133A046912819A049892958A052153031
1035A052963966A053027922A053199665A053348444A052452934A049944194A047106789
1028A046052374A046675885A047566089A048745697A050747723A052776419A053717365
1021A053568460A053108423A052754688A052037959A050351640A048117739A046728855
1014A046915785A047916613A048442088A047504355A044857458A041531119A039383154
1007A039208201A039893693A039766642A037862899A034719847A032954879A034715896
1000A038279228A040647089A040786116A039616508A038325285A037252966A036659337
993A036791815A036755392A035052160A031067431A025751166A021913733A021988061
986A024970974A028534247A031134782A031516914A029038798A025028881A022075414
979A020551578A018902854A016700687A014084595A009862623A002371230I92020330
972I82609202I77245525I74398488I71271672I66897094I61192524I53864911
965I45588882I37536762I27814187I11054951H84675434H56136222H30669006
958H04399745G75505811G45358188G13498688F79199839F45429802F15245817
951E86941935E57337692E30551720E15965018E12930804E15363608E20876495
944E29369333E41671700E60827811E88638564F20117599F51011584F85332224
937G25300517G61848080G91834639H20844324H46827573H64922234H76304150
930H84031921H89504558H92575627H93016036H93598679H99277754I08481147
923I17009420I23606722I28528262I32887345I37786351I42287607I45085814
916I48029403I54443295I62868657I69004623I71320010I71421932I72492828
909I75223004I77008468I75631126I70073111I59659057I48636369I45470230
902I45165388I39973702I28954040I17664786I10539968I03639615H92455185
895H75966034H54395268H25911000G89998245G58616934G42479481G34407174
888G25257612G12286236F97757318F83481199F65695886F39305318F07701334
881E78910495E52541596E22363847D89966645D67664797D59834949D62213027
874D72137964D88421665E08708029E29637995E48598660E64820442E79114834
867E92995733F08126062F25888781F46749546F69664874F91963604G10280321
860G22213396G27713813G29656637G32677887G40175268G51764301G63593664
853G71364216G73125234G69984467G67318679G72659082G85110166G98970199
846H13700740H31622793H51385500H69092905H83701954H95099921I01925577
839I02998633I01014695I06205579I19593040I31976525I41264617I47961187
832I52735739I56757755I60129900I61182585I58644463I53390302I47791296
825I45648393I53025517I67225394I78198695I83231170I85010893I87622663
818I91805558I94435293I93680227I90655026I87530494I84478315I80661934
811I77738717I77635621I78762756I80070339I82555741I85163684I84586473
804I78703121I67049700I48504383I22539346H96867791H75186337H48996465
797H12276603G65564267G16201454F77675138F61651460F65340423F78319824
790F96517827G22991118G59818335H00626886H36934428H65374310H86352308
783I01300708I10539968I12850848I06843350H91892914H67882059H36498711
776H05231484G81382866G62353000G41381422G14847323F86306507F64438369
769F52108469F44829688F37102225F26686072F19239128F20884765F30227553
762F45583519F66738261F93455215G24331852G55966765G85217706H10943710
755H31486732H43274856H41842571H23292562G93035917G70319681G63699414
748G63262092G57188477G41987771G24991169G16636121G22463480G40160822
741G61566203G81987178H04812374H33219598H61692076H83955618H98569174
734I05740230I05959384I00260617H90760778H81638009H78803873H85303143
727H97463151I09624456I19165657I26033045I30950942I34814303I38190522
720I40188721I38734273I31787743I18187053H99189660H78130358H56584471
713H33930278H10579789G89081684G72159100G60730637G53691444G48199979
706G40199344G26205781G05676772F83082893F66484226F61660905F70411790
699F92513158G23737788G56625156G86672524H13313422H37109628H58374133
692H76911054H92223128I03944456I11986329I16646302I18936378I20324647
685I21816567I23893599I27432920I33436714I41301781I48883922I54403847
678I57266256I57742038I56501560I54243339I51456121I48334059I44771465
671I40422013I34900545I28177305I20825801I13577516I06630184H99900894
664H93760422H88796410H84839522H80541309H73816835H63163068H49547439
657H36757190H28716614H26291094H27693439H31943562H39939072H50983552
650H60205033H62004264H56089490H48798794H48258561H58549889H77950775
643I01309412I23344539I40807602I53117624I61494093I67423683I71734552
636I74622458I76034741I75858306I73775532I69126239I61309386I50601849
629I38340844I25763145I12010713H92823488H62306080H18293979G66572380
622G18037292F80099609F51153757F23792919E92531063E58557058E28978987
615E12592225E15127199E36531191E71422436F11635874F49354217F80120104
608G04416045G26185594G49055547G73580212G97680148H18967865H36328881
601H49884814H60266767H68153934H74208782H79085441H83271917H86757158
594H88712328H87348197H79645490H60629638H23685436G64718144F89088169
587F13929777E60230290E40007913E50429993E79499497F15720859F52093715
580F84020937G07711147G22398166G32775241G46915484G70245662H01067480
573H31873185H54492931H63581067H56180300H30027098G84205951G22544104
566F55842683E98498126E61022766E45678715E48466612E62744212E80180235
559E91268237E88930380E73143882E51254941E32959521E24698865E27878830
552E40519439E59458185E81657401F04794661F27278963F47651538F64010431
545F74678520F80283760F84985898F94297758G10796909G32111295G53064352
538G69432073G80155537G87124662G93374403H01050133H10231425H18864522
531H23346394H19063984H00510827G62093410G01543326F24685713E46249691
524D83676622D48253046D40774402D54036636D78764899E08372321E39869814
517E71753885F02267096F29828136F54009993F75321724F94348997G11404987
510G26745951G40796433G54012274G66583800G78489713G89766064H00448105
503H10441938H19786640H28814524H37763142H46433403H54347486H61021956
496H65990104H68592862H67636606H61268088H47665362H26535005H00164562
489G72625684G47654499G27282294G11627290F98637148F84592839F67031620
482F47569803F30351700F17662139F08697223F02828009F02218141F10144756
475F27580162F52052600F78833449G02056149G15206984G12648737F92864423
468F61013071F27431137F02293394E90828940E92611626F03937303F20335334
461F37895751F53881278F67240156F78777024F90370934G03567144G18722846
454G35142299G51662440G67208670G80976658G91906251G97839051G95680283
447G83668065G64738084G47266194G40525237G48056880G65450554G84107980
440G96265148G97357219G86446393G66621767G44988773G30457447G29330559
433G41871033G63006946G86319036H07557242H25412932H40278670H52801981
426H63191466H71092091H75821947H77313188H77266147H78696704H83528050
419H90959746H98693999I05230803I10464468I14606618I16760324I13852108
412I01730189H79826370H54955626H37652639H33486535H39258272H47545722
405H53356474H56710470H60085455H63140350H60075022H44324515H17144805
398G90088932G76942665G82805150H01604564H23642345H43631616H61055724
391H75520810H84521655H85387903H78030349H65839350H53920906H45454922
384H39582683H33811687H28554563H28064520H36310670H52755681H72746803
377H91094264I04270472I09971524I06766121H95740532H82199045H73986911
370H76440335H88643125I04954544I19773796I30444601I36781511I39634969
363I40318917I40537455I42001656I45727104I51597306I58596002I65487712
356I71430019I76160184I79725556I82139099I83298892I83027325I81236613
349I78474213I76143701I75374807I75535994I74567329I71095114I65952629
342I61590460I60133234I61820356I64952604I67120262I66536137I62398246
335I53986526I39246664I14434937H76115368H24930729G68251291G18502271
328F87174175F78946422F90630834G14764292G43882689G72516971G96166127
321H08356509H00246421G66886543G15055798F61903766F24238143F10412928
314F20658758F49627204F87834603G25551773G57636664G83738565H05034121
307H22543361H37340821H50527833H62866499H74534181H85162513H94403749
300I02214120I08097719I10128760I04774899H88918334H64938655H43849597
293H39112580H55096996H83771775I13112229I36189175I52300330I63005151
286I69038515I69352246I61040720I40945453I10219879H78088317H58074477
279H57751363H72380352H89050444H96683763H93055175H83661951H73535452
272H59369960H30277552G77813234G05686588F28402580E60505993E10043824
265D82126395D81724261E08238883E51961422F00883518F48305114F91925885
258G29916968G59115496G74289533G71950564G57847793G44561082G37979830
251G34017263G31767623G39272041G61447366G91648389H19625206H41185477
244H57482080H70338384H80938998H89962190H97327152I02676012I06144092
237I08353667I09949114I11172369I11858910I11913051I11419119I10079434
230I06854833I00146903H88382176H71375758H51907830H35529182H27872220
223H31343448H43898861H60948616H78514466H94682292I08959275I21317141
216I31728232I40015434I45862548I48955965I49584538I48827127I46571066
209I38922747I23493132I08252547I01311326I04537841I15984948I30718576
202I44014548I54075485I60859779I64418916I63915662I56690527I39515638
195I13421268H87073235H72115575H74029631H88757209I07732872I24257829
188I35088401I39292655I38183361I35567763I35976317I41600572I51096707
181I61421309I70501914I78033989I84325216I89246631I92351963I92940533
174I89059208I77552404I58036694I37197473I25538496I28378064I41694469
167I56971477I67993980I72284230I69537509I61883201I53727059I48174231
160I44406804I40870200I39544838I43996027I54313283I66700102I77577406
153I85966161I92182196I96485656I99205461A000814552A001535417A001324534
146A000218450I98289147I95125723I89513321I80022310I66578178I52042160
139I41936466I40892054I48582352I60195523I70371224I75451480I72997872
132I60967257I38628523I09155465H80298942H59923342H50629570H50398748
125H57240824H70534203H88700043I08268598I25436017I37333596I42027091
118I38579322I27916295I13613384I01017596H94225215H93246982H94320903
111H92889235H86475590H76362920H67916815H67285958H76299396H92163863
104I10734244I28794334I44711954I58052250I68925172I77640622I84578633
97I90243138I95235301I99805513A003520343A005791836A006755562A007340058
90A008130373A008277361A005785848I98405268I84291262I63125099I37992913
83I14985355H98405764H86845746H74544676H56411740H33230958H11531106
76G97000151G89156505G82917876G74917056G67840823G68337225G80169427
69H00153573H22931358H45347135H65188183H80515627H90312344H93888334
62H90752259H82675260H75602360H75768918H83621577H96581902I12839613
55I29671509I43443140I52806177I59139876I63756697I66744550I68481121
48I69593131I69362988I66412175I60781130I54529969I50601479I51500569
41I57908596I67208541I74702897I77444740I76397304I74712589I73584096
34I71126845I66936048I66166352I71411499I77868913I80966405I80391972
27I80253565I85166215I95205545A005649664A011400967A010864809A005741647
20I98833762I93116474I91534114I94202063I97647301A000296729A002835592
13A004512404A002836147I96453184I86683816I76788078I70583341I69090865
6I69524854I69716167I70418759I72351828I72493198I70157563
##END=


$$ === CHEMSPECTRA PEAK TABLE EDIT ===
##TITLE=X9301
##JCAMP-DX=5.00
##DATA TYPE=INFRAREDPEAKTABLE
##DATA CLASS=PEAKTABLE
##$CSTHRESHOLD=0.93
##MAXX=3997.453
##MAXY=1.0367097882271723
##MINX=373.96442
##MINY=0.42557263502753445
##$CSSOLVENTNAME=- - -
##$CSSOLVENTVALUE=0
##$CSSOLVENTX=0
##NPOINTS=39
##PEAKTABLE= (XY..XY)
457.5398016340887, 0.8454039115945028
474.5381843393275, 0.7413589374589423
524.1168005629397, 0.8373743320703083
551.0309065129004, 0.8210695411719401
645.9385432838153, 0.8420373815204073
664.3534578811568, 0.870226206979191
689.8510319390148, 0.7993199254150306
726.6808611336978, 0.7065298577569062
746.512307623143, 0.465110183758951
767.7602860046909, 0.8281685735243065
787.5917324941356, 0.8101726192242734
818.7554341204063, 0.5893605369211814
835.7538168256447, 0.6555303950093191
898.0812200781857, 0.8438441774435106
912.246538999218, 0.7995055932245596
934.9110492728691, 0.750146868123628
950.4929000860043, 0.804740609596288
987.3227292806878, 0.7041768450966776
1001.4880482017197, 0.7149854324219115
1031.2352179358872, 0.5704519765789962
1048.2336006411256, 0.5814483780452234
1111.9775357857698, 0.42557263502753445
1157.3065563330724, 0.5066026465257539
1170.0553433620012, 0.5268589273044695
1201.219044988272, 0.521383704290363
1243.7150017513682, 0.49491354964818673
1287.6274904065672, 0.8190031665891401
1300.3762774354964, 0.7977933305059857
1365.5367444722438, 0.6388410342294631
1426.4476158326815, 0.6919202226491389
1456.194785566849, 0.5978823321394074
1495.8576785457385, 0.6388319149758958
1613.4298255903045, 0.4439758072059773
1714.0035899296322, 0.4952404514749289
2837.3133803674746, 0.8691893840552544
2852.8952311806097, 0.8734940309092212
2874.1432095621576, 0.8700761819822287
2925.1383576778735, 0.7810220740980899
2959.13512308835, 0.8365297337426637
##END=


$$ === CHEMSPECTRA PEAK TABLE AUTO ===
##TITLE=X9301
##JCAMP-DX=5.00
##DATA TYPE=INFRAREDPEAKTABLE
##DATA CLASS=PEAKTABLE
##$CSTHRESHOLD=0.93
##MAXX=3997.453
##MAXY=1.0367097882271723
##MINX=373.96442
##MINY=0.42557263502753445
##NPOINTS=61
##PEAKTABLE= (XY..XY)
3086.6229933776385, 0.9589987418578136
3066.791546888194, 0.9613297012760379
3058.2923555355746, 0.961651804511967
3000.2145479593432, 0.9498879336171925
2959.13512308835, 0.8365297337426637
2925.1383576778735, 0.7810220740980899
2874.1432095621576, 0.8700761819822287
2852.8952311806097, 0.8734940309092212
2837.3133803674746, 0.8691893840552544
1714.0035899296322, 0.4952404514749289
1613.4298255903045, 0.4439758072059773
1576.5999963956215, 0.7408548015632652
1559.6016136903827, 0.8699398064175249
1541.1866990930412, 0.9130341430729534
1519.9387207114933, 0.9439181709235238
1495.8576785457385, 0.6388319149758958
1456.194785566849, 0.5978823321394074
1426.4476158326815, 0.6919202226491389
1405.1996374511336, 0.8484950083489938
1365.5367444722438, 0.6388410342294631
1300.3762774354964, 0.7977933305059857
1287.6274904065672, 0.8190031665891401
1243.7150017513682, 0.49491354964818673
1201.219044988272, 0.521383704290363
1170.0553433620012, 0.5268589273044695
1157.3065563330724, 0.5066026465257539
1111.9775357857698, 0.42557263502753445
1048.2336006411256, 0.5814483780452234
1031.2352179358872, 0.5704519765789962
1001.4880482017197, 0.7149854324219115
987.3227292806878, 0.7041768450966776
970.3243465754495, 0.8470103166273308
950.4929000860043, 0.804740609596288
934.9110492728691, 0.750146868123628
912.246538999218, 0.7995055932245596
898.0812200781857, 0.8438441774435106
864.084454667709, 0.9417353296175827
855.5852633150898, 0.9270194197232178
835.7538168256447, 0.6555303950093191
818.7554341204063, 0.5893605369211814
787.5917324941356, 0.8101726192242734
767.7602860046909, 0.8281685735243065
746.512307623143, 0.465110183758951
726.6808611336978, 0.7065298577569062
689.8510319390148, 0.7993199254150306
664.3534578811568, 0.870226206979191
645.9385432838153, 0.8420373815204073
634.6062881469898, 0.9033011816024785
613.3583097654414, 0.8936178116853101
596.3599270602031, 0.9071410921775307
568.0292892181387, 0.9084418443547664
551.0309065129004, 0.8210695411719401
532.6159919155589, 0.8624399922846079
524.1168005629397, 0.8373743320703083
474.5381843393275, 0.7413589374589423
457.5398016340887, 0.8454039115945028
433.4587594683344, 0.9178164032291092
417.87690865519926, 0.9328444629041329
410.79424919468283, 0.946445825255035
398.0454621657541, 0.9573373219951002
382.46361135261895, 0.935668113047914
##END=

##END=

