##TITLE=LSH-R212A
##JCAMP-DX=4.24
##DATA TYPE=INFRARED SPECTRUM
##DATE=13/10/2020
##SAMPLING PROCEDURE=Diamant-ATR
##ORIGIN=Angelika Moesle
##XUNITS=1/CM
##YUNITS=TRANSMITTANCE
##RESOLUTION=4
##FIRSTX=3997.453
##LASTX=373.96442
##DELTAX=-1.4165319
##MAXY=0.79000264
##MINY=0.35407442
##XFACTOR=1
##YFACTOR=7.357473e-010
##NPOINTS=2559
##FIRSTY=0.75899422
##XYDATA=(X++(Y..Y))
3997+1031596344+1031595453+1031453114+1030993612+1030365118+1030092025
3989+1030433330+1030922402+1030846250+1030071934+1029145071+1028630723
3980+1028590622+1028732313+1028828556+1028836900+1028791452+1028784566
3972+1028938084+1029203805+1029355460+1029345982+1029466690+1029932673
3963+1030537917+1030906766+1030909602+1030674504+1030354181+1030110820
3955+1030162425+1030576884+1031066847+1031179535+1030764104+1030221726
3946+1030093888+1030331497+1030305330+1029723175+1029131947+1029004920
3938+1029004190+1028668799+1028094340+1027658575+1027632165+1028066715
3929+1028583736+1028604232+1028033743+1027305604+1026754071+1026446062
3921+1026561586+1027237796+1028069389+1028488142+1028635827+1029045750
3912+1029697170+1030118840+1030160561+1030186485+1030486150+1030840579
3904+1030808498+1030334495+1029779884+1029414761+1029309850+1029463045
3895+1029793008+1030142982+1030343568+1030351913+1030336844+1030411700
3887+1030377350+1029949119+1029242853+1028614197+1028038118+1027513401
3878+1027619446+1028644739+1029902699+1030499841+1030460226+1030562302
3870+1031022776+1031389924+1031485357+1031347555+1030840255+1030041716
3861+1029383409+1029075805+1029032869+1029181689+1029373526+1029050044
3853+1027769076+1026744512+1027085898+1028181429+1029092413+1029336503
3844+1028976889+1028426653+1028190826+1028599696+1029396614+1029645890
3836+1028840626+1027729542+1027337685+1027977764+1029125790+1029928785
3827+1029905696+1029370853+1029166944+1029622153+1030029240+1029606194
3819+1028862095+1028484820+1028219829+1027895050+1027941794+1028542744
3810+1029422944+1030229503+1030644205+1030653360+1030699780+1030812387
3802+1030201716+1028614440+1027366768+1027433765+1028525974+1029925058
3793+1030944356+1031167950+1030715010+1030213381+1030162749+1030391123
3785+1030417695+1030079954+1029547136+1029070540+1028993821+1029518457
3776+1030361391+1031168031+1031864738+1032213901+1031604445+1030009635
3768+1028632344+1028410046+1028900738+1029258164+1029268372+1029137456
3759+1028972677+1028834064+1029001355+1029734112+1030801936+1031426218
3751+1030994341+1030202283+1030080278+1030316834+1030047063+1029115988
3742+1028635584+1029514001+1031374370+1033036906+1033135336+1031425570
3734+1029460209+1028463676+1028097419+1027833724+1027561927+1027325290
3725+1027252136+1027438059+1027749795+1028075140+1028578875+1029325162
3717+1029951387+1030035964+1029558477+1028900495+1028514633+1028496081
3708+1028660293+1028990337+1029525910+1030197665+1030951080+1031698257
3700+1032052120+1031624212+1030629461+1029763682+1029480543+1029578244
3691+1029490751+1028847918+1028010331+1027865642+1028658592+1029828654
3683+1030728782+1031137166+1031411555+1032003674+1032625282+1032250600
3674+1030859617+1029984926+1030059701+1030184703+1029965808+1030094860
3666+1030846979+1031753508+1032385972+1032635490+1032630062+1032628280
3657+1032858760+1033289260+1033625137+1033611932+1033042253+1031625670
3649+1029578730+1028219180+1028526136+1030130911+1032010884+1033167417
3640+1033283184+1032868643+1032439278+1031986256+1031508931+1031429539
3632+1032097000+1033098557+1033192855+1031761042+1030213624+1029753798
3623+1030233959+1031192416+1032274499+1033036096+1033110627+1032652907
3615+1031971188+1031195171+1030554200+1030272925+1030215407+1030197827
3606+1030396226+1030998715+1031840839+1032579348+1032903641+1032666355
3598+1031958874+1031035738+1030221240+1029810183+1029869565+1030287994
3589+1031002199+1031841649+1032210904+1031729933+1030958371+1030628246
3581+1030788731+1030872903+1030498059+1030008906+1029980714+1030496763
3572+1031170867+1031577306+1031393408+1030435760+1029012211+1027942928
3564+1027666352+1027993075+1028624809+1029320787+1029905291+1030307194
3555+1030459902+1030208035+1029516918+1028750460+1028451686+1028796556
3547+1029467743+1029992056+1030102799+1029756958+1029065355+1028377641
3538+1028081378+1028165469+1028323443+1028525893+1028996413+1029657879
3530+1030112602+1030104825+1029671652+1028927310+1028012680+1027207093
3521+1026827955+1026976126+1027429148+1027833724+1028094583+1028483281
3513+1029153658+1029716937+1029675945+1029190519+1028911431+1029057497
3504+1029202590+1028949669+1028444395+1028131525+1028248912+1028681437
3496+1029130813+1029432341+1029686234+1029918172+1029792603+1029007188
3488+1027897318+1027255295+1027461634+1028117510+1028607554+1028776708
3479+1028863310+1028975350+1029013507+1028981345+1029013831+1029135917
3471+1029220332+1029191896+1029149203+1029207775+1029253385+1029070378
3462+1028795908+1028845487+1029166134+1029105456+1028415311+1027827891
3454+1028111272+1028996251+1029647429+1029808238+1029767570+1029480786
3445+1028653326+1027648772+1027323183+1027867587+1028588435+1028955745
3437+1029170347+1029492290+1029634062+1029206559+1028433944+1027956214
3428+1027981328+1028080811+1027910442+1027749957+1028116538+1029050287
3420+1030025109+1030546909+1030543264+1030107174+1029338772+1028662156
3411+1028720809+1029536766+1030259964+1030137392+1029311146+1028446339
3403+1028015596+1028100659+1028478663+1028744951+1028610308+1028174219
3394+1027768347+1027580884+1027585178+1027723871+1027947789+1028142705
3386+1028199332+1028121804+1027975333+1027819384+1027713177+1027676884
3377+1027720792+1027962371+1028489681+1029088362+1029377901+1029237425
3369+1028892798+1028612334+1028423575+1028120345+1027642291+1027341978
3360+1027529117+1027881926+1027835425+1027446970+1027307305+1027683122
3352+1028308699+1028945051+1029587885+1030095670+1030110658+1029571601
3343+1028958500+1028721052+1028749488+1028754024+1028808141+1029053770
3335+1029193435+1028847107+1028223312+1027935799+1028258147+1028888019
3326+1029353840+1029439794+1029266671+1029107076+1029110398+1029205749
3318+1029286762+1029399288+1029620452+1029817555+1029693039+1029100838
3309+1028240325+1027519152+1027274738+1027614666+1028426167+1029411845
3301+1030135934+1030240602+1029780046+1029220575+1028945294+1028891097
3292+1028831634+1028810328+1029001841+1029318032+1029508169+1029561718
3284+1029693201+1029996754+1030363821+1030694514+1031020994+1031433752
3275+1031896657+1032133456+1031862064+1031194036+1030560681+1030169797
3267+1029817555+1029364858+1029119390+1029465961+1030250728+1030860022
3258+1030932123+1030686332+1030472702+1030362606+1030306546+1030324611
3250+1030401411+1030510292+1030738666+1031066280+1031139515+1030692489
3241+1030091782+1030032724+1030710716+1031600800+1032076828+1032001163
3233+1031648597+1031327140+1031211697+1031353469+1031671685+1031981558
3224+1032058033+1031706521+1030923617+1030034182+1029482083+1029429262
3216+1029709241+1030141685+1030683091+1031250178+1031649245+1031807381
3207+1031890176+1032049851+1032216980+1032258863+1032115390+1031715189
3199+1031040437+1030325503+1029910233+1029881474+1030047630+1030204389
3190+1030302738+1030431386+1030663324+1030917541+1031100224+1031351605
3182+1031888393+1032595470+1033054972+1033022405+1032656310+1032203775
3173+1031706359+1031179697+1030855405+1030936579+1031235110+1031353793
3165+1031145996+1030779172+1030539132+1030715739+1031345935+1031955634
3156+1031957173+1031386846+1030861480+1030791729+1031039465+1031312071
3148+1031491433+1031538177+1031385388+1031063849+1030810686+1030951404
3139+1031599908+1032426316+1032833160+1032511136+1031750510+1031053075
3131+1030552661+1030045362+1029482731+1029122631+1029153496+1029364291
3122+1029329455+1028893771+1028364922+1028197307+1028577903+1029380979
3114+1030377512+1031355575+1032141800+1032696249+1033175113+1033742443
3105+1034269267+1034299727+1033432814+1031820748+1030250890+1029568037
3097+1029947256+1030859860+1031768657+1032511217+1032802942+1031799523
3088+1028564455+1022890186+1015652944+1008650719+1003926806+1002660420
3080+1004479716+1007952474+1011587742+1014271683+1015199275+1013829112
3071+1009765207+1002378497+990821999+975250608+958409834+945230415+939768236
3061+942296471+949445166+956863794+961956233+964904841+967603201+971667998
3051+977290176+983511117+989108425+993170710+995085600+994461481+991615273
3041+988072601+985856669+985998117+988045300+990928450+993851215+996432674
3031+998392040+999148614+997782908+993755134+987791812+981781341+977593568
3021+976006616+976610401+978449139+980684595+982826320+984668703+986312121
3012+988125907+990319804+992524637+994110697+994917905+995399361+996043329
3002+996884885+997664225+998288749+998933770+999696663+1000434524+1001072821
2992+1001809061+1002783964+1003752467+1004275969+1004165226+1003647637
2983+1003124702+1002881827+1003070262+1003736589+1004648707+1005374903
2975+1005774051+1006074850+1006369978+1006516205+1006513937+1006420853
2966+1006008905+1005085850+1004018188+1003439355+1003501815+1003729379
2958+1003604215+1003103882+1002573332+1002247581+1002139187+1002269779
2949+1002678324+1003254079+1003806827+1004234248+1004467078+1004363949
2941+1003818006+1002912693+1001876869+1000899130+1000056439+999380310+998894803
2931+998604292+998489174+998484394+998513234+998610125+998853648+999121475
2921+999218609+999279855+999606253+1000102697+1000413137+1000603597+1001164932
2911+1002265890+1003434251+1004116294+1004300597+1004441235+1004881780
2902+1005541788+1006145087+1006584498+1007000659+1007597153+1008406953
2894+1009223639+1009789430+1010060983+1010222036+1010447250+1010755502
2885+1011087815+1011373303+1011458933+1011139096+1010380820+1009428357
2877+1008587773+1008005051+1007704090+1007692262+1007929223+1008286488
2868+1008630871+1008909311+1009123913+1009278079+1009381127+1009443345
2860+1009406160+1009108277+1008429151+1007523594+1006850948+1006845520
2851+1007504799+1008404280+1009187913+1009903576+1010740029+1011610588
2843+1012226444+1012492570+1012603881+1012732366+1012802928+1012684650
2834+1012496944+1012565805+1013047829+1013692768+1014091916+1014161911
2826+1014225830+1014524442+1014867691+1014974060+1014906820+1014890699
2817+1014918648+1014804825+1014445373+1013886145+1013317276+1013028224
2809+1013171697+1013603412+1014074904+1014441485+1014608208+1014516259
2800+1014315187+1014334792+1014736451+1015310100+1015697501+1015746594
2792+1015592590+1015472286+1015531425+1015775192+1016083201+1016247413
2783+1016098674+1015668579+1015149371+1014648471+1014134124+1013659715
2775+1013375362+1013217064+1012930604+1012547091+1012450929+1012802037
2766+1013270613+1013536414+1013689852+1013965213+1014402761+1014937686
2758+1015560833+1016232507+1016805102+1017135228+1017169091+1016916737
2749+1016486562+1016136588+1016119413+1016439088+1016847391+1017126478
2741+1017294336+1017488442+1017702557+1017754648+1017533242+1017159936
2732+1016835725+1016584343+1016246441+1015761825+1015361461+1015359112
2724+1015790908+1016384729+1016834105+1016978793+1016783472+1016296263
2715+1015653673+1015107164+1014960693+1015310019+1015863090+1016226188
2707+1016341387+1016456830+1016748151+1017113678+1017246458+1016878580
2698+1016100294+1015401563+1015239214+1015619324+1016179930+1016563442
2690+1016672809+1016674105+1016758925+1016896565+1016918277+1016816039
2681+1016748718+1016753173+1016669244+1016363666+1015854584+1015258171
2673+1014759458+1014529950+1014546720+1014647823+1014798668+1015076541
2664+1015394272+1015524944+1015394028+1015126850+1014867367+1014715712
2656+1014743013+1014944329+1015229492+1015471071+1015541957+1015411770
2647+1015243426+1015254039+1015460621+1015690210+1015814726+1015870624
2639+1015994006+1016307929+1016812798+1017357526+1017798152+1018149179
2630+1018475092+1018745592+1018954766+1019226481+1019592171+1019838368
2622+1019842338+1019893456+1020374589+1021214120+1021936589+1022248568
2614+1022305033+1022342218+1022323504+1022112224+1021757227+1021414140
2605+1021156683+1020984936+1020881646+1020831661+1020893635+1021156521
2597+1021531041+1021761521+1021729278+1021548540+1021282738+1020785241
2588+1019977871+1019143120+1018700387+1018712458+1018831465+1018776296
2580+1018672600+1018871323+1019556202+1020550224+1021463152+1022018006
2571+1022225560+1022264284+1022255616+1022143981+1021817744+1021404094
2563+1021264834+1021498636+1021743779+1021748883+1021762412+1022004234
2554+1022180679+1021932619+1021433259+1021175964+1021338069+1021663577
2546+1021924518+1022242573+1022859077+1023770871+1024736701+1025486228
2537+1025770176+1025413235+1024553127+1023729474+1023492918+1023888582
2529+1024429016+1024586828+1024205098+1023463915+1022729214+1022515746
2520+1023184180+1024393857+1025194988+1024983222+1024061868+1023060879
2512+1022263312+1021715992+1021462504+1021389917+1021292135+1021282009
2503+1021732033+1022718439+1023849777+1024644185+1024840478+1024434687
2495+1023609414+1022624708+1021744833+1021201806+1021041483+1021071215
2486+1021183336+1021505522+1021975394+1022185459+1021945014+1021521481
2478+1021127923+1020745869+1020563510+1020967681+1022008447+1023325789
2469+1024544621+1025402542+1025700424+1025419230+1024735162+1023847023
2461+1023015674+1022701832+1023260898+1024451375+1025585387+1026218175
2452+1026381495+1026175157+1025572668+1024715314+1023893443+1023162954
2444+1022468597+1022067829+1022249945+1022772232+1023116291+1023112808
2435+1022952889+1022887188+1023111836+1023610467+1024075154+1024247872
2427+1024186465+1024095326+1024171316+1024574271+1025218563+1025727239
2418+1025840252+1025638450+1025292851+1024931374+1024747962+1024832620
2410+1024905531+1024584236+1023933706+1023468695+1023571986+1024169614
2401+1024995617+1025862773+1026547247+1026695743+1026123309+1025128882
2393+1024341036+1024187437+1024527932+1024848822+1024788873+1024371416
2384+1023810081+1023364027+1023351875+1023981017+1025040740+1025940707
2376+1026158873+1025664941+1024977146+1024757359+1025165338+1025648657
2367+1025542369+1024795192+1023885585+1023104139+1022296122+1021426454
2359+1020911701+1020993686+1021234211+1021104916+1020635530+1020158853
2350+1019915492+1020116808+1021007215+1022598217+1024365421+1025533944
2342+1025761427+1025190208+1024154465+1023224281+1023170164+1024284895
2333+1025661862+1025703017+1023718213+1020629373+1017829180+1016034269
2325+1015383416+1015761663+1016781204+1018026607+1019443352+1021095437
2316+1022687250+1023679084+1023765038+1023168949+1022554632+1022526845
2308+1023063147+1023542578+1023441961+1022853325+1022239899+1021839617
2299+1021424185+1020667206+1019713204+1019170907+1019372466+1019948302
2291+1020390791+1020679682+1021097138+1021846827+1023045972+1024628387
2282+1026213962+1027569218+1028952181+1030409917+1031210077+1030697997
2274+1029237668+1027703132+1026579328+1026062307+1026371288+1027381512
2265+1028369539+1028665316+1028350988+1027984083+1027863941+1027899344
2257+1028039495+1028425681+1029063087+1029693120+1030119083+1030311730
2248+1030119002+1029361698+1028362086+1027880306+1028240406+1028812515
2240+1028647088+1027653390+1026864491+1027103802+1027755952+1027744610
2231+1027251488+1027164156+1027438221+1027448186+1027105989+1026311987
2223+1024483780+1021824792+1019873770+1019903745+1021608165+1023615976
2214+1024711749+1024711992+1024609269+1025622085+1027907445+1030361391
2206+1031562238+1030769612+1028303676+1025329793+1023160362+1022369276
2197+1022458633+1022627787+1022806986+1023513171+1024772833+1025822429
2189+1026064170+1025888616+1026167866+1027066131+1027859161+1028031556
2180+1027825622+1027416105+1026418761+1024780691+1023456381+1023611682
2172+1025514663+1028284557+1030400196+1030689653+1029316736+1027914655
2163+1028520385+1032014854+1037101217+1040682936+1040369094+1037021743
2155+1033599699+1032069132+1032221030+1032888167+1033374242+1033393847
2146+1032731489+1031774247+1031367079+1031614734+1031832819+1031857447
2138+1032230104+1032929970+1033050597+1031908161+1029765383+1027489016
2129+1025945001+1025616414+1026406366+1027700215+1028784161+1029342012
2121+1029529232+1029518052+1029119552+1028047758+1026480007+1025055971
2112+1024216439+1023828633+1023663206+1023898304+1024756630+1025869740
2104+1026477981+1026253982+1025659270+1025507453+1026252362+1027557147
2095+1028501914+1028440101+1027671456+1027056410+1027030486+1027266394
2087+1027306738+1027245331+1027619527+1028739442+1030191913+1031024477
2078+1030487932+1028637852+1026261354+1024338768+1023381445+1023053021
2070+1022717629+1022455068+1022942277+1024354728+1026211937+1028149915
2061+1029851418+1030684144+1030449857+1029848259+1029425131+1028963360
2053+1028492921+1028875624+1030795131+1033600104+1035453587+1034804515
2044+1031819128+1028245672+1025763290+1024751769+1024835617+1025793913
2036+1027367983+1029050368+1030670615+1032473384+1034383332+1036104197
2027+1037913609+1040238988+1042417087+1042968134+1041318721+1038584067
2019+1036466160+1035703348+1035572108+1034971158+1033873197+1033414991
2010+1034598663+1037034381+1039004603+1039117777+1037794521+1036422171
2002+1035447025+1034160791+1032119360+1029928461+1028534319+1028342238
1993+1029087876+1030036126+1030282728+1029483460+1028290228+1027420560
1985+1026289708+1023505070+1019240011+1016327615+1017930769+1023706628
1976+1029343389+1031507068+1031390248+1031554136+1032035026+1031467453
1968+1029816178+1027981004+1026000008+1023372614+1020346559+1018067842
1959+1017741686+1019568759+1022346106+1024295183+1024424236+1023221607
1951+1022193560+1022629488+1024554828+1026935215+1028923016+1030531517
1942+1032027087+1033124480+1033261959+1032419592+1031102735+1029576624
1934+1027776448+1026170539+1025755675+1026803246+1028485711+1029939803
1925+1030865045+1031121287+1030665106+1029871023+1029209719+1028765204
1917+1028415473+1028254259+1028511554+1029210124+1030100531+1030884164
1908+1031382228+1031535990+1031490056+1031657913+1032290215+1032942284
1900+1032850983+1031963816+1031129875+1031086452+1031571878+1031745893
1891+1031200841+1030235660+1029346063+1028643037+1027899587+1026993301
1883+1026055259+1025279484+1024733785+1024336743+1023969595+1023675520
1874+1023734497+1024416783+1025675959+1027063944+1027964802+1028236274
1866+1028393438+1028876191+1029645079+1030452368+1031166654+1031717538
1857+1031859391+1031258198+1029872967+1028081540+1026267916+1024408439
1849+1022271494+1019788140+1017010226+1014179410+1012007225+1011041152
1840+1011060190+1011527145+1011812876+1011091056+1008811448+1005444249
1832+1002500988+1001748869+1003692680+1007099494+1010678459+1013878449
1823+1016439979+1018307639+1019683067+1020847296+1021970371+1023028636
1815+1023936137+1024677643+1025218563+1025495139+1025602156+1025693862
1806+1025704394+1025478288+1025055242+1024612590+1024221057+1023822557
1798+1023415389+1023136949+1023206539+1023798335+1024774210+1025619250
1789+1025994985+1025975380+1025749437+1025470997+1025230715+1025052244
1781+1024982331+1025117864+1025445073+1025795371+1026084585+1026475956
1772+1027135073+1027855111+1028359494+1028681032+1028922692+1029031735
1764+1028836009+1028262360+1027618636+1027236824+1026794659+1025691594
1755+1023996977+1022365873+1021241422+1020788400+1021110181+1022070259
1747+1023286174+1024379598+1024994968+1024809936+1023744542+1022261611
1738+1021198323+1021085635+1021981227+1023421546+1024405765+1024555557
1730+1024284166+1024023954+1024022253+1024292429+1024691820+1025114462
1721+1025563756+1026052828+1026523915+1026910101+1027273199+1027681744
1713+1028070523+1028364598+1028533184+1028506693+1028207353+1027801562
1704+1027657603+1027845632+1028063637+1028072872+1028114269+1028475585
1696+1028958581+1029240180+1029359835+1029521374+1029763520+1030002182
1687+1030179680+1030173442+1029695469+1028850996+1028205408+1027892782
1679+1027740721+1027538757+1027061919+1026237050+1025167444+1023710598
1670+1021492965+1018767465+1016490855+1015003549+1014113952+1013903968
1662+1014568998+1015742868+1016773750+1017383693+1017668937+1017806496
1653+1017942840+1018290221+1018975100+1020033608+1021432692+1022808444
1645+1023852694+1024837885+1026026094+1027362231+1028743088+1030292530
1636+1032213982+1034183069+1035608482+1036533482+1037333722+1038350995
1628+1039728529+1041325283+1042935000+1044391521+1045533391+1046366360
1619+1046754410+1045397857+1039927577+1030529816+1020674578+1013297509
1611+1010168973+1011823164+1016960484+1023348068+1029269020+1034057419
1602+1037903725+1041217456+1044139249+1046705397+1049122159+1051660277
1594+1054293260+1056370094+1056694710+1054050547+1047955742+1039564479
1585+1031998327+1028804819+1031160983+1036907759+1042920336+1047735064
1577+1051792003+1055912374+1059913414+1063630019+1067513996+1071419279
1568+1073741823+1072633412+1066990170+1057029778+1044162661+1027558848
1560+1002189090+970923818+948200086+932490812+918752570+909085524+906805673
1550+911976127+921862230+933590555+945859071+957870292+968461203+977956341
1540+987707073+996141273+1002209019+1007530804+1013623827+1020505181+1027011205
1530+1032802375+1038618903+1044923773+1051130051+1056669111+1062230935
1521+1068468484+1073454067+1071883318+1055729691+1019486693+968854194+917898861
1511+879653399+860903082+860791042+873769470+890792035+904832535+916554461
1502+927796874+938534903+947718873+954849745+960321403+964629722+968459583
1492+972815538+978289383+984138315+989105509+993082002+996574041+999858526
1482+1003054546+1006423770+1010379767+1015033847+1019959968+1024912741
1473+1030560195+1037277905+1043955918+1049643392+1053714913+1053515946
1465+1043249409+1019118087+984363854+944687632+906282981+881662831+882663820
1455+898917011+917590447+936882818+952776071+952599950+925416892+881585464
1445+848102720+841244455+856639400+879838189+900541633+916557377+928107556
1435+934828020+938025822+939787922+941107695+942225990+943502259+945708469
1425+949476680+954417625+959193143+962669142+964512822+965770944+968366500
1415+971838205+972284016+965588828+952866076+941314520+937093045+940073572
1405+946298483+952349946+957029950+960454425+962905536+964644548+966160938
1395+968084091+970623991+973392022+976084712+978841239+981831488+984803751
1385+987243682+989013074+990426335+991790826+993175895+994613946+996275591
1375+998248405+1000244307+1001785001+1002731225+1003335011+1003866290
1367+1004384445+1004811704+1005221627+1005841453+1005818121+1001804606
1358+989954681+970826279+951996327+943153501+947031645+958141116+970051720
1349+980289822+989166268+997165269+1004172031+1010041135+1015144915+1020246589
1339+1025818540+1030767020+1030408864+1016268800+982042849+933264562+888354130
1329+865079757+866671002+883217539+903127711+920095107+932450225+940749620
1319+946482543+951034629+954848287+957521777+958624841+958469541+958066261
1309+958320802+959544089+961617682+964276103+967295516+970550837+973859221
1299+976926755+979538270+981576299+982921671+983638631+984136452+984913442
1289+986223412+987993128+989973395+991994006+994036085+996061394+997942664
1279+999560643+1000910553+1001834418+1000895161+994979555+982522604+967807271
1269+958895180+959776351+967137380+975296623+981441818+985624002+988456276
1259+990248837+991296570+992031028+992845365+993905493+995186299+996580684
1249+997900295+998987319+999931194+1000985651+1002238022+1003503597+1004592890
1239+1005557666+1006536620+1007496860+1008397070+1009445694+1010959248
1231+1013029358+1014774932+1013422187+1005851984+993107683+981765139+978088229
1221+981928135+988382797+993663023+997241826+999948126+1002368938+1004719512
1211+1006906442+1008615317+1009614605+1009920832+1009722918+1009241300
1203+1008605514+1007920474+1007205215+1005572978+1000800052+991523891+980520950
1193+973881823+975448765+983189174+991973671+998505862+1002607276+1005330103
1183+1007477984+1009491466+1011654335+1014169850+1017122428+1020362680
1174+1023564128+1026485110+1029137861+1031627210+1033478748+1032833079
1166+1027206526+1016552101+1005371662+999973564+1003006667+1011736238
1157+1021724012+1030732347+1038859671+1046689438+1054328582+1061141156
1149+1064844557+1060178324+1039523001+998378592+943391515+893172665+866389241
1139+867675880+886684140+909397340+927594910+939358799+945529027+947743501
1129+948325656+950077062+955130129+963720034+974261123+984713017+993901523
1119+1001809142+1008915711+1015503881+1021695253+1027842797+1034551595
1111+1041723216+1046197530+1040952707+1021008673+992083200+968828270+961459627
1101+967649216+978911720+990005557+1000118738+1009396438+1017354123+1023018023
1091+1024920680+1021052420+1008815661+984710020+944848118+888447618+823170348
1081+765416860+731143598+724771893+738054684+759142046+781044231+802288838
1071+822893205+842079692+859080223+873919424+886795694+897709602+906839860
1061+914548189+921084025+926647794+931456203+935645678+939377594+942918160
1051+946491292+950173548+953792371+956854073+958851190+959714620+959772544
1041+959201568+957584642+954463397+950787055+949155222+951596693+957490344
1031+964427759+970565581+975507580+979565733+982937712+985214322+985104712
1021+981384623+975250527+970838026+971541537+976302230+981058954+983160496
1011+983402885+984805047+989987977+998943410+1008279278+1010554754+994527182
1001+953035392+896066185+849861256+835227097+849711221+875349130+898093925
992+914706973+926916350+936295154+943775109+949965184+955025218+958999281
982+962240829+965195270+967924253+970148529+971683066+972558648+972747812
972+971945627+969299925+962752179+949227485+927981906+905260767+892875269
962+898486187+918059185+940289308+956951936+966900581+972600531+976339982
952+979262666+981728278+983853314+985862988+987983811+990157293+992021712
942+993277242+994105188+995030026+996324280+997783799+999031309+999796309
932+999940754+999317768+997680508+994888011+991051912+985749895+975778647
922+953080029+908357951+843136175+778730517+745432239+757616745+802558933
912+855123578+898516243+929719136+952079932+968690711+981381869+991694584
902+1000847282+1009187426+1016461124+1022654035+1028240244+1033697643
894+1039031094+1043706724+1046844090+1047102925+1042320845+1030234040
885+1010193357+983302430+951411093+918748519+893219248+879155416+867141117
875+839521969+791621208+741652120+714049498+717117113+740745996+770572975
866+798491869+822424953+842533848+859400708+873658888+885758169+895826793
856+903773055+909481188+912865967+913845892+912528064+909378383+904943765
846+899691813+894676985+891965419+893356888+898614268+905725859+912909794
836+919654967+925966966+931626815+936447619+940595049+944295856+947524929
826+950175573+952336174+954239803+956108192+958172792+960647235+963492795
816+966317373+968648990+970396022+972043328+974195179+976863484+979464549
806+981505089+982939656+983951501+984727356+985360306+985720811+985351719
796+983587350+980106248+974869202+965632899+945248643+904536840+840182139
786+758885480+674276062+603207783+564487548+573506941+630645423+713750724
776+784747469+808456878+771941841+691097879+599457963+527699985+489417096
766+481244607+492329815+513390808+539733606+569383046+600786566+632240719
756+662074664+688839820+711778397+731237005+748363024+764249067+779213351
747+792813467+804592992+814638771+823360646+831158250+838457304+845614749
737+852588619+858959190+864409380+869159460+873899819+879201755+885009452
727+890761818+895956494+900615273+905193851+910007607+914904481+918954453
717+919593559+913940515+903848802+897481066+901558987+914119795+927462454
707+933420997+924927010+901909851+878234953+872251541+887210316+908959873
697+922484567+921652327+905490923+877433336+849176215+835345051+840887838
687+857923366+875529383+888801642+898460587+906244095+912851952+918507588
677+923516422+928121976+932295978+935849181+938724472+941099270+943239374
667+945242081+946982308+948498779+950036880+951743568+953440292+954818231
657+955827484+956720888+957816986+959313285+961301329+963774475+966434921
647+968718580+970304073+971373437+972406345+974020030+976509055+979213005
637+981173910+982545612+984467226+987706911+992163808+997575516+1003655253
628+1006547071+993934009+952066078+886826317+829846255+811189588+830402162
618+862919562+888643992+904595736+915457634+924179671+931358826+936878605
608+940798957+943674491+946164488+948722778+951521351+954285980+956566560
598+958173926+959215422+960293129+962336343+965352272+968140151+969872601
588+970721935+970785692+968864888+961365490+944255836+920358883+902624138
578+903475902+921589380+943837326+959212910+966399114+968970042+969577473
568+969509180+969846353+971285133+973624447+975983203+977707795+979159780
558+981207611+983779593+985493248+985144732+983248556+981546729+981127814
548+981749827+982910087+984415783+985848082+986737679+987301930+988136115
538+989469903+991089907+992521801+993429950+994151203+995426500+997646321
528+999562750+995187838+974096101+932764553+884410204+850549942+844858093
518+864843363+895763604+922731169+939721735+948871598+954630850+959474904
509+963725219+967480224+971345568+975776298+980546955+984652744+986986144
499+987761918+988620893+990744146+993399246+995020142+995310734+995379027
489+996225202+998205711+1001328010+1004853426+1007394055+1008573353+1009655597
479+1012240297+1017554386+1024798270+1025469215+1002720937+951075945+895786368
469+870731910+884016646+917163512+949679940+975016321+994763981+1007646571
459+1002565312+962834812+893006347+828819909+803017869+819399464+856783197
449+892475797+918133635+934803149+945665695+953953910+960804237+964766228
439+964546199+959072354+942473402+900955282+822334543+715269950+616697399
429+569008890+584274095+640737784+708546246+767776913+812106891+844804787
419+871063413+892015485+907317590+919183799+928478350+932868978+931226371
409+927977855+929263036+935516463+940977265+941008779+937020539+933838453
399+935891307+944987297+957112259+965376576+968258672+968930103+969528542
390+968799916+964558675+956735227+948030365+942949755+944914953+953802093
380+967116722+982503728+998151676+1010052558+1013947471
##END=
