##TITLE=YM243
##JCAMP-DX=4.24
##DATA TYPE=INFRARED SPECTRUM
##DATE=9/1/2020
##SAMPLING PROCEDURE=Diamant-ATR
##ORIGIN=Lisa
##XUNITS=1/CM
##YUNITS=TRANSMITTANCE
##RESOLUTION=4
##FIRSTX=3997.453
##LASTX=373.96442
##DELTAX=-1.4165319
##MAXY=0.80055261
##MINY=0.20711155
##XFACTOR=1
##YFACTOR=7.4557272e-010
##NPOINTS=2559
##FIRSTY=0.63646263
##XYDATA=(X++(Y..Y))
3997+853656009+854007367+854414046+854548913+854426757+854267267+854023915
3988+853504834+852873430+852564203+852690116+852887260+852825463+852629918
3978+852685400+853110146+853484288+853242775+852401676+851583281+851201865
3968+851078110+851016473+851220172+851858371+852686519+853385796+853962438
3958+854551391+855062558+855274491+855172322+855023385+855113642+855398885
3948+855443654+854944399+854257914+854006727+854204191+854237368+853823334
3938+853304092+853054105+853246852+853989379+855080465+855787497+855545104
3928+854697210+854048938+853952045+853954043+853459825+852612410+852172874
3918+852732487+854077878+855259062+855505212+854977816+854432513+854240725
3908+854060370+853657928+853557517+854410448+855904856+857165105+857908832
3898+858152583+857583057+856084092+854407011+853857230+854677464+855128512
3888+854128723+853027324+853361493+854254236+854190680+853912472+854420121
3878+854689216+853900480+852912603+852303504+851657230+851322581+852264251
3869+853568470+853686708+853366529+854163179+855736492+856440726+855703955
3859+853872820+851349762+849208761+849878778+854337299+858165135+858545752
3849+857201320+855752721+854644686+853815419+853126855+852679804+853024525
3839+854456017+855975207+856240544+855451089+854726630+854645006+854958230
3829+855238356+855284804+854806575+853650253+852684520+853228864+854609031
3819+854732146+854229693+855145780+856943339+857370883+856099761+854340097
3809+853378281+854003529+855283445+855320380+854393100+854350570+855215252
3799+855287203+854721194+854792824+855450130+855818036+855762234+855647674
3789+855645035+855863285+856384125+856808232+856487094+855601465+855213094
3779+855888307+856839810+857041351+856345192+855179437+854343934+854691854
3769+855929319+856707422+856713098+856538818+855942990+854548433+853352219
3759+853725961+855158891+855762314+854927531+853507712+852752873+853494601
3750+854601116+854122887+852568600+852352909+854510299+856183463+855116440
3740+852523112+850579335+850776718+852927473+855314783+856691433+856852761
3730+855884790+854363201+853314325+853225906+853626030+854215783+855219489
3720+856276359+856489332+855586916+854209307+853467579+854393420+856731165
3710+858448059+858323345+857035275+855538869+854514856+854342335+854629897
3700+854650922+854542757+854754291+854916179+854332342+853208079+852852324
3690+854480400+857204118+858404889+857399184+855649912+854424359+853811502
3680+852999583+851629489+851096897+853213995+856104238+856262529+854822643
3670+854967104+856864353+857857827+857203639+856118388+855406480+855022505
3660+854677144+854469527+854919776+855933636+856269964+855410717+854672987
3650+855941151+859206895+861485321+861086237+859319777+857673714+856672326
3640+856197774+855996393+855899739+855761355+855383376+854600077+853734275
3631+854030950+856532262+859281483+859360709+857404300+855335249+854209227
3621+854572656+856391959+858227092+858665989+858160658+857740708+857542525
3611+857382635+857579299+858157940+858310794+857704813+857099790+857179815
3601+857631343+857676992+857300212+857244331+857855269+858472202+858241002
3591+857276388+856604613+857030079+857885808+857841838+857040631+856572155
3581+856865952+857355774+857301411+856643706+855879353+855262580+854531964
3571+853577583+852989190+853537131+854981494+856033967+856179546+856015579
3561+855992795+856030849+855984881+855961057+856088809+856222157+856041961
3551+855465479+854832237+854558746+854711120+854937764+854870930+854549392
3541+854251038+854096105+853996974+853872979+853771769+853767372+853826851
3531+853875298+853954363+854165977+854410608+854405412+854082355+853710931
3521+853522901+853499238+853568790+853681032+853659607+853330954+852877587
3512+852763746+853129173+853470537+853268757+852766144+852688677+853315604
3502+854147190+854592962+854636932+854618385+854674586+854632695+854420121
3492+854248080+854212345+854081076+853721484+853391872+853379880+853692064
3482+854181326+854663393+854892435+854649723+853948687+853162270+852764305
3472+852756391+852672848+852380011+852355468+852867994+853488605+853732037
3462+853643218+853528497+853532015+853569349+853446714+853100873+852774059
3452+852758629+853008936+853251409+853362852+853401865+853380520+853283786
3442+853234221+853363491+853561035+853612040+853528497+853443116+853243254
3432+852732967+852135779+851915372+852069985+852143534+851957103+851800331
3422+851897064+852120030+852238828+852168717+852009866+851961340+852111156
3412+852331244+852460915+852437971+852215564+851806887+851441699+851426110
3403+851818798+852388725+852851765+853021807+852808515+852290792+851841743
3393+851914172+852500088+853028123+853016851+852593303+852207810+852051598
3383+851916171+851553222+851094259+851004321+851524442+852308620+852794444
3373+852764785+852399997+851982126+851732538+851810404+852261612+852918199
3363+853485487+853850435+854174851+854567380+854850304+854774517+854262151
3353+853377242+852240187+850899353+849040797+846003775+841554449+836650796
3343+832971098+831532971+832086029+833905572+836649517+840174042+844019466
3333+847479876+849932981+851043814+851007279+850545038+850318795+850467572
3323+850849708+851324180+851632687+851546746+851358636+851721026+852751914
3313+853705255+853763375+852886941+851739173+851041655+851122639+851807526
3303+852530787+852708744+852222679+851532996+851210419+851360635+851636844
3293+851822796+852114914+852652143+853144523+853291381+853199525+853080967
3284+852961129+852902530+853026124+853175301+853031161+852594343+852175432
3274+851961180+851901781+851942713+852099644+852288554+852266729+851927523
3264+851598630+851752604+852363862+852863836+852874709+852720815+853017171
3254+853886170+854773318+855018908+854467609+853507312+852660617+852237629
3244+852317014+852874069+853736674+854463531+854581050+854081795+853493082
3234+853354538+853738193+854257514+854468008+854308359+854131441+854260312
3224+854623261+854864055+854670509+854032389+853294659+852899012+853028043
3214+853549923+854216262+854801218+855142502+855164487+854877645+854394059
3204+853963077+853844759+854007606+854053175+853647215+853003260+852671729
3194+852817628+853066337+853135489+853193209+853429046+853709332+853889688
3184+854151827+854729348+855450130+855814039+855540627+854894034+854428516
3174+854514856+855103649+855797090+856121266+855813159+854896353+853618595
3165+852438770+851909855+852306062+853360933+854446983+854989408+854772758
3155+853996094+853077769+852382169+852093249+852253858+852827542+853666882
3145+854410528+854563862+853943571+852990709+852350991+852202453+852317014
3135+852624002+853210077+853831808+854025754+853776086+853573506+853729798
3125+854009365+853992977+853535932+852790687+851955664+851128715+850435994
3115+850144275+850380752+850780955+850758091+850196079+849561558+849261045
3105+849221393+849202765+849153999+849032803+848538744+847312471+845329521
3095+842998331+840918568+839527928+838921467+838999094+839667832+840753322
3085+841868711+842654808+843064046+843219299+843151026+842850353+842387553
3075+841808993+841113793+840489984+840314185+840671538+841086132+840995075
3065+840314105+839354049+838392313+837527390+836779107+836195910+835939847
3055+836207582+836954026+837803120+838317405+838299337+837851327+837157806
3046+836154019+834562718+832467925+830666689+830121946+831081363+832907462
3036+834753786+836268180+837600620+838923786+840173083+841186063+841872949
3026+842299454+842741708+843489512+844449968+845169471+845355343+845128380
3016+844682848+843985170+842960118+841789806+840823913+840251668+840018709
3006+840050527+840368548+840900101+841319011+841266967+840732856+840052206
2996+839472766+838900842+838218113+837631239+837469590+837764427+838204762
2986+838407902+838141366+837433215+836556861+835799064+835170938+834433128
2976+833458521+832506778+832002487+832035584+832241601+832261108+832113850
2966+831978183+831854109+831729555+831905833+832820881+834533538+836542950
2956+838112586+838786680+838728800+838565233+838799631+839408411+840025265
2946+840336090+840225686+839770961+839211347+838745029+838329876+837860360
2936+837457039+837339360+837482221+837596622+837404355+836835868+835997647
2927+834948532+833515522+831509947+829159011+827094277+825876238+825715310
2917+826559287+828172492+830151845+832072518+833663419+834881618+835903392
2907+836979849+838200765+839437271+840509330+841323328+841889417+842279628
2897+842546323+842701176+842812060+843019037+843375830+843803375+844260180
2887+844785497+845307456+845608368+845623398+845590221+845732682+845931265
2877+845896729+845541774+845015658+844468276+843940640+843434670+842993455
2867+842708371+842661204+842872498+843303800+843879083+844522478+845216159
2857+845943817+846577299+847009241+847399611+848031654+848935990+849913075
2847+850862979+851806807+852631037+853046430+852851205+852202453+851633886
2837+851691686+852408231+853223588+853591094+853581900+853700618+854186843
2827+854777555+855156733+855323737+855417113+855479869+855543186+855702276
2817+855974088+856250937+856458633+856620601+856779452+856974757+857253284
2808+857624388+858058328+858512255+858894791+859105925+859202498+859370062
2798+859651628+859876992+859912807+859807280+859686404+859679289+859901215
2788+860322364+860686993+860728884+860478017+860255051+860338433+860670444
2778+860906601+860781727+860396233+860076534+860017055+860171589+860425733
2768+860705620+860955207+861170259+861431758+861773842+862065320+862143826
2758+862043815+861978101+862069398+862195551+862165731+862004243+861948841
2748+862179961+862657471+863237711+863822507+864308251+864510432+864327518
2738+863973602+863857602+864162991+864688229+865153747+865493353+865747177
2728+865855263+865742940+865517336+865410770+865554350+865896514+866259383
2718+866433823+866345964+866158733+866037537+865864856+865434273+864856912
2708+864472538+864408022+864462385+864360375+863998785+863560767+863419265
2698+863786212+864502597+865249681+865812972+866103011+866156734+866148420
2689+866213815+866286565+866207739+865909785+865460016+865048460+864905279
2679+865138558+865664674+866275452+866718266+866828510+866679733+866512808
2669+866491783+866606903+866766073+866894784+866976968+867028612+867045720
2659+867052116+867156923+867411068+867634194+867569758+867209767+866827711
2649+866681572+866765914+866879995+866879835+866771110+866565172+866213895
2639+865785551+865539001+865680903+866139546+866672458+867066906+867190580
2629+867042043+866816359+866710432+866659667+866506253+866329175+866329415
2619+866519204+866769431+866987041+867100722+867102401+867175151+867498847
2609+867879384+867855961+867294588+866651752+866485068+866844259+867332002
2599+867638591+867814229+868102590+868688505+869532802+870375020+870978683
2589+871351146+871672844+872083360+872549199+872878811+872945165+872871136
2580+872850271+872878971+872802464+872439434+871625357+870445452+869396097
2570+868934176+868968312+869103179+869177528+869278658+869492110+869905665
2560+870621650+871535899+872297692+872669276+872810058+873107373+873804332
2550+874804041+875766896+876410292+876710005+876729671+876397261+875722127
2540+875080010+874897816+875151161+875484851+875664966+875617399+875259087
2530+874646150+874130346+874076704+874486420+875050671+875514910+875901283
2520+876389826+877024188+877612421+877987522+878228476+878462634+878572478
2510+878318014+877699321+877035540+876687940+876740703+876934569+876926815
2500+876651485+876397101+876538923+877217974+878198336+878993627+879242495
2490+879010256+878634675+878342077+878207770+878366380+878861239+879316844
2480+879253128+878782653+878498689+878619645+878753393+878568880+878241587
2470+878167718+878513079+879079248+879600008+880149868+880966984+881821034
2461+882097003+881651231+881006237+880598519+880360843+880103820+879892766
2451+879911873+880061050+879851275+878965886+877838105+877178161+876961751
2441+876485360+875509314+874769185+875094001+876380232+877776468+878699750
2431+879258964+879728080+880112854+880361003+880610750+881062678+881750683
2421+882441166+882741838+882471625+881964935+881812480+882234908+882844167
2411+883113741+883004057+882940021+883172261+883459182+883503312+883358132
2401+883176658+882905405+882510558+882199173+882110354+882046558+881809762
2391+881561134+881554738+881708712+881710870+881407720+880898551+880374753
2381+880041223+880097664+880567820+881130471+881358234+881246071+881261261
2371+881716386+882459793+883410896+884828716+886622198+888007161+888341170
2361+887723757+886458870+884703763+882941460+881984681+882110034+882624959
2351+882552209+881542906+880037626+878924395+879092919+880677584+882652540
2342+883880092+884183482+884028549+883818454+883662242+883508508+883299373
2332+883025562+882702905+882256973+881497577+880373874+879202843+878495731
2322+878525071+879080287+879643658+879859189+879902999+880247961+880980894
2312+881655069+881936794+881995793+882152005+882529984+883065694+883501873
2302+883486683+883017807+882615685+882738800+883257242+883802945+884318269
2292+884909780+885462758+885786535+885938430+886157958+886613963+887303567
2282+888073275+888773192+889448725+890216915+890905079+891087273+890590496
2272+889718539+888876560+888269939+888077512+888501380+889415708+890359536
2262+891115574+891922616+892927842+893849205+894399465+894731076+895120967
2252+895329863+894787357+893583789+892714709+892942712+893845928+894437999
2242+894447033+894560874+895420360+896621850+897021894+896119078+894651851
2232+893606573+893206370+893177749+893408790+893867193+894213834+894064417
2223+893544536+893072062+892674817+892250390+892316904+893454438+895178927
2213+896341564+896355954+895433231+894243413+893760227+894594850+896241473
2203+897692391+898686104+899732581+901203405+902730431+903370549+902532647
2193+900826066+899592838+899610266+900604619+901747829+902312240+902219104
2183+902046503+902169218+902177453+901578586+900639075+900127908+900582235
2173+901855435+902984255+902645689+900320975+897171630+895350648+896067433
2163+898562829+901478096+904688998+908685437+912571953+914591837+914304356
2153+912712016+910961305+909643815+908816147+908278998+908001110+908268685
2143+909105227+909748543+909326115+908027652+907002040+907018589+907699878
2133+908099762+907610260+906282537+904593784+903036379+901886614+901255849
2123+901129297+901276715+901296141+900910728+900275167+899944995+900446328
2113+901727444+903063241+903737655+903847819+904081178+904626881+904914362
2104+904675567+904483460+904803798+905243974+905215434+904859120+904869273
2094+905513468+906157583+906057013+905395070+904937866+904837455+904658139
2084+904468270+904852005+905735875+906143753+905461104+904366820+904004191
2074+904500088+905025485+905328876+906223298+908079776+909798029+910054492
2064+909035196+908109355+908012302+908110394+907454128+906062849+905013654
2054+905412098+907286484+909530933+910863533+910766080+909610079+908135817
2044+906920576+906112814+905439999+904719057+904476105+905652172+908247180
2034+910666229+911444172+911350876+912266484+914232565+915296710+914102975
2024+911332729+908775135+907844578+908866352+911135585+913327990+914319226
2014+914144946+913680707+913282981+912928666+913529851+915989352+918947708
2004+920137367+919705585+919562884+920118180+919983473+918748646+918059282
1994+919242945+921118369+921322708+919590784+918113884+918365151+919274763
1985+919010465+917514458+916336712+916419855+917215705+917895395+918130353
1975+917553551+915974003+914249114+913658802+914486870+915839775+916529139
1965+916146523+915592586+916120941+917636454+918575725+917824085+915845132
1955+913746981+912285990+911832144+912425014+913583174+914401329+914101696
1945+912696666+910998719+909575063+907904137+905301854+902210870+899965860
1935+899761681+901934181+905688228+909439476+911915286+913012129+913404018
1925+913437195+912709538+910937721+908835334+907340047+906357765+905162351
1915+903883154+903561057+904952416+907860007+911227201+913920941+915732889
1905+917338100+919158763+920760696+921502504+921347011+920832487+920531095
1895+920634223+920936015+921227254+921561903+921995923+922421709+922941989
1885+923924351+925347768+926591389+927171868+927250933+927243498+927368692
1875+927627553+927927825+928291334+928986134+930263412+931873340+933113443
1866+933567050+933397487+932999282+932619305+932240047+931803628+931444436
1856+931454749+932043462+933027503+933882672+934310217+934498966+934741119
1846+935120937+935513625+935706372+935775604+936027351+936411645+936549950
1836+936396376+936301721+936468486+936893712+937415272+937646552+937564689
1826+937674453+938093044+938324084+938161876+937948503+938004705+938293945
1816+938439045+938127740+937532711+937066633+936912819+937088458+937568846
1806+938124702+938562559+939111300+940144027+941547937+942621516+942766216
1796+942196049+941796645+942230026+943080319+943303604+942728961+942079250
1786+941967487+942314048+942612162+942828972+943366361+944192990+944850536
1776+945111316+945147531+945423500+946245252+947097144+947415644+947387743
1766+947267586+947193557+947526607+948270174+948634082+948353556+948180715
1756+948418871+948566289+948445732+948544464+949289949+950300371+950761653
1747+950683067+950648371+950805782+951034504+951402890+951569814+950863422
1737+949624438+949070661+949547531+949348389+946955482+942475616+936612147
1727+930251660+924306647+919702387+916917111+915744001+916575987+920781482
1717+927738996+933790975+937555655+940461168+943804698+948239475+954069608
1707+961505032+969928413+977427873+983781644+992206145+1004361988+1015922642
1697+1025206389+1034654103+1042824459+1047102304+1046790600+1039487884
1689+1021272627+985298756+911334967+779557434+629602736+518350185+444276672
1679+393963866+367936325+370101989+394356555+426904312+462624598+504108103
1669+546729741+579946796+603300385+623783836+645901518+667851595+685656217
1659+698976216+709336020+718401757+730285948+748719455+764822012+772359126
1649+777799368+786291902+795305356+798517697+796574079+794473530+795640164
1639+800843530+810094500+823697663+837998665+847263385+852110597+856201131
1629+861665117+868395348+875292744+882292069+890109309+897910880+903979568
1619+908941021+915498571+924618591+933491262+940748090+948021386+955792418
1609+960474623+953822658+926292715+874022741+805154072+739301321+695961818
1599+680955144+686470774+701451146+718468831+734157674+747852934+760392992
1589+772637414+784603468+795878160+806198391+815454637+823390436+829481188
1579+833580117+836760080+840720465+845176906+848035891+848761870+846764610
1570+839105260+824333784+806880240+793033485+786168467+785590306+789946177
1560+801236299+817814127+829098493+834390917+838383359+842624190+847140670
1550+851875799+856289070+859931355+863212608+866569489+870023823+873678579
1540+875496763+871580028+862403007+850314717+837477825+827696981+823742832
1530+824515898+828532164+835125050+842590613+849277834+855803406+862983326
1520+869279217+873600472+877054407+880377551+883160189+885248986+886937740
1510+888527042+891082157+896533271+903210819+906775636+907775026+908374212
1500+909502233+911319618+913663279+915426301+914697524+909890845+899766078
1490+885064713+871941938+867499087+871431651+879341307+888288966+896984320
1480+904463154+910075837+913909748+916466382+918358276+920177179+921733304
1470+922143101+921419201+920603285+920902198+922592631+924275868+924573422
1460+923829456+923950173+927552005+934032169+938977153+941290035+942340909
1451+942796595+942430527+940753766+937692280+934098523+931452511+930798802
1441+931949927+934116431+936695369+937971208+934715057+925407806+910154103
1431+888828194+862500300+834323363+807266453+783841274+767447958+760760018
1421+764489602+778090607+797255608+815201772+830153364+844030898+857782359
1411+870703434+881394848+888539753+890612002+884434269+866057763+834239182
1401+791277258+744141497+705957314+688832423+695483748+719650255+750985570
1391+782609645+813743899+845194574+874932352+899326142+917633336+931721365
1381+942921388+951082231+955605667+956182148+952173477+942085886+924534969
1371+898768847+863888861+820351495+772150870+724293048+680071115+643669300
1361+620835192+613487548+618204490+630169185+645514225+661691690+677458839
1351+692718139+707965686+723477771+739089787+754549508+769660030+784470360
1341+799484948+814993676+830204369+843992684+856231350+867512118+878226397
1332+888247155+897041480+903954945+908470785+910330381+909507190+905821016
1322+898715604+888642082+879367289+877324700+886934222+907280088+933559535
1312+960740600+986126584+1009318324+1030576280+1049530947+1064745158+1073741823
1302+1073266791+1059741654+1030313502+985252468+930907527+879840402+845984828
1292+838031922+856268365+894072891+941424023+988227773+1026955021+1053662573
1282+1066745216+1064651462+1044737138+1004902974+947362401+880516495+815751712
1272+761751813+721586837+693976150+676044616+665124919+659348949+657585687
1262+659074938+662992992+668242405+673709589+678681754+682845358+685992384
1252+688001237+689058507+689658412+690316038+691330857+692791208+694654481
1242+696743198+698762044+700440085+701660681+702483553+703147095+703989313
1232+705189284+706584081+707841132+708772249+709419642+709965745+710738891
1222+712266555+715077414+719344546+724803256+730998656+737483057+743859372
1213+749883691+755597024+761272944+767226591+773638322+780317069+786059422
1203+787827001+781440533+765031707+742465215+721942112+710108606+707906927
1193+711960447+718436933+725099371+731143116+736496858+741336395+745780605
1183+749818936+753454664+756806829+759993987+762979125+765668627+768122053
1173+770482742+772727272+774698790+776371075+777887547+779344141+780678979
1163+781783896+782603489+783038869+782804790+781488500+778709939+774074741
1153+767065582+757366682+745562756+733518995+723936734+719213996+720262952
1143+726122744+734704656+744035890+752991304+761129763+768162265+773770471
1133+777840699+780592159+782334315+783226899+783375996+782987464+782246696
1123+781130107+779426324+776821403+773071514+768599963+764973747+764169103
1113+767065183+772927933+780268143+787793025+794673952+800424699+804745715
1103+807549218+809166021+810275335+811399438+812567751+813568900+814364190
1094+815121747+815916078+816573864+816716246+815447842+811062551+802353687
1084+791159020+782566075+781110121+786926343+796301867+805317080+812136449
1074+816694501+819701304+822072306+824477045+827053265+829555457+831699896
1064+833400561+834814624+836203825+837771542+839574696+841443965+843089388
1054+844472433+845876583+847503939+849288946+851118562+852908206+854514376
1044+855804685+856711099+857074208+856541696+854880044+852623842+851087943
1034+851070995+851481751+849528460+842428645+829803206+815257334+804728207
1024+802255195+807869876+818919124+831161627+839366600+840434422+836906539
1014+835440991+840961658+853258924+869339656+886028448+897077056+891498110
1004+863473548+824444028+796649067+792044888+803855370+819076615+831452706
994+841271604+849911556+857850472+865070205+871390159+876594644+880440708
984+883029239+885578439+890140247+897892572+908037805+918750405+928817611
975+937852010+945130662+948796770+946048988+933642918+908968122+872250205
965+828304721+785440730+751632483+730741873+721591794+720256077+723244492
955+728945754+736914809+746555270+756645021+765861134+773473476+779506189
945+784448535+788823913+792816435+796275086+799158694+801809902+804673844
935+807861003+811052398+813829760+816130091+818290918+820637857+823196729
925+825782063+828144432+830070062+831499794+832553066+833429101+834301219
915+835244087+836276015+837447206+838741272+839959550+840928641+841721853
905+842511148+843347850+844183752+844997910+845903205+847115967+848688561
895+850308162+851531237+852201894+852546136+852906127+853497479+854426197
885+855736732+857299013+858824519+860115627+861163463+862079790+863101485
875+864437122+865978857+867435051+868681470+869661753+870131828+869803415
866+868530295+865764845+859559212+847415200+830495608+816591932+815133899
856+827771649+846507107+861963151+870895301+875361976+877950907+879315485
846+878592944+875107032+870114640+866761117+867630756+872448069+878667213
836+884023193+887928735+890750866+892695762+893638631+893518074+892436102
826+890132733+885126431+874036971+851568331+811842812+751079985+669652551
816+572299959+468595913+373983947+306496605+277788535+286613279+321585202
806+369100401+418695103+464182602+503080932+535537992+562900691+586664996
796+608065413+627807656+645920185+662125271+676423554+689174187+700696388
786+711087370+720516776+729457401+738347420+747105050+755295952+762757998
776+769716231+776347571+782663608+788768911+794798905+800610971+805759174
766+809313839+808995819+801037556+782863630+757244526+732898704+719138049
756+719249892+729319256+742897237+755849170+767165673+777068673+785715740
747+793145567+799288764+803960977+807264215+809825486+812422812+815484617
737+818901536+822200537+824934089+826813351+827111865+823281231+810157896
727+783274706+746500828+714874194+704760220+719903440+749131171+777796330
717+798786791+812616358+822022500+828991606+834639065+839582850+844038812
707+848041568+851755642+855269455+858207106+860139611+861292015+862409323
697+864115105+866545026+869192477+871092605+871594178+870984919+870260939
687+870481347+872319198+875802391+880211826+884445461+887870216+890775009
677+893746636+896824190+899514092+901467703+903025187+905306811+909464019
667+914315548+917377753+919030291+920925063+923815306+927323283+930733967
657+933914090+937423826+941874512+947201312+952762431+958197077+963902735
647+970646637+978841696+988201151+998143963+1008206932+1017400102+1023832938
637+1026821034+1029280695+1035483930+1044730183+1048204983+1033116206+989909491
628+917816010+827875977+741109032+678516189+649116657+647403280+661075076
618+680005160+699650550+719174983+738210794+755545460+770091013+781956257
608+791838950+799912813+806006284+810277094+812938695+813502386+810531878
598+801829249+783969026+751011312+696425018+622705580+550461644+508966866
588+512645405+551666491+604423369+654138908+694391223+724823801+746965227
578+763187062+775828250+786075171+794092833+800154806+805323236+810995877
568+817823081+825179360+831649530+835975502+837949499+838523262+838426050
558+836598032+830570356+818691841+802498147+787389144+780056049+783772762
548+796246465+812482131+828560144+842359732+853020848+861047623+867751793
538+873659552+876969345+872677670+854111615+818593109+773096297+732105172
528+708213595+705133563+717489108+735530166+751897980+764519421+774455198
518+783148153+791047816+797645019+802752691+807293954+812247732+817269703
509+821123761+823354061+824866136+826880824+829740289+832534599+833954418
499+833913567+833797727+834795038+836596194+838282948+839866015+841951294
489+844460041+846708968+848296272+849221472+849537894+849446757+849459468
479+849881736+850238610+849647178+847653276+844305188+839646087+833509446
469+825801970+816810341+806882319+795718430+782711255+768021002+752256052
459+735661995+719179620+704920909+693856472+685587704+680305593+678864108
449+682080127+690475768+703168680+717607026+731588888+744203135+755041488
439+764435879+773672459+783593366+793529862+802353847+809881687+816644695
429+822655583+826972841+829144941+830590662+833241471+837005271+840089700
419+841603455+843304200+846647570+850079840+852123868+853775447+857091636
409+861751138+865214425+866543827+867300904+868766212+870715425+872394745
399+873232966+873587521+874770544+876487198+876768444+875020771+872355972
390+869419441+865794265+861657762+857859186+853417054+846444191+838212197
380+831442154+825646717+816814018+803658785+793537217
##END=
