##TITLE=JMB178_2
##JCAMP-DX=4.24
##DATA TYPE=INFRARED SPECTRUM
##DATE=15/3/2019
##SAMPLING PROCEDURE=Diamant-ATR
##ORIGIN=Angelika Moesle
##XUNITS=1/CM
##YUNITS=TRANSMITTANCE
##RESOLUTION=4
##FIRSTX=3997.453
##LASTX=373.96442
##DELTAX=-1.4165319
##MAXY=1
##MINY=0.41383117
##XFACTOR=1
##YFACTOR=9.3132258e-010
##NPOINTS=2559
##FIRSTY=0.99055189
##XYDATA=(X++(Y..Y))
3997+1063596991+1064438911+1065436799+1066033279+1066217535+1066204223
3989+1066197503+1066389951+1066807487+1067237375+1067537343+1067857407
3980+1068368255+1068974975+1069490879+1069910015+1070335807+1070762175
3972+1071083135+1071256895+1071342399+1071418687+1071516287+1071602815
3963+1071638655+1071634687+1071657279+1071855039+1072409151+1073220159
3955+1073741823+1073488831+1072620095+1071720191+1071184447+1071029759
3946+1071069055+1071058815+1070831551+1070438399+1070128895+1070151231
3938+1070569919+1071165439+1071593023+1071796479+1072097791+1072601343
3929+1072799807+1072303551+1071589311+1071565567+1072401919+1073242559
3921+1073361919+1072896831+1072368383+1072037055+1071788479+1071525503
3912+1071464319+1071805311+1072181375+1071918655+1070993343+1070264959
3904+1070531967+1071522559+1072314751+1072495807+1072289023+1071965183
3895+1071547839+1071101887+1071046207+1071689727+1072397183+1072393791
3887+1071972351+1071868799+1071925183+1071449855+1070766719+1070791423
3878+1071323327+1071413183+1070994623+1070646271+1070474431+1070233663
3870+1070173119+1070474495+1070633983+1070543487+1070939775+1072191871
3861+1073437951+1073707455+1072890175+1071462847+1070142207+1069832703
3853+1070938239+1072367807+1073175103+1073294143+1072684287+1071461695
3844+1070213631+1069582335+1069516223+1069439551+1069226175+1069400319
3836+1070094655+1070760063+1071122111+1071359103+1071407231+1071013631
3827+1070523583+1070622783+1071220799+1071633151+1071777343+1072074687
3819+1072338431+1072193343+1071842879+1071530559+1071104767+1070418303
3810+1069474495+1068438783+1067901375+1068396031+1069412479+1070249727
3802+1071076031+1071987583+1072201663+1071425663+1070432127+1069981055
3793+1069938687+1069757631+1069304063+1068830207+1068531071+1068419839
3785+1068446911+1068521407+1068654335+1069065599+1069732671+1070040895
3776+1069563327+1068604607+1067593919+1066862207+1066969151+1068243455
3768+1069976447+1071202559+1071658687+1071394559+1070583231+1069849343
3759+1069906623+1070618751+1071149119+1071111103+1070668863+1070241407
3751+1070586175+1071950527+1073272191+1073741823+1073547711+1073102847
3742+1072446719+1071409535+1070077119+1068856831+1068451135+1069311231
3734+1070650047+1071051775+1070215807+1068884799+1067831487+1067531391
3725+1068132607+1069378111+1070777023+1071854079+1072267903+1072072831
3717+1071653695+1071243391+1070905215+1070996543+1071840511+1072646015
3708+1072440767+1071617087+1071007615+1070800191+1070709887+1070476863
3700+1070038975+1069569343+1069351679+1069373311+1069150079+1068263743
3691+1066997823+1066224383+1066398719+1066908351+1067155903+1067237311
3683+1067438655+1067880767+1068424767+1068807167+1069091455+1069649535
3674+1070081599+1069506943+1068414079+1068158015+1068913407+1069213183
3666+1068413567+1067196991+1066260607+1065820863+1065776831+1065994495
3657+1066503359+1067291519+1067864319+1067679999+1066884479+1066304191
3649+1066773951+1067940351+1068758591+1068966911+1068787839+1068350399
3640+1067684927+1066909503+1066271679+1066042367+1066322751+1066810815
3632+1067076095+1067315455+1068211903+1069240127+1068952511+1067546751
3623+1066207679+1065643519+1065939455+1066925823+1068169215+1069065343
3615+1069413951+1069417087+1069194559+1068741055+1068310335+1068265343
3606+1068383039+1068034431+1067177727+1066497471+1066567039+1067102335
3598+1067344191+1066991551+1066371775+1065946943+1065873727+1066051199
3589+1066440447+1067086335+1067764799+1068010431+1067728191+1067269695
3581+1066965055+1066771263+1066380415+1065681087+1064932095+1064477631
3572+1064436351+1064627839+1064788927+1064942719+1065351231+1065768831
3564+1065587455+1064952383+1064572927+1064658303+1064690943+1064259135
3555+1063526719+1062873471+1062524287+1062478527+1062629247+1062949119
3547+1063404543+1063773439+1063874047+1063832767+1063782655+1063652991
3538+1063452543+1063360511+1063357951+1063125759+1062511487+1061846975
3530+1061587839+1061743359+1061902655+1061875775+1061916991+1062195967
3521+1062505727+1062609919+1062537215+1062420991+1062278143+1062051071
3513+1061758975+1061502399+1061378815+1061474303+1061825983+1062263423
3504+1062397759+1061924735+1060918719+1059707839+1058545983+1057605375
3496+1057160383+1057491775+1058414271+1059118719+1058851967+1057740927
3488+1056673087+1056375103+1056811519+1057405183+1057629439+1057472639
3479+1057333311+1057449151+1057650367+1057656639+1057349247+1056809087
3471+1056284223+1056009535+1055900095+1055662911+1055338879+1055367103
3462+1055927103+1056595263+1056891199+1056789055+1056478079+1056025343
3454+1055485375+1055023103+1054764799+1054686399+1054623295+1054334719
3445+1053780415+1053336959+1053394111+1053805311+1054060415+1053879679
3437+1053301439+1052457599+1051626495+1051231167+1051458431+1052049343
3428+1052632767+1053057279+1053319039+1053391295+1053237375+1052865535
3420+1052306751+1051647935+1051098175+1050856127+1050862655+1050890431
3411+1050897791+1050965951+1050934463+1050564607+1050041279+1049803967
3403+1049930495+1050148287+1050295423+1050363903+1050317375+1050216575
3394+1050280511+1050597439+1051035135+1051481023+1051855487+1051955967
3386+1051655103+1051176895+1050875263+1050837503+1050887359+1050840575
3377+1050670911+1050529151+1050566911+1050729535+1050850751+1050891711
3369+1050893503+1050839807+1050774783+1050884927+1051265023+1051703999
3360+1051831167+1051448255+1050722559+1050056063+1049709439+1049603711
3352+1049572031+1049702591+1050216895+1051006783+1051548479+1051462527
3343+1050940735+1050393215+1049931839+1049493887+1049230911+1049437311
3335+1050198207+1051244543+1052063423+1052164799+1051439295+1050321023
3326+1049501119+1049431231+1050053631+1050935999+1051612607+1051827903
3318+1051605375+1051207359+1050953791+1050993855+1051268351+1051591551
3309+1051636351+1051087615+1050105599+1049414399+1049570175+1050273215
3301+1050709503+1050502015+1050044095+1049917567+1050266303+1050782271
3292+1051105151+1051161471+1051153535+1051225663+1051231615+1050983551
3284+1050636607+1050579583+1050927679+1051279743+1051095551+1050301311
3275+1049416447+1049011775+1049206847+1049803903+1050599999+1051352063
3267+1051756095+1051755135+1051641919+1051658431+1051670335+1051413887
3258+1050957503+1050679295+1050758335+1050971519+1051119807+1051252351
3250+1051288063+1050931903+1050248063+1049805119+1049961343+1050419007
3241+1050671999+1050528383+1050101567+1049637823+1049429247+1049638591
3233+1050093247+1050399999+1050346175+1050091583+1049962815+1050159551
3224+1050592255+1050904511+1050764607+1050224895+1049640703+1049253503
3216+1049063743+1048978815+1048876415+1048706239+1048619839+1048754239
3207+1048932479+1048871551+1048570239+1048266495+1048165887+1048327039
3199+1048622719+1048785215+1048624127+1048189375+1047702719+1047416191
3190+1047446399+1047615935+1047602623+1047358015+1047166207+1047152191
3182+1047054079+1046698751+1046351231+1046298815+1046385855+1046266431
3173+1045811263+1045052735+1044095871+1043242175+1042826751+1042847231
3165+1043014911+1043041471+1042642559+1041589119+1040022271+1038329343
3156+1036534015+1034295871+1031614079+1028968255+1026641663+1024431935
3148+1022182783+1020170111+1018746047+1017843071+1017073087+1016269567
3139+1015682239+1015549887+1015728127+1015890815+1015802687+1015225855
3131+1013887359+1011763391+1009196095+1006643071+1004369279+1002363967
3122+1000553535+999113343+998332223+998102079+997946175+997713727+997787455
3112+998442815+999482559+1000684479+1002178559+1004197759+1006738943+1009593727
3102+1012499391+1015186751+1017497215+1019521791+1021454591+1023212607
3094+1024359039+1024534271+1023889919+1022981631+1022230143+1021564607
3085+1020631807+1019307391+1017942847+1017074879+1016874367+1016950399
3077+1016802687+1016371007+1015986751+1015929087+1016217919+1016712191
3068+1017231871+1017625279+1017802367+1017704255+1017298431+1016634687
3060+1015864255+1015202623+1014851071+1014815295+1014765375+1014221375
3051+1012919679+1010928575+1008466495+1005763839+1003132415+1000983551
3043+999630719+999183679+999750143+1001568063+1004739135+1008924031+1013438527
3033+1017610751+1021096383+1023979903+1026497663+1028666879+1030376639
3024+1031716031+1032849471+1033652223+1033889663+1033761279+1033895359
3016+1034714879+1036013759+1037233023+1038028671+1038475775+1038799615
3007+1039086719+1039276607+1039273407+1038981375+1038347519+1037409215
2999+1036172287+1034430079+1031906559+1028658367+1025239103+1022403519
2990+1020652479+1020019135+1020241215+1021060095+1022253119+1023519487
2982+1024657023+1025786751+1027112255+1028566015+1029913471+1030998015
2973+1031688127+1031862975+1031655551+1031408255+1031208575+1030805631
2965+1030205247+1029967935+1030544575+1031585087+1032304703+1032380351
2956+1032132095+1031974399+1032056447+1032363583+1032816575+1033218751
2948+1033354687+1033232959+1033064575+1032951615+1032789567+1032516799
2939+1032237439+1032026879+1031826943+1031588543+1031340223+1031075455
2931+1030703615+1030184895+1029663743+1029377919+1029380095+1029445439
2922+1029369343+1029229951+1029208191+1029280639+1029280191+1029187903
2914+1029202111+1029537919+1030228031+1031065087+1031699327+1031896255
2905+1031778175+1031747519+1032099071+1032695487+1033046719+1032773439
2897+1032057919+1031517823+1031581695+1032173119+1033027903+1033957567
2888+1034704639+1034966591+1034759167+1034466623+1034422847+1034647487
2880+1034991103+1035308991+1035467839+1035375679+1035053567+1034592383
2871+1034073855+1033634175+1033493311+1033730879+1034116607+1034323839
2863+1034252031+1034045503+1033891455+1033838399+1033760575+1033538879
2854+1033273343+1033182911+1033328511+1033619711+1034047999+1034691647
2846+1035483903+1036145919+1036431999+1036373439+1036226239+1036233279
2837+1036503039+1037022783+1037673791+1038289407+1038789119+1039191551
2829+1039463743+1039480575+1039194111+1038745983+1038336063+1038058687
2820+1037930111+1037958655+1038076927+1038127103+1038052607+1037996543
2812+1038107071+1038353087+1038582527+1038671935+1038644671+1038668863
2803+1038836095+1038947647+1038732607+1038276415+1038030463+1038326655
2795+1038977343+1039466751+1039535231+1039421951+1039437183+1039543103
2786+1039555775+1039495935+1039510335+1039654591+1039894655+1040116735
2778+1040105087+1039759295+1039328447+1039197439+1039463935+1039878591
2769+1040169215+1040264575+1040207295+1040021183+1039778047+1039633919
2761+1039618943+1039537151+1039299007+1039132671+1039221183+1039417727
2752+1039555391+1039687551+1039808127+1039757119+1039603647+1039719039
2744+1040277119+1040981311+1041424127+1041519295+1041476543+1041452223
2735+1041368255+1041128767+1040871551+1040781759+1040756863+1040532991
2727+1040089663+1039662911+1039401983+1039240127+1039094911+1038996735
2718+1038984383+1038987455+1038871871+1038580031+1038189823+1037838975
2710+1037604351+1037458879+1037335423+1037203775+1037056191+1036840959
2701+1036510783+1036159807+1035997759+1036112447+1036364863+1036582783
2693+1036752255+1036942975+1037176895+1037415487+1037578623+1037572351
2684+1037388735+1037145023+1036932991+1036700415+1036390207+1036111039
2676+1036029247+1036114239+1036133503+1035940031+1035642303+1035430015
2667+1035363775+1035395583+1035443071+1035393663+1035199807+1034999295
2659+1034989951+1035168575+1035327871+1035333311+1035337151+1035667583
2650+1036450815+1037391679+1038041983+1038215295+1038025535+1037670591
2642+1037347071+1037216639+1037322559+1037649599+1038253695+1039159103
2633+1040126015+1040672575+1040427071+1039527103+1038625919+1038330879
2625+1038604287+1038861695+1038602239+1037713983+1036212927+1034046207
2616+1031353151+1028730751+1026944895+1026282047+1026311999+1026401279
2608+1026351551+1026402303+1026733823+1027269951+1027973311+1028964159
2599+1030213311+1031399295+1032217215+1032698495+1033212287+1034184959
2591+1035663615+1037191103+1038315775+1039012927+1039315583+1038984127
2582+1038028031+1037112959+1036901503+1037263935+1037554495+1037430399
2574+1037066111+1036747711+1036620031+1036757567+1037132031+1037487807
2565+1037560319+1037445439+1037456575+1037662079+1037883583+1038046847
2557+1038187967+1038276799+1038352383+1038591615+1038948287+1039060991
2548+1038804159+1038553471+1038660991+1039067327+1039553919+1039955007
2540+1040110079+1039967103+1039683775+1039431039+1039282367+1039303487
2531+1039458687+1039480703+1039075455+1038104959+1036503871+1034392255
2523+1032350399+1031116543+1030824959+1030855999+1030590591+1030055359
2514+1029704319+1029863807+1030571647+1031682687+1032920447+1034006591
2506+1034838527+1035472511+1036044607+1036782655+1037776383+1038645823
2497+1038831935+1038306815+1037595519+1037079423+1036718399+1036501375
2489+1036686143+1037359359+1038103551+1038411967+1038259839+1038006783
2480+1037920127+1038000319+1038092287+1037968831+1037506879+1036916991
2472+1036581247+1036544895+1036409663+1035858367+1035091071+1034606719
2463+1034677119+1035142143+1035648063+1035981119+1036152191+1036250431
2455+1036359359+1036590399+1037021375+1037576831+1038097087+1038474367
2446+1038636351+1038566143+1038390527+1038235647+1038028799+1037655103
2438+1037167231+1036640383+1036055551+1035481727+1035104895+1034957631
2429+1034877247+1034763135+1034614399+1034314175+1033713151+1033004287
2421+1032693951+1033029823+1033693311+1034168959+1034207039+1033902527
2412+1033555455+1033476927+1033774015+1034350271+1035108863+1035972415
2404+1036712895+1037025919+1036873663+1036599359+1036583807+1036822719
2395+1036952255+1036700543+1036227903+1035934335+1035981503+1036154047
2387+1036241727+1036342463+1036552959+1036580479+1036036223+1034983743
2378+1033875711+1033089215+1032741503+1032689471+1032542015+1032023935
2370+1031315711+1030684927+1030155455+1029889599+1030162815+1030703231
2361+1030996287+1031273791+1032159295+1033459391+1034308671+1034361983
2353+1034065279+1033868159+1033763903+1033588991+1033384447+1033424767
2344+1033933375+1034723071+1035341183+1035582207+1035576895+1035428671
2336+1035036415+1034382143+1033739839+1033360959+1033102719+1032600703
2327+1031771135+1030980735+1030787903+1031511103+1032810047+1033784831
2319+1033816319+1033225983+1032840895+1032997055+1033220479+1032915391
2310+1032111103+1031335999+1030994175+1031068863+1031273087+1031351423
2302+1031308543+1031294527+1031278207+1031119359+1030992127+1031306175
2293+1032141311+1033155263+1034007167+1034503423+1034519935+1034209791
2285+1034129023+1034734271+1035761663+1036399871+1036209023+1035659199
2276+1035506303+1035824255+1036058175+1035835711+1035353599+1035225535
2268+1036090879+1037857983+1039389567+1039636287+1038813439+1037811775
2259+1037142591+1037084095+1037896703+1039269247+1040439615+1041169087
2251+1041763647+1042153279+1041815359+1040631551+1039302911+1038753919
2242+1039217407+1040082815+1040807807+1041532351+1042293247+1042349823
2234+1041176383+1039493567+1038452095+1038334719+1038609663+1038642623
2225+1037999807+1036663999+1035229439+1034462591+1034520191+1034765503
2217+1034412479+1033404671+1032648063+1033041663+1034295679+1035221695
2208+1035206079+1034779263+1034741951+1035340927+1036303487+1037228671
2200+1037814847+1037793471+1036884159+1035311295+1034191295+1034493503
2191+1035707583+1036518015+1036583999+1036543807+1036664383+1036732287
2183+1036901695+1037414527+1037857599+1037825215+1037823359+1038398015
2174+1038881663+1038290175+1037121727+1036701759+1037026239+1036901375
2166+1036055679+1035353791+1035163967+1035369599+1036391679+1038139391
2157+1039197503+1039102079+1038966975+1038975295+1038205695+1037103615
2149+1037488895+1039558911+1041121663+1040585343+1039078271+1038851647
2140+1040595775+1042926079+1044091839+1043743423+1042909439+1042524543
2132+1042531583+1042448639+1042091199+1041441471+1040377023+1038977791
2123+1037770623+1037205823+1037077311+1036877887+1036548799+1036423679
2115+1036567679+1036639039+1036380607+1035911423+1035545343+1035506879
2106+1035800767+1036282559+1036820479+1037299583+1037590015+1037692351
2098+1037689599+1037342079+1036200895+1034496703+1033310207+1033349759
2089+1034082239+1034536831+1034489855+1034270847+1033896319+1033222975
2081+1032648447+1032742975+1033270527+1033302207+1032288383+1030571263
2072+1028988479+1028168511+1027945279+1027541759+1026770687+1026768127
2064+1028752703+1032174911+1034933759+1035404927+1033727039+1031274943
2055+1029390847+1028491263+1028112575+1027942783+1028566207+1030516543
2047+1032953855+1034530431+1035159359+1035585599+1035967103+1036050111
2038+1036158399+1036993535+1038518591+1039635519+1039455999+1038631551
2030+1038500927+1039170751+1039641343+1039650751+1039997119+1041112127
2021+1042468031+1043380223+1043647935+1043430655+1043028095+1042615807
2013+1041925311+1040667583+1039397183+1039111359+1039710015+1040047295
2004+1039743743+1039488127+1039656639+1039945855+1040015039+1039774015
1996+1039476671+1039563583+1039814975+1039281855+1037940095+1037127231
1987+1037418623+1037640319+1036662719+1034909823+1033651135+1033758655
1979+1035301439+1037502527+1039029567+1039199551+1038997439+1040104575
1970+1042628927+1044443199+1043509311+1040544511+1038168383+1037660415
1962+1037972863+1037558463+1036131071+1034433855+1032942079+1031524671
1953+1030105855+1028996927+1028573951+1028994175+1030169855+1031664383
1945+1032712703+1032798335+1032336191+1032324287+1033198911+1034543999
1936+1035684543+1036134335+1035807679+1035125183+1034683967+1034632447
1928+1034658943+1034648895+1034838271+1035177215+1035085055+1034184255
1919+1032865471+1031844031+1031382399+1031166399+1030954495+1030880383
1911+1031004479+1030949695+1030370111+1029629055+1029497663+1030254399
1902+1031453439+1032503679+1033147199+1033379455+1033191295+1032484159
1894+1031241087+1029846207+1029089663+1029556095+1030875839+1031983039
1885+1032221759+1031780927+1031312255+1031311999+1031680319+1031861695
1877+1031474623+1030711167+1030049471+1029778047+1029957631+1030551295
1868+1031222591+1031360383+1030859775+1030352063+1030439807+1031034815
1860+1031485631+1031312383+1030664383+1030014079+1029579071+1029251327
1851+1029011519+1029052799+1029416319+1029918911+1030540863+1031365631
1843+1032044671+1032133247+1031806655+1031573567+1031719807+1032136831
1834+1032547711+1032836415+1033109695+1033463231+1033777983+1033897087
1826+1033848127+1033732223+1033613311+1033542911+1033584703+1033758911
1817+1033929727+1033819711+1033337087+1032806655+1032650815+1032847487
1809+1032971647+1032799551+1032428543+1031924735+1031316415+1030792895
1800+1030515903+1030284991+1029812799+1029150847+1028573119+1028267327
1792+1028096191+1027606399+1026598847+1025379647+1024344255+1023608767
1783+1023048447+1022591615+1022247743+1021958015+1021675519+1021491519
1775+1021592703+1022116031+1022821951+1023122431+1022872511+1022384831
1766+1021757247+1020902335+1019984831+1019345407+1018969535+1018493055
1758+1017845055+1017267455+1016816191+1016335295+1015872063+1015664191
1749+1015585087+1015115775+1014185151+1013281727+1012826239+1012870079
1741+1013231359+1013632191+1013883199+1014158655+1014830335+1015766335
1732+1016172991+1015968767+1015738623+1015691711+1015728767+1015869311
1724+1016171455+1016457023+1016535935+1016546687+1016792767+1017212543
1715+1017314879+1016933887+1016255231+1015410175+1014491967+1013683583
1707+1013183423+1012902015+1012474111+1011826239+1011291391+1010971647
1698+1010437823+1009645247+1008970815+1008337791+1007418303+1006244607
1690+1005029567+1003811391+1002468991+1001038847+999880447+999169727+998494975
1680+997641087+996799103+996293311+996320831+996616383+996741119+996823551
1670+997299199+997945727+998002239+997427007+996843519+996817023+997314815
1660+997744191+997706047+997241727+996630015+996436159+997267775+998249983
1650+998330943+997956351+997793087+998014079+998276479+998466623+998712959
1640+998981759+999165695+999338367+999701695+1000143871+1000299135+1000189759
1630+1000102527+1000221631+1000477887+1000761855+1001278015+1002311039
1622+1003580479+1004463999+1004921279+1005598975+1006988735+1008451711
1613+1009243519+1009511871+1009558911+1009382591+1009022719+1008849791
1605+1009265343+1010362943+1011867583+1013303231+1014372479+1015136511
1596+1015794815+1016467967+1017121919+1017584319+1017806591+1018049407
1588+1018501695+1018929343+1018863935+1017436031+1012803519+1002178687
1579+980431743+935921727+857093695+763957375+699146751+675823935+690116223
1570+735650879+788367743+820370367+824415295+808259007+785051391+768520895
1560+775379903+811304447+845341631+861981951+868449471+870573759+872471295
1550+877942143+888484927+902912575+919193535+934777087+947199615+956827839
1540+965495295+971939071+975442623+977864191+980822335+984225919+986739711
1530+988046271+988962559+990065983+991190591+992027711+992702975+993348927
1520+993712319+993679167+993498623+993322239+993057215+992636479+992125759
1510+991644991+991462975+992032895+993041471+993451519+993269631+992992959
1500+992943871+993302399+994127231+995160703+996001343+996707967+997808767
1490+999703487+1001944447+1003678975+1004833727+1005807551+1006846527
1482+1008003647+1009209535+1010414719+1011684671+1013011711+1014228735
1473+1015122943+1015234431+1013970303+1011021759+1005492415+994627263+974820863
1463+946246655+913280703+878757951+842024063+802326399+764277951+731481983
1453+699712319+665984511+634200895+615309439+622179967+657876287+711117183
1443+766950975+814982335+850986431+877240063+898998335+918539199+933528703
1434+942898111+948392831+950532351+947055231+934127935+906386559+858299647
1424+793332159+728449791+683401087+672900863+698926719+743030143+786390143
1414+823126463+852663167+875174783+891626047+903586495+912798527+920490111
1404+926741119+931332543+934815103+938056703+941431999+944829311+948117695
1394+951104639+953465919+955256383+957034239+959285183+961889919+964394751
1384+966638975+968644543+970297279+971353855+971442111+969699519+963949311
1374+950737343+928182527+898711231+868386623+845406719+836311103+841371135
1364+856323903+876278847+896548543+913972479+928091199+939591487+948830655
1354+955898367+961093439+965007807+968294655+971369535+974283007+976882303
1344+979070271+980923775+982628735+984277951+985735679+986833023+987628415
1334+988308479+988968383+989561727+989974015+990144255+990122559+989993343
1324+989840447+989852287+990267711+991069055+991867903+992210879+991926015
1315+991120959+990015103+988834495+987770303+986953407+986439679+986198655
1305+986142591+986166335+986150783+985982527+985608511+985080831+984565567
1295+984289471+984381631+984751487+985145535+985294207+984958399+983881599
1285+981742527+978137983+972690815+965459391+957513663+951069759+948632639
1275+951486079+958759039+967980159+976664639+983537535+988497663+991889151
1265+994111103+995637759+996882687+997933567+998650047+999037631+999322495
1255+999705343+1000256895+1000989759+1001826943+1002567167+1003064127
1247+1003392575+1003720319+1004113599+1004520255+1004779967+1004599871
1238+1003705663+1002094143+1000032575+997817023+995658111+993701887+991927039
1228+990012543+987476927+983924607+978951807+971650303+960114495+941678399
1218+914607999+880614015+845487679+816171839+797026047+789490367+794486911
1208+812819711+842434431+877042943+909109631+934095679+951604799+963432447
1198+971454783+976988735+981017727+984249983+986963327+989160319+990948223
1188+992580415+994185791+995662911+996835455+997641727+998218111+998760575
1179+999303551+999766719+1000180927+1000627263+1000982335+1000950143+1000308223
1169+998955711+996691839+992866239+986014015+973765183+953379327+922849343
1159+882147519+834103807+784438655+740729791+710696639+700335999+711964863
1149+742602431+784255231+827004415+863174335+889598207+906902463+917315839
1139+922960575+925403519+925946239+925604223+924389183+920687871+911632191
1129+894464511+868155327+834281919+796552447+759543359+727885631+706070911
1119+697822207+704669567+724767999+753023231+782684031+807780991+825213759
1109+835306495+840675775+844492415+849336319+856826751+867468479+880524927
1099+894373183+907418879+918718143+927721343+933745279+936011455+934247871
1089+929371839+923749183+920479743+921770111+927628159+936082431+944608319
1079+951451903+956030975+958481983+958829439+956372415+949800319+938078079
1069+921512447+902237823+883838015+870336191+864876479+868534847+879885183
1060+895678079+912251263+926759487+937493887+943319423+942973439+935310591
1050+921083839+904927231+894505535+895839743+908744639+927274495+944646271
1040+957449023+965904575+971706559+976245311+980128575+983480895+986383551
1030+989014207+991388927+993152191+993780479+992862591+989934015+983981887
1020+973127295+954667903+925500799+883054847+826595007+758262207+683252543
1010+609182143+545179967+500852352+484401152+499462080+542218495+601739583
1000+664515071+720072127+763534079+794233279+812352447+816400319+804876671
990+782442559+763059263+762206015+784061951+818578559+851627327+875697471
980+891168127+901395455+908987135+915243199+920807743+925976959+930662335
970+934574271+937586495+939823295+941530687+943023871+944599999+946414975
960+948536255+951022591+953816383+956694143+959441663+961990719+964345983
950+966452415+968191359+969539583+970689791+971927487+973377919+974897791
941+976190783+977085439+977745151+978526783+979595903+980790911+981859839
931+982711615+983474879+984390527+985574143+986878143+988130815+989390015
921+990618431+991267007+990707327+988948543+986273855+982027839+973691327
911+956431743+923707199+870755519+800378687+726143487+668624831+645793407
901+663274495+711052479+769685695+821722431+859338111+883533247+898384383
891+906260031+906219519+895132671+871579071+841010175+816441215+810754111
881+826607999+854782847+882612991+902913471+915496831+923309823+929094783
871+934532095+940382015+946631487+952840319+958618815+963784319+968231423
861+971925887+975008959+977716607+980221887+982633663+984972607+986989567
851+988229695+988447743+987794367+986541503+984802367+982450623+979114495
841+974362815+968040511+960300223+951347647+941435455+931025343+920659519
832+910720063+901486783+893320831+886648063+881848767+879247039+879124991
822+881611135+886526207+893453823+901967807+911685951+922169343+932899839
812+943331391+953008191+961762879+969647039+976537727+982072319+986135999
802+989161855+991830591+994578687+997321343+999552767+1000857023+1001290687
792+1001082111+1000120831+998074495+994862335+990622911+985296895+978579967
782+970128767+959402431+945459583+927378751+904813247+877865343+846762175
772+812051711+774819199+736464959+698572799+663035903+631851455+606496959
762+587308223+573225407+562176255+551909439+540749183+528049824+514278656
752+500657664+488499872+478361440+469422656+460186336+450684960+444347840
742+447393440+465435936+499548640+545372735+596100927+645916095+691244479
732+730515199+763511615+790666623+812648447+830215423+844109887+855104255
722+863989951+871216959+876897471+881605759+886650943+892998143+900237631
713+906948863+912035711+915573887+918399871+921227775+924381183+927977471
703+931867775+935614015+938861503+941536383+943654527+945270527+946580415
693+947859583+949401727+951427519+953793343+956021567+957847039+959383295
683+960705663+961772287+962747007+963896895+965236735+966648639+968171007
673+969849215+971529663+972942463+973657791+973296447+972220031+970684415
663+967645055+960879551+948886783+933524159+919675391+911438399+909009983
653+909788479+911543103+913649471+916170495+918920063+921433087+923102911
643+923171071+921449599+919667775+921311423+928958271+941749823+955949887
633+967865151+975964927+980688895+983178623+984337343+984487935+982817663
623+976637759+963445311+946327103+935281343+938905471+954961343+972945791
613+985080575+990929279+993461375+994664127+994333631+990672895+981011199
603+961611839+927737407+876919167+814290111+753647167+711833023+701494783
594+725882943+776188223+834513791+884155391+918435263+939043455+949488959
584+952605247+951331583+948350015+945023167+941943807+940217855+941328831
574+945749247+952236799+958766911+964111423+968450943+972569215+977041599
564+982176639+987677951+992284991+994827135+995698879+996363519+997441983
554+998165311+997674879+995951423+993210047+989204287+983778815+977776191
544+972813183+970194943+970248319+972485503+976151999+980687807+985819967
534+991273279+996311679+999629439+1000033279+997345215+992367167+985606591
524+975605759+958574015+929800959+885549375+825227071+754044799+683190655
514+625134975+588724735+577529599+589111487+615168255+644414399+667732735
504+682031167+689122047+691891967+691950015+689577343+685142655+680656639
494+679531263+684213183+694640639+709492095+727919039+749010175+770583359
484+789921663+805425855+816504767+821917759+819271935+807086719+787052863
475+762936511+738284095+716590847+701754303+696821311+702838911+718302271
465+739952255+764698111+790227647+815104127+839111039+861843583+881557311
455+897429119+910530879+921825727+931375871+939190079+945512191+950426623
445+953873215+955985407+957171903+957730175+957587967+957073023+957624575
435+960250943+963215359+963473471+960750847+958421887+959465215+962864575
425+965074687+964218047+961415103+958105215+954987647+953909695+956229247
415+960084863+962810623+963957695+966070143+971577855+979312255+986076607
405+990650943+993826431+995206271+992322367+982723455+966961983+950421503
395+939694207+938588735+948395199+967007999+988177471+1004746559+1013999551
385+1019435839+1025727167+1032230783+1035825599+1036953663+1039819775
377+1049636799+1065463039+1073741823
##END=
