##TITLE=JPK-946,X16512
##JCAMP-DX=4.24
##DATA TYPE=INFRARED SPECTRUM
##DATE=14/12/2021
##SAMPLING PROCEDURE=Diamant-ATR
##ORIGIN=Angelika Moesle
##XUNITS=1/CM
##YUNITS=TRANSMITTANCE
##RESOLUTION=4
##FIRSTX=3997.453
##LASTX=373.96442
##DELTAX=-1.4165319
##MAXY=0.82547867
##MINY=0.5042057
##XFACTOR=1
##YFACTOR=7.6878692e-010
##NPOINTS=2559
##FIRSTY=0.76606035
##XYDATA=(X++(Y..Y))
3997+996453411+997208483+997974565+998411916+998321670+997772907+996998995
3988+996326028+996027922+996160732+996615062+997162740+997369282+996904330
3978+996100336+995712527+996045289+996771752+997545199+998242046+998712270
3968+998812517+998683196+998676683+998967579+999324065+999351356+998970137
3958+998462078+998062717+997806478+997742515+997969835+998451069+998957732
3948+999153808+998778791+997980224+997355869+997381067+997815782+998064888
3938+997940374+997676071+997514109+997512559+997608774+997728559+997858966
3928+998060701+998424786+998947731+999387951+999421134+999029061+998544183
3918+998351597+998588841+999053405+999459124+999692336+999679699+999218003
3908+998264064+997307102+997141962+998108383+999592012+1000695352+1001169685
3898+1001208373+1000833202+999960283+998931217+998621016+999479592+1000516333
3888+1000639220+1000004940+999147373+998289650+997985884+999096590+1001136580
3878+1002058731+1001139293+999691716+998921603+998863222+999173578+999831504
3869+1000470823+1000487027+1000042543+999812974+1000077354+1000407248
3860+1000268080+999478274+998236464+997189565+997501394+999697531+1001740312
3850+1002102536+1001532994+1000788079+1000084022+999486570+999084650+998966028
3840+999290727+1000112786+1000914842+1001108824+1000971982+1000954305
3832+1000829790+1000336617+1000040294+1000606889+1001529506+1001594554
3823+1000640460+999755912+999532933+999125741+998289262+998173586+999411365
3813+1000919338+1001473683+1000913834+999869262+999327399+999613100+999837939
3803+999473312+999145899+999315847+999393300+999107677+999017353+999442920
3793+1000092783+1000647981+1001032611+1001255899+1001351107+1001295983
3785+1000950196+1000281183+999567744+999222190+999534406+1000414691+1001281950
3775+1001524776+1001101536+1000596733+1000565953+1000798080+1000700081
3767+1000300255+999972300+999746763+999623256+999964469+1000992683+1002093154
3757+1002296130+1001366613+999910120+999134735+1000138216+1001961507+1002486313
3747+1001869633+1001763804+1002810314+1003687575+1003596476+1003075314
3738+1002480498+1001845599+1001469884+1001631381+1001807298+1001455309
3730+1000902127+1000848165+1001609905+1002736892+1003382258+1003229755
3721+1002576094+1001827534+1001458410+1001824510+1002700530+1003536545
3713+1004137021+1004550802+1004483661+1003871245+1003355355+1003407844
3704+1003871788+1004329685+1004475287+1004244091+1003802553+1003391717
3696+1003100667+1002736117+1002100907+1001633552+1002436073+1004631124
3687+1006368899+1006597382+1006103434+1005631504+1005147324+1004331313
3679+1003143154+1002001823+1001537259+1001704803+1001825906+1002221545
3670+1003762237+1005880998+1006858351+1006412394+1005467449+1004726410
3662+1004294718+1003912026+1003528171+1003513518+1003943581+1004174235
3653+1003981726+1004033207+1004864414+1006017064+1006520084+1006313232
3645+1005903172+1005636931+1005638094+1005743148+1005696862+1005506292
3636+1005360379+1005274940+1005052737+1004742924+1005098247+1006996200
3628+1009430977+1010226598+1009415393+1008166140+1007189485+1006765624
3619+1006760507+1006563966+1005937130+1005448764+1005510788+1005768191
3611+1005712834+1005371621+1005057078+1004960397+1005107318+1005409921
3602+1005721052+1005941704+1006108861+1006388282+1006931850+1007519843
3594+1007426961+1006249036+1004688109+1003973586+1004709740+1006077616
3585+1006689101+1006285398+1005408680+1004544135+1004042433+1004032742
3577+1004287895+1004531187+1004759980+1004996217+1005073825+1005002962
3568+1005197874+1005900148+1006585753+1006693288+1006256014+1005517068
3560+1004810918+1004493662+1004527233+1004551190+1004514130+1004726797
3551+1005205782+1005560175+1005640187+1005735860+1006071103+1006422395
3543+1006440072+1006119482+1005721595+1005413255+1005160117+1004861003
3534+1004420628+1003784566+1003050969+1002495306+1002412504+1002907770
3526+1003771851+1004613137+1005232763+1005755786+1006239733+1006433172
3517+1006172126+1005713066+1005421473+1005375497+1005434033+1005449306
3509+1005334018+1005145308+1005107318+1005320218+1005490785+1005245245
3500+1004742226+1004547701+1004863639+1005230592+1005104682+1004556850
3492+1004162296+1004315341+1004934502+1005777727+1006688558+1007403004
3483+1007474720+1006715461+1005556997+1004663997+1004317667+1004429001
3475+1004873718+1005437832+1005645924+1005181438+1004435592+1004142758
3466+1004493817+1005090649+1005633520+1006080019+1006356649+1006462944
3458+1006573037+1006691660+1006620176+1006437901+1006551717+1007131182
3449+1007831672+1008139469+1007889045+1007453710+1007290585+1007337181
3441+1007113194+1006389212+1005481714+1004899071+1004878990+1005209969
3432+1005434808+1005329909+1005141354+1005220203+1005572115+1005932013
3424+1006145378+1006244850+1006210969+1005942480+1005571107+1005484660
3415+1005817190+1006196393+1006227715+1005986905+1005810677+1005873245
3407+1006151037+1006520627+1006694451+1006307417+1005329521+1004293400
3398+1003926059+1004527698+1005758034+1006950535+1007549072+1007383622
3390+1006730192+1006065754+1005700971+1005631116+1005663679+1005644374
3381+1005591110+1005620029+1005783697+1006060559+1006410921+1006735232
3373+1006876958+1006764926+1006463099+1006130647+1006008691+1006229266
3364+1006569394+1006702746+1006680030+1006774695+1006953559+1006922391
3356+1006645374+1006473410+1006718408+1007286398+1007828261+1008159317
3347+1008333374+1008320038+1007950992+1007313301+1006867732+1006973949
3339+1007517052+1008147532+1008719477+1009297624+1009808552+1009933841
3330+1009459973+1008606902+1007863925+1007525115+1007503252+1007621176
3322+1007925872+1008536892+1009280800+1009760017+1009813204+1009644264
3313+1009462687+1009251571+1008996417+1008859110+1008871592+1008717306
3305+1008216302+1007805312+1008045347+1008840968+1009627983+1010076576
3296+1010163100+1009917715+1009518587+1009259556+1009157061+1008989672
3288+1008804838+1008937804+1009461369+1010016644+1010255362+1010180389
3279+1009999743+1009863676+1009826771+1009897014+1010027111+1010194422
3271+1010508810+1011033693+1011541830+1011761707+1011800860+1011963287
3262+1012233249+1012342800+1012265967+1012241855+1012350553+1012434597
3254+1012443047+1012560584+1012918156+1013359073+1013593759+1013512119
3245+1013304104+1013256423+1013413733+1013512972+1013322867+1012922110
3237+1012528021+1012227047+1012056944+1012139592+1012503676+1012957154
3228+1013308523+1013550497+1013743626+1013917140+1014136552+1014463422
3220+1014798897+1014918217+1014726174+1014379611+1014081970+1013889074
3211+1013813481+1013914039+1014112828+1014204314+1014237032+1014511103
3203+1015029784+1015364252+1015239660+1014911240+1014836422+1015180271
3194+1015649255+1015789586+1015535672+1015338279+1015560172+1015980777
3186+1016140180+1015945112+1015707093+1015770281+1016217943+1016743834
3177+1016843151+1016388821+1015957362+1016243296+1017191807+1018017898
3169+1018065812+1017365554+1016392775+1015619018+1015299591+1015407514
3160+1015739423+1016161888+1016629399+1016958130+1016901920+1016558691
3152+1016376959+1016605752+1017018681+1017333689+1017634198+1018130550
3143+1018685748+1018917797+1018772117+1018657139+1018868255+1019201637
3135+1019343441+1019298551+1019159616+1018818093+1018243280+1017757782
3126+1017756929+1018282975+1018971216+1019342201+1019193264+1018740640
3118+1018353994+1018222346+1018303831+1018421911+1018400124+1018272276
3109+1018300962+1018639229+1019100382+1019418724+1019600999+1019873364
3101+1020359870+1020937784+1021399480+1021639515+1021632150+1021357691
3092+1020844825+1020178525+1019358792+1018223277+1016629477+1014732996
3084+1012982817+1011727904+1010908093+1010295367+1009937718+1010061690
3075+1010530906+1010766289+1010341033+1009379574+1008156681+1006581411
3067+1004382250+1001622000+998758246+996289046+994485060+993321865+992566018
3057+992056020+991926777+992453133+993648425+995086388+996170966+996627157
3047+996698020+996859362+997443711+998498518+999794289+1000929417+1001525939
3037+1001401502+1000684265+999792506+999128300+998776543+998642182+998688003
3027+998848491+999007430+999274756+999944622+1001054475+1002320630+1003553989
3017+1004816888+1006133438+1007338344+1008326706+1009262270+1010344910
3009+1011486628+1012451188+1013229752+1013989244+1014723693+1015284395
3000+1015739733+1016386805+1017302676+1018082481+1018241729+1017878497
2992+1017691648+1018205057+1019184271+1019981830+1020276834+1020240085
2983+1020132394+1020022301+1019863285+1019617125+1019232417+1018583872
2975+1017488052+1015853549+1013815109+1011584937+1009123800+1006134678
2966+1002474451+998433934+994455675+990645193+986736479+982558811+978338966
2956+974462660+971184504+968684756+967128094+966507925+966663607+967479385
2946+968831677+970374462+971606271+972088667+971518971+969789105+967083746
2936+963699295+959704832+955017477+949828342+944633005+939750582+935135330
2927+930779264+926936838+923801959+921340977+919639487+919063743+919825406
2917+921579850+923684190+925811634+928145853+930913469+933905382+936658500
2907+939003961+941167379+943341265+945395830+947072666+948328354+949377888
2897+950424321+951478197+952515326+953703718+955347913+957603748+960244136
2887+962712406+964547559+965815342+967005672+968518143+970351591+972127743
2877+973243488+973235503+972206902+970726995+969301746+968164758+967416430
2867+966969931+966468229+965573446+964186654+962178606+959197161+955054226
2857+950152188+945299304+941188778+938164225+936350237+935820082+936621828
2847+938719035+941931135+945893578+950088768+954024385+957528931+960847326
2837+964257517+967609250+970450132+972594633+974289378+975835032+977332539
2827+978787791+980172956+981383522+982348315+983188283+984099812+985091896
2817+986001177+986737254+987358431+987910062+988352918+988678470+988966574
2808+989333682+989859729+990498582+991041685+991292575+991308391+991395381
2798+991854595+992735810+993783173+994600890+994940010+994881474+994743857
2788+994783553+995000096+995277269+995644920+996210507+996874480+997355326
2778+997540160+997632964+997912850+998416180+998909353+999172803+999240177
2768+999297860+999456100+999703191+999940512+1000007344+999844374+999627753
2758+999575187+999707300+999933225+1000209622+1000472063+1000561611+1000359799
2748+999933612+999517427+999371902+999599532+1000058282+1000529204+1000990899
2738+1001592073+1002304658+1002785116+1002744723+1002348153+1002080982
2730+1002269149+1002821013+1003356518+1003527319+1003319071+1003087564
2721+1003216808+1003747894+1004406130+1004906669+1005137012+1005144300
2713+1005070026+1005066692+1005195626+1005388832+1005500554+1005421395
2704+1005168800+1004845419+1004538165+1004346819+1004432025+1004841853
2696+1005339135+1005621037+1005682829+1005774083+1006003651+1006183833
2687+1006113823+1005855955+1005634605+1005601189+1005816802+1006298501
2679+1006916964+1007425876+1007732510+1007945720+1008124738+1008224753
2670+1008271659+1008327947+1008349655+1008292050+1008270574+1008454244
2662+1008838254+1009205130+1009332823+1009237072+1009125118+1009114419
2653+1009155588+1009238933+1009451600+1009787929+1010087275+1010221713
2645+1010241018+1010306454+1010515787+1010804977+1011021133+1011090058
2636+1011118202+1011306911+1011730462+1012218673+1012530657+1012629354
2628+1012698124+1012884275+1013099268+1013112681+1012840470+1012481503
2619+1012323185+1012485457+1012874971+1013284721+1013552745+1013723933
2611+1013972032+1014324099+1014627322+1014811535+1014964581+1015158330
2602+1015391000+1015630570+1015774312+1015715156+1015543503+1015510552
2594+1015706938+1015957827+1016112579+1016241435+1016431696+1016570786
2585+1016523957+1016453327+1016732205+1017480920+1018322904+1018744594
2577+1018634655+1018313755+1018122332+1018155592+1018290806+1018302591
2568+1018103957+1017902144+1017890980+1017952384+1017975643+1018184899
2560+1018774831+1019536105+1020140535+1020495006+1020652083+1020676660
2551+1020681002+1020780707+1020942513+1020978410+1020782490+1020550983
2543+1020627971+1021085635+1021554696+1021519575+1020812882+1019905927
2534+1019598595+1020242721+1021391107+1022317057+1022612061+1022211227
2526+1021241472+1020045793+1019130929+1018883296+1019306149+1020043001
2517+1020659759+1020885994+1020673172+1020254893+1020072851+1020295984
2509+1020539276+1020415459+1020119059+1020082852+1020355140+1020634716
2500+1020632701+1020251172+1019726676+1019647207+1020451589+1021813649
2492+1022835117+1022985217+1022572753+1022187348+1022044691+1022089814
2483+1022320390+1022684087+1022961880+1023001731+1022899003+1022872332
2475+1023055615+1023344184+1023451099+1023277895+1023090736+1023160591
2466+1023461721+1023854104+1024237184+1024446749+1024362939+1024149341
2458+1024064445+1024115460+1024213072+1024525133+1025256093+1026113041
2449+1026452005+1026103582+1025682978+1025851142+1026541398+1027135594
2441+1027201805+1026848265+1026462007+1026292757+1026312605+1026366334
2432+1026347416+1026247634+1026140642+1026075981+1025924641+1025492019
2424+1024898444+1024607626+1024886892+1025447749+1025799584+1025802608
2415+1025692824+1025687319+1025780046+1025926657+1026188323+1026553493
2407+1026794691+1026743288+1026612804+1026803220+1027374621+1027900358
2398+1027912065+1027397338+1026795079+1026533335+1026624046+1026722200
2390+1026565510+1026269808+1026156768+1026378274+1026802367+1027211032
2381+1027510998+1027749328+1027955405+1028043324+1027991379+1028102868
2373+1028764128+1029735744+1030041525+1029034090+1027390670+1026445338
2364+1026595050+1027073104+1027312364+1027557594+1027973082+1028268784
2356+1028496802+1029065335+1029725277+1029634644+1028539444+1027005963
2347+1025739497+1025158482+1025259504+1025611727+1025690576+1025434569
2339+1025411542+1026119321+1027200720+1027917880+1028242113+1028705282
2330+1029241407+1029036416+1027729868+1026106838+1025403402+1026120406
2322+1027498050+1028359650+1028454858+1028418418+1028619301+1028768547
2313+1028621394+1028494864+1028831502+1029530752+1030093393+1030325365
2305+1030502058+1030820399+1031080050+1031020816+1030719609+1030509423
2296+1030577805+1030753800+1030747520+1030469728+1029962909+1029308782
2288+1028868329+1029160078+1030135260+1031104239+1031723012+1032376985
2279+1033270139+1033908838+1033878368+1033504825+1033413959+1033866428
2271+1034706397+1035592031+1036065744+1035742208+1034753923+1033811381
2262+1033488388+1033607243+1033634844+1033444273+1033265952+1033149579
2254+1033049719+1033272930+1034247569+1035893315+1037650783+1039060370
2245+1039994305+1040455614+1040430183+1039891887+1038881584+1037598682
2237+1036301592+1035084902+1033890308+1032790224+1032157572+1032454438
2228+1033742999+1035508452+1037161331+1038443070+1039126116+1038929265
2220+1038058285+1037152880+1036498753+1035997129+1035802062+1036133583
2211+1036620554+1036671026+1036346948+1036263137+1036912380+1038461057
2203+1040706348+1042821000+1043726094+1043210515+1042090583+1041027481
2194+1040044080+1039346846+1039453683+1040264423+1040959331+1040975070
2186+1040495232+1040098507+1040190148+1040636183+1041205026+1042272857
2177+1044231517+1046465722+1047957879+1048407790+1047926479+1046567287
2169+1044775241+1043119493+1041250304+1038362438+1034963954+1033087787
2160+1034413175+1038432681+1042612365+1044754307+1044709805+1043663449
2152+1042851780+1043019711+1044183138+1045442083+1045558224+1044413327
2143+1043559248+1044620179+1047366009+1049990736+1051070584+1050501276
2135+1048755593+1046221887+1043484818+1041468476+1040796206+1041248908
2126+1042127022+1042988079+1043804400+1044587694+1045118702+1044956275
2118+1043770907+1042022200+1041037017+1041678429+1043103289+1043724311
2109+1043190357+1042491339+1042394426+1042746415+1043104918+1043289596
2101+1043405504+1043709735+1044331067+1045050785+1045572490+1045885326
2092+1046110010+1046204210+1046029378+1045523490+1044794933+1044218415
2084+1044175850+1044465350+1044453178+1044051646+1043872317+1044100258
2075+1044063818+1043340456+1042594533+1042858757+1044272376+1045739491
2067+1045943242+1044801679+1043581499+1043361079+1044002802+1044843700
2058+1045600478+1046381136+1047267545+1047999513+1048034944+1047091783
2050+1045499068+1043950701+1043247652+1044153754+1046706920+1049618898
2041+1051095162+1050573690+1049400804+1049522760+1051286973+1052787116
2033+1052283553+1050834426+1050973206+1053312387+1055858730+1056474247
2024+1055103192+1053467913+1053156007+1054242601+1055517207+1055650870
2016+1054242368+1052074996+1050224026+1049081300+1048716828+1049619518
2007+1051944821+1054615369+1056611786+1058335528+1060256741+1061217114
1999+1059653706+1056053720+1052805258+1051762624+1052963343+1055368115
1990+1057853209+1059473370+1059651613+1058683564+1057664809+1057461136
1982+1058063085+1059224651+1060959247+1062569096+1062217726+1059139755
1973+1055161496+1052541111+1051609501+1051392647+1051221227+1051075469
1965+1051307053+1052407603+1054344864+1056105510+1056576820+1055830354
1956+1054852923+1054211278+1053615920+1052774866+1052026384+1051785263
1948+1051876362+1051856901+1051667649+1051594072+1051754406+1051806972
1939+1051224871+1049929564+1048636506+1048404379+1049600136+1051320854
1931+1052019716+1050987161+1049212792+1048365381+1048942985+1049918244
1922+1050213016+1049921036+1049685807+1049659447+1049590444+1049427475
1914+1049337074+1049460813+1049944372+1050806747+1051563137+1051480335
1905+1050500656+1049512836+1049429723+1050160528+1050791008+1050720378
1897+1050182624+1049601996+1049027183+1048476172+1048215204+1048331422
1888+1048606967+1049075873+1049980967+1051093921+1051828138+1052032121
1880+1052004985+1051851707+1051492584+1051172615+1051355898+1052128802
1871+1053040719+1053503500+1053371155+1053184849+1053437366+1053857273
1863+1053778424+1052989859+1052073445+1051720602+1051912569+1052128724
1854+1052116785+1052074453+1052207651+1052412720+1052388995+1051978625
1846+1051361557+1050820237+1050311170+1049668828+1049123399+1049027106
1837+1049280942+1049425536+1049316761+1049240238+1049354518+1049462751
1829+1049371963+1049186276+1049015631+1048753190+1048321421+1047898800
1820+1047749631+1047979432+1048460821+1048929882+1049259931+1049615099
1812+1050187741+1050827060+1051177034+1051140440+1050901335+1050689598
1803+1050707973+1051015693+1051432731+1051818834+1052277196+1052878292
1795+1053587621+1054460307+1055406570+1055912459+1055734060+1055262983
1786+1054932780+1054819430+1054751823+1054619323+1054433869+1054227017
1778+1054067381+1054101262+1054473798+1055158162+1055738712+1055694442
1769+1055122808+1054525356+1054111574+1053769818+1053516758+1053584210
1761+1053950620+1054286406+1054530395+1054802296+1054953015+1054810824
1752+1054612733+1054810746+1055426573+1055885711+1055810971+1055380598
1744+1054917971+1054546211+1054197245+1053782766+1053332235+1053062427
1735+1053241756+1053664687+1053570487+1052939309+1052275102+1051561199
1727+1050495849+1048942442+1046845235+1044223997+1041334580+1038501450
1718+1036027599+1034408989+1033926515+1034157556+1034683990+1035437899
1710+1036448823+1037802588+1039636578+1041683158+1043245248+1044239270
1701+1045372383+1046957499+1048322584+1049336454+1050527171+1051742078
1693+1052617246+1053350687+1054145145+1054788418+1055177777+1055827485
1684+1057268394+1058727524+1059176272+1058888632+1058505941+1058547497
1676+1059303500+1060475687+1061472423+1062273781+1063222215+1064205538
1667+1064763682+1064929908+1065084814+1065442076+1065875086+1066166601
1659+1066295380+1066322981+1066409428+1067147366+1069127812+1070955445
1650+1071520799+1071764633+1072500943+1073448602+1073741823+1073403866
1642+1072885651+1072348905+1071759516+1070899235+1069045396+1065529221
1633+1061069341+1056441761+1051331398+1045050320+1037545574+1029689613
1625+1022438005+1016610171+1013056626+1011884981+1012706187+1015546837
1616+1019815139+1023321468+1024967369+1025561332+1026074198+1027093495
1608+1028815608+1030883199+1032538171+1033272465+1033381861+1033841076
1599+1035576214+1038901044+1043485826+1048551222+1053194152+1056877019
1591+1059608273+1061587634+1062831382+1063222215+1062759124+1061580966
1582+1059787757+1057413299+1054456663+1050511122+1044384408+1035507445
1574+1025594515+1016587067+1010380186+1009772035+1015074752+1022636793
1565+1029452059+1034281838+1036653815+1036273449+1031423356+1020982907
1557+1009893836+1000673023+992740307+987437202+986684378+990471989+996750741
1547+1003535847+1010286839+1016832840+1022534841+1027615897+1032940168
1538+1037182419+1039305600+1040358390+1041505845+1042881086+1043529554
1530+1042723699+1040095095+1035018536+1027387569+1018173812+1008693969
1521+1001294742+999042784+1002331329+1008774524+1014789284+1017449054
1513+1016619940+1014163920+1012353809+1013867365+1021524770+1032390320
1504+1039330952+1042211918+1043242147+1042930628+1040357150+1034146547
1496+1024892396+1015869675+1009775911+1007957660+1011467865+1019308707
1487+1027257938+1031902109+1032450949+1029199696+1023304644+1017114276
1479+1013040732+1011997943+1013121674+1014214936+1012429557+1006077383
1470+996391619+985246260+973085171+960347795+949505194+943730857+943047578
1460+945502280+950466730+958395260+966569019+970661248+971581926+972599208
1451+976521567+985143997+997569234+1009181948+1015060176+1014000718+1008608220
1441+1003263404+1001418637+1004180670+1009895851+1014782616+1016768954
1432+1016104903+1012911876+1007013180+998569458+987001867+970619382+949164058
1422+924893282+899368989+873360515+851451482+838825363+834950685+837790327
1412+846825066+861148876+878282557+895445699+910990076+924086342+934104636
1402+941480061+947982799+955189440+963243414+971481679+979622643+987316874
1392+993842407+999118996+1003752856+1007911219+1010515710+1010061069+1006373628
1383+1000846770+995577933+992272254+991191475+991169223+990378797+986935268
1373+979788791+969186225+955887294+941157610+927201606+916007946+908417140
1363+904759858+905009585+908448152+914265209+921936104+930851987+940153587
1353+949104592+957534281+965732385+973797678+981139067+986594288+988903697
1343+987023653+980149387+968221122+953183564+938744930+927853020+921306243
1333+918281380+917014838+915487094+912217001+906571210+898546155+888649196
1323+877992669+868157658+860808981+857283114+858094396+862690033+869769212
1313+877604550+884227306+887869624+887297525+881813463+871491714+857614946
1303+842639722+829530819+820777284+817504245+819192710+824243220+830965448
1293+838197984+845197927+851328053+856133333+859676567+862691893+866346617
1283+871654993+878856517+887268993+895757915+903373221+909743692+915163093
1273+920311214+925696889+931298487+936719051+941539372+945407150+947950779
1264+948920457+948514350+947460009+946692842+946902796+948267415+950471460
1254+952975471+955375746+957569169+959571867+961160783+961730246+960631247
1244+957760981+953799778+949886645+947042429+945660908+945245420+944581292
1234+942316773+937589024+930277562+920766397+909628016+897759605+886688055
1224+878226579+873574423+872891377+875698921+881399914+889323326+898483510
1214+907639506+915903201+923282115+930352767+937336816+943626655+948133829
1204+949904555+948390456+943362818+935043146+924786988+915533767+910801909
1194+912553252+919969458+930389361+941278713+951258785+959780580+966573438
1184+971610458+975227966+978005273+980504168+983020894+985338211+986482178
1174+984653537+977614983+963685029+943009898+918300143+894273434+875864992
1164+866219311+865586117+871587929+880595920+889351548+895723337+898400552
1154+896662622+891031717+883899739+878773714+878251079+882384090+888916135
1145+894964310+898253011+897193553+891193369+881850600+873095825+868618966
1135+868575781+869476534+867912195+864142882+861692444+863818260+870758505
1125+879834645+887535389+891884943+893570230+894860574+897313803+900762527
1115+904413839+908178578+912522084+917463121+922223975+925839468+927978542
1105+929282454+930944016+933820951+937903954+942617127+947381006+951775450
1095+955519411+958589785+961241182+963774345+966306500+968713365+970732577
1085+972151545+972842964+972567187+970922760+967611886+962726206+956928843
1075+951575575+948387200+948467832+951484864+955984751+960551236+964577331
1065+968062417+971067432+973579274+975656479+977402317+978843071+980021616
1055+981148293+982468410+983961032+985258975+985904496+985677176+984731843
1045+983564773+982869942+983204099+984570967+986377511+987874553+988562561
1035+988236467+987018458+985582356+985027623+986037074+988083964+989722344
1026+989633649+987202284+982409254+975869843+968978210+963336529+959813065
1016+958432552+958996123+961256378+964581905+968046911+970957959+972946390
1006+973598037+972486555+969828258+966900463+965460407+966546458+969816473
996+974017633+977967748+981075182+983193710+984291313+984312402+983187585
986+980713036+976250830+968675763+956901164+940681959+921025194+899638873
976+877493216+854092025+829303653+806156298+790238223+785259894+790051761
966+800376147+812536848+824846409+836897328+848388163+858542291+866528814
956+872371145+877123161+882091799+888100744+895356926+903675668+912758398
946+922314919+931938736+941000843+948857502+955099659+959242671+960162031
936+956744087+949991389+943843819+942491527+946832863+954367614+962086965
926+968441155+972977635+975457225+975821697+974622063+973037101+972287224
916+973069509+975526770+979438895+984253633+989184901+993447310+996216554
907+996378361+992705341+984523518+971925853+954889163+932513317+904344604
897+872986895+844424790+824878972+817535878+822019560+835547749+853989607
887+873044965+889712221+902943157+913118916+921237861+928301380+934751320
877+940174830+943659528+944722010+944130838+943570833+943976862+944401110
867+943391194+941474246+941210564+944456545+950496580+957247572+963363897
857+968618390+973133550+977086534+980712881+983964599+986470006+988154284
847+989484790+990855922+992160144+993187427+994109888+995374027+997224299
837+999327787+1000788777+1000522846+997554658+991075566+980714664+967015131
827+951544951+936845039+926492199+924004004+930202512+941960442+954510891
817+964713165+971834211+976306264+978512635+978219879+974907609+969020465
807+962620997+958331685+957973027+962311572+971119533+982841721+994813247
798+1004516689+1010647667+1013014449+1012219139+1010008969+1009057201
789+1011162006+1015869675+1021698128+1028218079+1035790820+1043530407
781+1048680388+1048111467+1039872737+1023776418+1001568736+976354333+950778792
771+925638508+900734306+876453606+853229805+829795509+803738734+774182762
761+742753570+712031614+684733726+664590533+655845837+660293778+675454843
751+696582599+719891528+743500347+766526599+788386323+808604022+826679469
741+842108093+854580779+864141796+871298429+877077961+882689793+888608105
731+893766615+896162316+894918490+891717399+889806188+891625448+897541821
721+906411109+916808683+927837436+939044121+949691035+958370605+963203331
711+961530527+949295628+922709783+882414714+835219407+789769161+750384537
701+716817201+689691354+673471528+673197069+689412321+716688189+746863864
691+773821934+795577147+812697802+825888035+835618457+843114598+850170673
681+857847150+866111078+874428347+881770899+886556873+887877455+886837612
671+885911275+887482513+892870902+900013502+905381345+909377204+913862591
662+919177404+924176975+927765100+930089085+932297549+935366062+939234072
652+943245902+947030024+950444479+953251481+955552206+958017840+961023941
642+963942121+965841160+966527618+966344723+965382721+963393049+959843069
632+953748530+944281868+931567519+916311168+899662520+884285144+874068061
622+871680734+877208445+888777355+902351442+910731821+906482360+889351315
612+869327830+857838157+855254521+852528307+846230327+844044579+852593898
602+867822105+881500859+891083120+899199119+907764874+916161767+923144653
592+928376662+932441911+936023367+939307726+942142019+944463290+946481494
582+948490936+950561938+952645578+954929092+957703918+960952845+964385287
572+967618321+970037203+970830265+969354157+965236653+958265551+948531175
562+936421876+922335232+907166801+893464167+884909267+883632490+888592444
552+896912736+905560131+911235849+910604903+902837560+891851915+884286462
543+884202264+890274319+898316276+905409721+910899133+914706979+916527247
533+916494219+915569664+915153169+916282870+918829523+921557056+923422756
523+924557419+925605945+926571746+926472119+924280401+920379053+916253485
513+912365550+906567178+894717452+874248630+848788455+827984390+820440335
503+827345381+842505051+857728451+868780230+875836771+880340844+883178392
493+884447571+883647996+880363715+874986181+868505073+861976827+856482144
483+852901385+851215556+850618801+850609188+851294870+852757178+855338410
473+860565689+869727501+880917905+890010327+894705203+896306601+897715257
463+900212756+902708549+903472072+901781824+898412181+895300251+894357555
453+896466857+900854401+905082154+907242549+907955057+909373792+912882215
443+917894889+922301661+924330021+924193412+923282658+922424315+921609854
433+920960301+920977048+921681648+922277161+922203817+922104190+922762426
424+923619529+924009587+925501589+930340672+935727433+936453198+933349176
414+930188479+928811377+928489547+928015447+927379074+926734173+925488486
404+923682639+922629926+923035257+923838088+923543084+921423703+917383186
394+913242190+912415325+916029732+921276859+925477864+929435190+934422124
384+938781835+941296856+943586805+946329611+947864565+945563684+937462184
374+926930481
##END=
