##TITLE=X8288
##JCAMP-DX=4.24
##DATA TYPE=INFRARED SPECTRUM
##DATE=31/10/2018
##SAMPLING PROCEDURE=Diamant-ATR
##ORIGIN=ComPlat
##XUNITS=1/CM
##YUNITS=TRANSMITTANCE
##RESOLUTION=4
##FIRSTX=3997.453
##LASTX=373.96442
##DELTAX=-1.4165319
##MAXY=0.95747131
##MINY=0.55830967
##XFACTOR=1
##YFACTOR=8.9171465e-010
##NPOINTS=2559
##FIRSTY=0.93260324
##XYDATA=(X++(Y..Y))
3997+1045853898+1046519852+1046739163+1046370592+1045867935+1045566875
3989+1045316884+1045076183+1045204855+1045813458+1046453611+1046756810
3980+1046817236+1046766101+1046520989+1046085776+1045669345+1045440610
3972+1045386801+1045434727+1045557718+1045747351+1045947612+1046059774
3963+1046059239+1046065656+1046226279+1046534290+1046799322+1046748187
3955+1046223605+1045478710+1045172704+1045802028+1047086211+1048117394
3946+1048302949+1047949017+1047808513+1048201950+1048614035+1048451607
3938+1047849889+1047280122+1046967030+1047091759+1047894206+1048936150
3929+1049194497+1048542647+1047955902+1048142259+1048727133+1048973382
3921+1048754405+1048328483+1047753836+1046972846+1046210370+1045872280
3912+1046158033+1046937085+1047802631+1048285436+1048232965+1047987451
3904+1048102488+1048745715+1049576771+1050193529+1050296534+1049826897
3895+1049157400+1048866233+1049244763+1049814330+1049754372+1049178923
3887+1048923116+1049255391+1049353316+1048602739+1047590472+1047176582
3878+1047438873+1048002892+1048731144+1049440412+1049842805+1050130028
3870+1050766304+1051596892+1052175015+1052495258+1052432761+1051466281
3861+1049703973+1048129893+1047539003+1048095269+1049667209+1051842138
3853+1053230996+1052723927+1051375041+1050278753+1049669215+1049421027
3844+1049326178+1049297970+1049517147+1050249343+1051429919+1052502143
3836+1052956473+1052818777+1052220267+1051177187+1049988522+1049264281
3827+1049317755+1049850024+1050492984+1051428114+1052737964+1053245568
3819+1051966198+1050113652+1049333530+1049702703+1049925022+1049303785
3810+1048222404+1047525033+1048106231+1049997279+1051923285+1052853870
3802+1052701936+1051897016+1051314214+1051588336+1052428015+1052840635
3793+1052200014+1050862625+1049579712+1048983609+1049377580+1050426676
3785+1051160610+1050870780+1049978964+1049419757+1049459195+1049481988
3776+1049061146+1048630278+1048843306+1049888258+1051302049+1052212447
3768+1052191191+1051767007+1051666676+1052053094+1052660761+1053217427
3759+1053424707+1052963826+1051982107+1051073380+1050762561+1051308198
3751+1052453549+1053287345+1053357262+1053101656+1052824860+1052266389
3742+1051106066+1049344760+1047071706+1044787890+1043701027+1044477606
3734+1045568079+1045439941+1044954128+1045230322+1046285101+1047663264
3725+1048843373+1049380320+1049269228+1048794711+1048087916+1047329385
3717+1046944170+1047225311+1048171202+1049638667+1051010615+1051237746
3708+1050270398+1048993234+1048024349+1047573494+1047576703+1047571088
3700+1047145968+1046626065+1046530614+1046993700+1048133703+1050291253
3691+1053419292+1056253825+1056730949+1054605885+1051863661+1050033307
3683+1049442484+1049727234+1050372868+1051282798+1052769381+1054571728
3674+1055207202+1054202756+1052938827+1052508360+1052947383+1053592950
3666+1053974020+1053927765+1053411806+1052610763+1051821952+1051234404
3657+1051095906+1051687063+1052703808+1053541147+1054415182+1056243866
3649+1058534232+1058423541+1055724431+1053190557+1052149949+1052096141
3640+1052203289+1052213516+1052058308+1051441951+1050251749+1048839563
3632+1047642075+1046964891+1047142626+1047994403+1048553409+1048602538
3623+1048864027+1050166391+1052725398+1055530921+1056968775+1056698263
3615+1055512807+1054082105+1052949455+1052672659+1053546026+1055161949
3606+1056195338+1055610932+1053904905+1052338111+1051472698+1050873320
3598+1050212846+1049741004+1049532454+1049330790+1049161277+1049344559
3589+1050118531+1051541413+1053264485+1054505353+1054729611+1054014393
3581+1053048382+1052813697+1053550772+1054325546+1054302887+1053870214
3572+1053875695+1054536970+1055737064+1057459468+1059065899+1059239557
3564+1057918677+1056326082+1055314952+1054981140+1055085682+1055347171
3555+1055483931+1055327185+1054998920+1054863764+1055207135+1055997016
3547+1056748528+1056589443+1055218365+1053796018+1053895079+1055736062
3538+1057951363+1059001396+1058587506+1057548837+1056758622+1056524271
3530+1056649601+1056729946+1056594657+1056490716+1056738435+1057335541
3521+1057831047+1057595560+1056540313+1055539410+1055603780+1056569657
3513+1057255999+1056978735+1056264587+1055963661+1056279426+1056933014
3504+1057631722+1058000693+1057671560+1056794717+1055982110+1055654848
3496+1055767210+1056060917+1056315321+1056379557+1056242195+1056128295
3488+1056337847+1056915301+1057530856+1057714005+1057256132+1056410705
3479+1055563340+1054834353+1054304758+1054284104+1054874058+1055591414
3471+1055900361+1055728575+1055174315+1054267126+1053234071+1052410301
3462+1051772221+1051107737+1050606350+1050717375+1051426978+1052065393
3454+1051977562+1051296969+1050846516+1051153925+1051735056+1051624565
3445+1050558958+1049192826+1048211441+1047684186+1047151316+1046121670
3437+1044556748+1042931801+1041733846+1040948109+1040170194+1039148703
3428+1038022403+1037020029+1036070796+1034795303+1032902383+1030554933
3420+1028197056+1026027541+1023835033+1021238794+1017854413+1013364586
3411+1007623397+1000539672+991800586+980856158+967152127+950345725+930648775
3401+909275343+888489726+871116431+859736857+855736720+858827327+867433196
3391+879416159+892755830+906056331+918503919+929519534+938774379+946489568
3381+953250576+959242092+963919011+966756752+968121881+968963030+969817080
3371+970427755+970146682+968537109+965805714+962615310+959303453+955618079
3361+951403578+946906265+942104551+936457743+929765114+922757189+916464948
3352+911448133+907896177+906011480+905925386+907488169+910394959+914365017
3342+919098084+924264359+929615186+935002644+940399259+945932233+951672887
3332+957378516+962660095+967377521+971708997+975853046+979750913+983139037
3322+985834805+987884404+989537157+991240377+993468980+996307992+999344323
3312+1002035144+1003984813+1005037586+1005483360+1006022313+1007187716
3303+1008855175+1010413279+1011394798+1011888298+1012257002+1012605921
3295+1012875498+1013286848+1014178196+1015497337+1016875300+1018060489
3286+1018959323+1019440123+1019442329+1019314325+1019772599+1021189999
3278+1022961799+1024029211+1024117844+1023984226+1024372582+1025267272
3269+1026264231+1027100300+1027636713+1027828752+1027992851+1028681666
3261+1029965514+1031202038+1031789519+1031780428+1031548149+1031275364
3252+1030995293+1030837678+1031063072+1031870064+1033084129+1034106555
3244+1034484283+1034574254+1035198966+1036459085+1037364604+1037083864
3235+1036159429+1035802088+1036331683+1037058598+1037389335+1037316744
3227+1037054721+1036833538+1036911677+1037328241+1037794068+1038100676
3218+1038409890+1038870370+1039262603+1039410459+1039618140+1040228280
3210+1041008736+1041415607+1041274168+1040879261+1040595982+1040560823
3201+1040678867+1040813889+1040939286+1041103051+1041340142+1041601029
3193+1041682176+1041395220+1040880331+1040455211+1040198535+1040101880
3184+1040411897+1041291614+1042414372+1043330451+1043923547+1044220462
3176+1044106629+1043526100+1042750724+1042239244+1042283560+1042858742
3167+1043673555+1044286570+1044412702+1044259632+1044270594+1044494517
3159+1044620382+1044518581+1044282292+1044002020+1043887452+1044175076
3150+1044691570+1045011345+1045016492+1044833544+1044520720+1044171199
3142+1043889658+1043586994+1043292618+1043447961+1044286503+1045231726
3133+1045456852+1044827060+1043961246+1043556179+1043821010+1044380083
3125+1044666638+1044512899+1044284832+1044359361+1044602402+1044504410
3116+1043789260+1042738559+1041882303+1041484188+1041425032+1041513666
3108+1041779232+1042366178+1043223035+1044077954+1044705607+1045007803
3099+1044869037+1044256557+1043480647+1043020635+1042960744+1042854798
3091+1042287170+1041383723+1040637491+1040329814+1040261300+1040039449
3082+1039486192+1038679801+1037724084+1036649520+1035534182+1034621445
3074+1034239104+1034478267+1034871169+1034542370+1032834204+1029795600
3065+1026168847+1022991878+1021019684+1020353462+1020661072+1021566323
3057+1022612078+1023235654+1023288861+1023298286+1023817854+1024817554
3048+1025955752+1027119751+1028434214+1029860304+1030993288+1031409317
3040+1031183522+1030808468+1030600386+1030536217+1030608207+1030894762
3031+1031321085+1031664255+1031741659+1031511119+1031138537+1030890684
3023+1030834670+1030861273+1030972901+1031145622+1031088071+1030711947
3014+1030596643+1031371818+1032847706+1034250066+1035057460+1035246892
3006+1035004453+1034521916+1033920665+1033203643+1032270853+1030961738
2997+1029140006+1026815483+1024081482+1020987064+1017763908+1015093474
2989+1013723599+1013769119+1014557261+1015072151+1014593958+1013251355
2980+1011916840+1011310977+1011500276+1012389685+1013989499+1015858288
2972+1017018879+1016837601+1015436176+1013045746+1009595926+1005309903
2963+1001301478+999040188+999135573+1000868404+1002938657+1004432526+1005068868
2953+1004845279+1003627405+1001010178+996647219+990859373+984869262+980257848
2944+977998029+977810000+978382976+978340264+977148926+975220981+973148255
2934+970858824+967687738+963260008+957917870+952191386+946333222+940535952
2924+935293677+931422747+929689582+930188162+932201465+935079647+939025373
2914+944521717+951251110+958058975+963830712+968200622+971608398+974766651
2904+977966412+980951743+983443105+985515430+987391572+989135566+990696544
2894+992107126+993505811+994992861+996526367+997941561+999086243+999963487
2884+1000689600+1001283832+1001627537+1001663164+1001432223+1000888256
2876+999929063+998659786+997391111+996327777+995366178+994170361+992390740
2866+989908803+986942456+983871433+980927345+978044819+974968716+971513281
2856+967841075+964571797+962525941+962260509+963860991+967110284+971661137
2846+977047592+982748074+988302037+993333490+997627534+1001268725+1004509996
2836+1007455087+1010051326+1012345301+1014493961+1016524844+1018287487
2827+1019708363+1020987064+1022387353+1023881756+1025190737+1026151133
2819+1026812008+1027265201+1027641994+1028156816+1028924104+1029851280
2810+1030823574+1031826884+1032841690+1033760176+1034448121+1034835742
2802+1034930392+1034760812+1034391171+1034036838+1034013376+1034459685
2793+1035202843+1035908435+1036298930+1036355880+1036395919+1036790959
2785+1037535119+1038217985+1038458084+1038278411+1038054421+1038130287
2776+1038495182+1038869969+1039027116+1038931598+1038686953+1038482883
2768+1038532680+1038965420+1039749953+1040659549+1041340744+1041557916
2759+1041394485+1041123505+1040932134+1040813020+1040665365+1040472189
2751+1040374599+1040507683+1040784211+1040964887+1040947508+1040848179
2742+1040769639+1040651595+1040471721+1040447123+1040793368+1041371291
2734+1041802360+1041855433+1041513666+1040855933+1040137641+1039756237
2725+1039848279+1040101479+1040174939+1040116051+1040197666+1040522789
2717+1040967293+1041377708+1041681040+1041878694+1042048474+1042315110
2708+1042731941+1043182528+1043434057+1043325505+1042931534+1042488701
2700+1042123806+1041762321+1041381718+1041185201+1041336198+1041668139
2691+1041892597+1041985843+1042076949+1042068059+1041766732+1041373831
2683+1041393817+1041955697+1042597320+1042842098+1042678467+1042376338
2674+1042120130+1041945470+1041842866+1041801758+1041806437+1041822078
2666+1041791197+1041702229+1041647685+1041716868+1041879095+1042073741
2657+1042320792+1042652666+1043081863+1043655775+1044287238+1044611826
2649+1044397662+1043991392+1043918667+1044217254+1044572189+1044842233
2640+1045030529+1044989354+1044547724+1043799554+1043095299+1042854732
2632+1043357857+1044482753+1045663998+1046345326+1046500201+1046473731
2623+1046356823+1045930567+1045294558+1044974047+1045159202+1045417816
2615+1045448163+1045497158+1045773954+1046097206+1046358093+1046713563
2606+1047149845+1047415545+1047446760+1047359731+1047055530+1046311570
2598+1045273770+1044494317+1044380083+1044798050+1045322966+1045728902
2589+1046055295+1046284766+1046262107+1046004361+1045819073+1045934711
2581+1046146669+1046062648+1045684719+1045451772+1045557384+1045643410
2572+1045495554+1045526436+1046038050+1046564971+1046637562+1046664634
2564+1047271566+1048154291+1048369992+1047592478+1046397396+1045394822
2555+1044686623+1044191854+1043958238+1043998344+1044119196+1044036444
2547+1043545551+1042650059+1041660920+1041044363+1041017225+1041277577
2538+1041157595+1040179552+1038633279+1037436326+1037220892+1037818265
2530+1038740361+1039681707+1040413568+1040742769+1040708144+1040388301
2521+1039681172+1038754598+1038363033+1039109867+1040612024+1041877090
2513+1042379346+1042459290+1042748184+1043413871+1044012381+1044039920
2504+1043486596+1042675326+1041729367+1040590902+1039494614+1038967492
2496+1039273365+1040142788+1041033668+1041483319+1041391678+1041167086
2487+1041410795+1042345524+1043725692+1045188145+1046366582+1046872648
2479+1046678203+1046410097+1046697052+1047269226+1047274975+1046554209
2470+1046012048+1046518248+1047864661+1049068766+1049486266+1049395694
2462+1049457189+1049782045+1049856909+1049407191+1048829737+1048544987
2453+1048489775+1048552941+1048923316+1049624831+1050234704+1050455619
2445+1050528812+1050769379+1051079061+1051184807+1051026122+1050667912
2436+1050154225+1049699895+1049716673+1050339781+1051158003+1051670419
2428+1051781579+1051679443+1051534461+1051476308+1051549233+1051630314
2419+1051654377+1051753772+1051901294+1051772488+1051266956+1050755609
2411+1050596056+1050767307+1051057805+1051330591+1051679643+1052339515
2402+1053206398+1053667346+1053338212+1052626671+1052148746+1052062585
2394+1052303487+1052879671+1053628778+1054125753+1053888194+1052382628
2385+1049189885+1044527939+1039111873+1033175436+1026247989+1018175458
2377+1009641246+1001293056+992992458+984296620+975203067+966189458+957698960
2367+949692203+941989247+935236393+930862605+929634704+930962602+934045389
2357+938869028+945641200+954227082+964258839+974512114+982486318+985660278
2347+983011301+975938738+968122015+962915100+960869378+960847855+961851431
2337+963450844+965568288+967917877+969881249+971278530+972675342+974480631
2327+976380569+978049297+979795564+982222289+985658474+990169088+995639564
2317+1001364845+1006082338+1009038124+1010759391+1012433534+1014812534
2309+1017954142+1021648072+1025619934+1029383782+1032335490+1034286295
2300+1035756301+1037486257+1039705503+1041942195+1043461664+1043996138
2292+1044159368+1044894772+1046454747+1048290851+1049864061+1051025053
2283+1051683921+1051767809+1051544287+1051471295+1051606050+1051512670
2275+1050893640+1050042665+1049486467+1049414945+1049686259+1050170736
2266+1050879536+1051908112+1053204126+1054221873+1054184508+1053069037
2258+1051807714+1051126921+1050860085+1050697991+1050633688+1050388509
2249+1049672824+1049298304+1050579880+1053304791+1055686732+1056688704
2241+1057056406+1057647496+1057978635+1057095375+1055133608+1053303989
2232+1052642914+1053286543+1054656418+1055899292+1056492253+1056702808
2224+1057112955+1057805780+1058438112+1058679548+1058220472+1057031273
2215+1055851700+1055659660+1056603079+1057998822+1059315624+1060705017
2207+1062469063+1064189194+1064801407+1063771695+1061759595+1059877771
2198+1058667249+1057789069+1056603012+1055192630+1054398338+1054514644
2190+1054825730+1054682887+1054044874+1053148713+1052648729+1053400376
2181+1055358668+1057643218+1059692282+1061191097+1061376653+1059646027
2173+1056612905+1053936722+1053028998+1053761193+1054598265+1054499805
2164+1054333233+1055957111+1060014464+1064393666+1065468096+1062554221
2156+1059151592+1058143336+1059287349+1061029872+1062091201+1061973959
2147+1061312016+1061022453+1060886227+1060129568+1058685765+1056638171
2139+1053900226+1051679643+1052323941+1056330962+1061190161+1064241599
2130+1065083751+1064641987+1063531462+1061898561+1060005708+1058566918
2122+1058440519+1059636669+1060886695+1060989366+1060342328+1060195274
2113+1060721193+1060889837+1060123284+1059126793+1058909153+1059562875
2105+1060312917+1060573804+1060486307+1060288119+1059778510+1058873793
2096+1058160849+1058250017+1058849195+1059110216+1058794117+1058534767
2088+1058891841+1059697296+1060472605+1060844116+1060501414+1059584933
2079+1059021582+1059498104+1060374279+1060608763+1060218335+1059786330
2071+1059386878+1058982012+1059009684+1059844082+1061260814+1062602214
2062+1063080407+1062216064+1060366124+1058627611+1058122681+1059178195
2054+1060568257+1059913799+1056142465+1051509194+1049968068+1053152991
2045+1058959352+1064319538+1068201362+1071371647+1073741823+1073279539
2037+1068761906+1062525679+1058439716+1057910188+1059791611+1062786700
2028+1065519833+1066111458+1064431232+1063205136+1064656893+1067433005
2020+1068616122+1067465357+1065613078+1064886832+1066103570+1068461982
2011+1069544500+1067928978+1065664681+1065507533+1066578889+1065936196
2003+1063201994+1060704749+1060399612+1062229232+1064399014+1065017977
1994+1064137592+1063490220+1063900968+1064276157+1063508936+1061603316
1986+1058851067+1055651038+1053046377+1052365316+1054385772+1059011222
1977+1064920253+1069501253+1070701615+1069047391+1066583100+1064367130
1969+1062265260+1060581157+1060134982+1060683627+1061078400+1061166566
1960+1062060988+1064176360+1066001234+1065492761+1062305967+1058361778
1952+1056302153+1057429188+1060884289+1064541522+1066845725+1067828647
1943+1068183248+1067986263+1067135622+1066214128+1065687541+1065028806
1935+1063582797+1061749301+1060486575+1060135450+1060378958+1060820521
1926+1061157943+1061250721+1061183945+1060994713+1060552749+1060031242
1918+1060045145+1060819585+1061589680+1061528519+1060852472+1060547468
1909+1061033816+1061594627+1061637607+1061630855+1062083448+1062551079
1901+1062322678+1061403791+1060261716+1059156137+1058174284+1057536939
1892+1057414951+1057448706+1056821521+1055340954+1054117331+1054220068
1884+1055229594+1055852635+1055758788+1055926363+1057056139+1058669522
1875+1060042873+1061209613+1062685767+1064641853+1066357105+1066478023
1867+1064757291+1062809226+1062030642+1062241063+1062363452+1061725505
1858+1060626075+1059863266+1059997821+1060958016+1062172482+1063108949
1850+1063676109+1064149958+1064864506+1065872361+1066679554+1066644462
1841+1065955580+1065427055+1065576716+1066165333+1066368000+1065759932
1833+1064857622+1064373212+1064466926+1064957752+1065855183+1067060357
1824+1067920356+1067815680+1066960160+1066010191+1065388821+1065203733
1816+1065389690+1065807524+1066243672+1066329231+1065721430+1064610303
1807+1063652247+1063239560+1063281069+1063624507+1064221747+1064880883
1799+1065342566+1065624375+1065911264+1066305168+1066717855+1066710368
1790+1065940474+1064896056+1064221546+1063901837+1063511676+1062926602
1782+1062356366+1061742082+1060828408+1059791945+1059161819+1059164960
1773+1059420233+1059276053+1058709093+1058293598+1058211382+1058243600
1765+1058304026+1058415920+1058323410+1057645892+1056481826+1055134276
1756+1053629112+1052105298+1051019571+1050503078+1049865331+1048236374
1748+1045799288+1043246564+1040748183+1038251807+1035781768+1033257318
1740+1030595440+1028067381+1026027207+1024298253+1022006951+1018767284
1731+1015437914+1012465886+1009696658+1007087185+1004523699+1001517313
1723+997614901+992416341+984304307+969358873+944146329+912222640+880401956
1713+852066319+829140397+813603004+807777526+814534324+833210117+856217653
1703+877937665+900435058+924555726+943902219+956595253+966604284+974901406
1693+981219047+987035434+993398662+999540373+1004712196+1009958548+1016355331
1683+1021815379+1024387622+1025331174+1026084692+1027222756+1028665490
1674+1029759572+1029961570+1029566062+1029403032+1030069521+1031363129
1666+1033003784+1035108795+1037520147+1039454041+1040492710+1041128317
1657+1041983236+1043444619+1045601166+1047278852+1046980332+1046135373
1649+1046079827+1046700729+1047022042+1046548929+1045898415+1045601032
1640+1045915393+1047028124+1048756678+1049944406+1049154058+1047059541
1632+1045101851+1043594747+1042076482+1039778428+1035997670+1029703557
1623+1019667990+1007198411+996256790+989666765+988891991+993620847+999496591
1613+1003018869+1004793343+1006385202+1008667080+1011826201+1015668990
1605+1019961496+1024466563+1028641293+1031772741+1033691529+1034925980
1596+1036009768+1036916356+1037216747+1036700454+1035741796+1035052513
1588+1035175838+1036222930+1037925815+1039753229+1041106326+1041672083
1579+1041592741+1041223501+1040865625+1040686687+1040818234+1041632980
1571+1043751494+1047232596+1050717375+1053002862+1054235108+1054843845
1562+1055108943+1055278924+1055053129+1052889363+1048665304+1044106763
1554+1040368850+1038372726+1038238238+1039052249+1039994330+1041189077
1545+1043183598+1045981768+1048921980+1051574567+1053677907+1054621994
1537+1054698395+1054612636+1054572263+1054285240+1053536601+1052519589
1528+1051235006+1049262075+1046337037+1042490572+1037158527+1029713784
1520+1020914941+1010458665+995021871+971835129+942229480+910779639+884074029
1510+869833050+875425715+904468883+940098667+961113688+972003172+980930019
1500+990686919+1001189583+1010553649+1015970116+1016676911+1014279329
1492+1010490215+1007373873+1007850328+1012530857+1018688877+1023957021
1483+1027657434+1029776817+1030007558+1027835370+1023489122+1018709198
1475+1016425716+1018508202+1022749507+1025272753+1025543600+1024711608
1466+1022985662+1019683163+1014637940+1008381126+1000224441+985983530+958705278
1456+923416258+898330247+887007288+883752582+885223456+891375728+902759113
1446+916677575+928636675+937184190+943726890+949632914+955370694+961000056
1436+965743015+968243335+968801605+969202862+971190899+975385347+980613585
1426+984922535+986482578+984147962+978938239+974097555+973450183+978485914
1417+986208322+993486694+999760018+1005217059+1009810625+1013449142+1016321308
1407+1018861399+1021255104+1023207981+1024582401+1025718795+1026825577
1398+1027545139+1027305507+1025891449+1023596404+1020989538+1018512546
1390+1016402522+1014704649+1013011590+1010711465+1007783552+1004722356
1381+1001943102+999631279+997839626+996235601+993577733+988123099+979528193
1371+969438082+959992401+953571956+952597857+957710591+966652210+974316665
1361+975116706+968057044+957343424+948878928+947471822+954130695+965349512
1351+976237057+983551190+985851248+982701819+974722869+964003500+953576969
1341+946173602+943515935+946022270+952624193+961456124+970845522+979666357
1332+987355945+993850251+999391247+1004232398+1008441418+1012018842+1015091335
1322+1017763373+1019842984+1020938202+1020864074+1019848465+1018417630
1313+1017261919+1016975565+1017577416+1018400585+1018615417+1017683229
1305+1015163792+1010406929+1002988722+993582279+984090744+976671869+972555827
1295+971761000+973727647+977821765+983199797+988662186+992947340+995167320
1285+994985642+992409857+987411959+979867687+970016739+959049184+949232793
1275+943221827+942722846+947438668+955309667+963930240+971810598+978565591
1265+984404170+989592436+994115951+997636692+999732412+1000065289+998342952
1255+994554239+989329544+983363094+976310985+967301521+956893840+947315276
1245+940255480+935644401+933161661+933600952+937749011+944694907+952150078
1235+958131700+961844680+963334672+962966368+961081470+957481521+951060140
1225+940445046+925612710+909061580+894972736+886588318+884184386+885620903
1215+888452094+890834436+890772606+886227768+877500580+869061552+867169234
1205+874677879+888569537+902586057+911272003+911495926+901866294+882264262
1196+854234964+821524537+789708732+764517711+749815385+746652587+753557241
1186+766997376+781650105+791845494+795036633+794406039+796495676+805433552
1176+820215355+837244410+853808173+868828738+881853780+892520544+900728631
1166+906634053+910279990+911507089+910429183+907887354+905307291+904168224
1156+905602736+910223842+917884420+927376088+936745167+944517506+950693909
1146+956288645+962043337+967842679+973092508+977095251+978918788+977524916
1136+972959691+967487009+964449609+965363750+968730217+971952104+973549244
1126+973074928+969711001+961790872+947897209+928732127+908014556+890740054
1116+879963401+875716882+876890173+882556698+890752219+897490903+898537860
1106+892252772+880860497+869303255+861897748+858998044+857540070+855324300
1096+853311866+853074574+854087843+855133932+857010742+862155828+871980908
1086+885476723+900153249+913721856+924998492+933808365+940555604+946002284
1077+951010409+956007772+960746187+964780280+968059785+970920319+973621702
1067+976055245+977920491+979060494+979343640+978232714+974970922+969541421
1057+963258872+958154026+955612665+955403848+955921345+955276713+951939790
1047+944545380+932165370+915817776+899592639+889186428+888279305+896024707
1037+908118830+920129267+929774272+936781997+941602829+944579135+945846340
1027+945298497+942406412+936484280+927554291+917000492+907447195+901850185
1017+901946907+906970940+913651337+917167599+912990864+900471019+885619967
1007+877731923+881292368+892612252+905181560+916104933+926282006+936769498
997+947032932+955930769+962961355+968431564+972905415+976713579+979958593
987+982800546+985484950+988071563+990351836+992121163+993404410+994408455
977+995380816+996514068+997884946+999374068+1000539204+1000800225+1000204188
967+999797851+1000506451+1001770647+1002082736+1000690870+997856069+993581811
958+987323125+979505333+972589850+969728112+972235651+978690252+986401030
948+993318183+998548894+1001713630+1002432457+1000304586+994804766+985299796
938+972104572+957756779+946257155+940496515+940720572+945185332+951619413
928+958453013+965449041+973097855+981279740+988981694+995265980+999960011
918+1003436569+1006132336+1008332532+1010216695+1011901934+1013301353
909+1014114027+1014119241+1013345202+1012070310+1010975627+1010962192
901+1012332067+1014417560+1016407869+1018228933+1020247717+1022332208
892+1023706427+1023942182+1023663180+1023754153+1024180209+1024145049
884+1023146486+1021464188+1019887368+1019140801+1019299620+1019830017
875+1020395640+1021287456+1022797166+1024518633+1025528427+1025109991
867+1023184920+1020211689+1016949563+1014375048+1013465853+1014576378
858+1016861263+1018521837+1017926469+1014449377+1008077326+999078021+989332752
849+983185025+984564191+992872409+1003353550+1011750067+1017269004+1021177700
839+1024414359+1027172958+1029401228+1030726853+1030430539+1027926877
830+1022711540+1013805013+1000643211+985098866+970433036+956053225+935474487
820+903954060+868194133+843440398+838543432+847146827+855541940+856487163
810+854008768+857368151+871949091+894670273+917303156+934036566+945185934
800+954270530+963555453+972888437+981398653+988981961+995921039+1001943569
790+1006466149+1009356897+1010816608+1010657589+1007738166+1000253919+987893762
781+974196616+964924259+962911691+965970749+970733828+976475352+983439763
771+989489030+991406080+988771808+983919293+978935365+975443433+975760602
761+980725680+987633209+993123069+996267953+996574160+990589796+971418431
751+931452827+869188018+795633873+728953032+679603844+646021787+626432588
741+626108000+648585206+687283071+730828907+771885853+808271227+839814981
731+866709824+889196588+907400739+921516454+931945190+938387292+938662618
721+930557067+917015264+907024080+907212443+914334336+919560635+918966270
711+916792009+919010720+927075831+938263099+949299369+958260306+964405425
701+967809659+969180136+969501449+969643222+969979976+970160852+969577716
691+968192668+966486307+964596729+962062053+958441249+953721417+948103953
681+941684979+934442368+926639080+919179030+913266323+909343590+906074044
671+901216449+895157222+894379173+904416679+916861659+922715078+922431464
662+920000928+918561002+919139593+921572401+925319805+929095083+930823034
652+929342936+926672168+927355300+934303469+945666065+956594986+963963261
642+968940638+974641722+981936737+988830295+993364772+995273066+994920403
632+992194156+986603697+977602654+964937962+949367749+932872700+917521464
622+904228516+893098132+884768859+880510642+880601014+883589619+887827181
612+892630166+897693770+902704235+907748187+913072278+918231468+921905345
602+922634599+919739039+913499938+904606512+894085132+883848033+876415656
592+873824765+877040168+885855387+898847342+913691977+928002939+940530805
582+951669077+962225082+971848364+978993919+981303335+975723906+961005470
572+941362462+924747230+914969810+906496490+890193280+864063854+836480732
562+820048582+822274312+840470040+865122309+887624915+904836251+917920983
552+928635940+937151972+942846104+946223400+948799385+951117758+952577403
543+953359062+954573194+956128891+956372399+954403079+951052787+947001783
533+941468408+933450957+923100560+911178958+898282788+885652720+875528118
523+868928401+863877430+857079457+847808637+839755157+837496608+842165506
513+851928623+864624999+878752411+892756632+904271229+911055967+912508125
503+909443988+903913019+899716699+900406248+906139483+913694383+919853607
493+924149790+927641253+930557067+932358211+932618029+930971158+927754084
483+925348213+926806588+932211157+938040579+940726387+939717329+936062769
473+929655893+920078266+909060711+899727394+894566065+894664391+899395586
463+906863056+915084779+923436311+933056584+944344250+954463104+960632487
453+963578447+965377319+966722930+967079670+966392125+965409203+964492789
443+963340554+962211112+961815069+961522699+959803704+957091895+956385501
433+958682150+959105933+950175343+928573041+896834173+859911717+825763436
424+806325301+808838454+829816779+858494050+881879648+895253342+902161873
414+905949383+909697589+915890902+923464518+929084990+931478762+932073996
404+932240836+931946327+930563350+928334814+928668693+936167913+948012847
394+956124613+957018368+953365546+948051482+939986438+927489387+914362276
384+908793608+913665240+923550545+932033690+936353535+938099133+941831231
374+948592841
##END=
