##TITLE=X8268
##JCAMP-DX=4.24
##DATA TYPE=INFRARED SPECTRUM
##DATE=31/10/2018
##SAMPLING PROCEDURE=Diamant-ATR
##ORIGIN=ComPlat
##XUNITS=1/CM
##YUNITS=TRANSMITTANCE
##RESOLUTION=4
##FIRSTX=3997.453
##LASTX=373.96442
##DELTAX=-1.4165319
##MAXY=0.94543344
##MINY=0.52523738
##XFACTOR=1
##YFACTOR=8.805035e-010
##NPOINTS=2559
##FIRSTY=0.89508492
##XYDATA=(X++(Y..Y))
3997+1016560313+1016642967+1016787290+1016816331+1016779844+1016697393
3989+1016446858+1016024245+1015654028+1015511938+1015604273+1015960004
3980+1016614806+1017371014+1017878921+1017960559+1017676584+1017234340
3972+1016954088+1017093401+1017534697+1017849000+1017819824+1017704880
3963+1017870053+1018359140+1018960600+1019509462+1019864854+1019769473
3955+1019137619+1018439290+1018398403+1019202673+1020210431+1020613818
3946+1020339659+1020024611+1020259103+1020994122+1021526873+1021272209
3938+1020425833+1019627587+1019293721+1019520157+1020249829+1021029729
3929+1021141289+1020562507+1020075653+1020203932+1020521146+1020310889
3921+1019550416+1018780941+1018441592+1018513009+1018656926+1018679806
3912+1018764897+1019256354+1020243669+1021365220+1022118449+1022275973
3904+1021991388+1021684870+1021801507+1022393151+1022888872+1022750100
3895+1022176463+1021754392+1021773414+1021944950+1021876782+1021764816
3887+1021955510+1022086971+1021408679+1020148356+1019179725+1018770448
3878+1018758128+1019360874+1020679685+1021845711+1021806516+1020934416
3870+1020579836+1021260633+1022421040+1023492160+1023928785+1023221249
3861+1021760687+1020580784+1020278396+1020917831+1022495977+1024782201
3853+1026249464+1025440388+1023588082+1022173687+1021630173+1021842732
3844+1022338386+1022562724+1022459152+1022438235+1022608011+1022621279
3836+1022383673+1022068017+1021598425+1020913905+1020441605+1020753268
3827+1021794466+1022826459+1023363271+1023803348+1024487326+1024641601
3819+1023742288+1022738254+1022314558+1022060909+1021510288+1020777502
3810+1020125814+1019954210+1020803497+1022461250+1023727193+1023926348
3802+1023287454+1022511005+1022538489+1023604328+1024796823+1024902763
3793+1023875848+1022721736+1022116757+1022085008+1022483589+1023057633
3785+1023250967+1022759239+1022059420+1021696513+1021539396+1021215210
3776+1020859750+1020888385+1021567895+1022984794+1024738606+1025711569
3768+1025259713+1024274836+1023949973+1024447252+1025204204+1025684627
3759+1025487570+1024605046+1023734300+1023497440+1023904686+1024733664
3751+1025615647+1025797473+1025016286+1023893381+1022876484+1021726028
3742+1020272642+1019017327+1018389332+1018547871+1019444543+1020298162
3734+1019720463+1017866194+1016592332+1016896616+1018304376+1019871894
3725+1020843165+1020850882+1020001934+1018795563+1017905253+1017835190
3717+1018618882+1019869593+1021163289+1022277868+1023017017+1023170682
3708+1022852995+1022313001+1021687036+1021108254+1020651050+1020145783
3700+1019504384+1019121373+1019359181+1020136577+1021383362+1023374508
3691+1026142508+1028590993+1028904348+1026922815+1024278153+1022153041
3683+1020945586+1020655924+1021040966+1022007093+1023839903+1026388372
3674+1028126411+1028192954+1027528810+1026777544+1025990400+1025334379
3666+1024871895+1024400814+1023843423+1023356163+1023054113+1023016001
3657+1023512603+1024601188+1025645297+1026195851+1026683517+1027565974
3649+1027930234+1026382821+1024196311+1023286303+1023689758+1024358437
3640+1024576750+1024495111+1024334880+1023691924+1022183097+1020317455
3632+1019103163+1018993025+1019536201+1019902153+1019910750+1019917858
3623+1020236899+1021280941+1023319473+1025664996+1027004521+1027185805
3615+1026945289+1026493297+1025785085+1025232365+1025346903+1025911401
3606+1025938208+1024906216+1023556807+1022945464+1023129253+1023200873
3598+1022773251+1022372369+1022226421+1021943190+1021491943+1021451462
3589+1022185127+1023247379+1023739919+1023649886+1023714331+1024024301
3581+1024197868+1024297716+1024641601+1024900056+1024477172+1023638175
3572+1023233028+1023642305+1024828300+1026722576+1028536229+1028746960
3564+1027279493+1025593782+1024723172+1024639976+1024819839+1024897348
3555+1024771234+1024476089+1024174987+1024068708+1024242072+1024701713
3547+1025300803+1025526224+1024973504+1024165984+1024080554+1024897957
3538+1025772764+1025864693+1025263504+1024613575+1024288713+1024389847
3530+1024954752+1025657482+1025821098+1025237509+1024577630+1024657712
3521+1025475995+1026208374+1026190232+1025705206+1025556144+1025931439
3513+1026216768+1025950867+1025418929+1025206573+1025522230+1026034536
3504+1026205869+1025837480+1025331265+1025147003+1025246174+1025334447
3496+1025232094+1024912714+1024549063+1024507228+1025011683+1025848582
3488+1026584955+1027017451+1027248016+1027376160+1027303389+1026885515
3479+1026179198+1025463607+1025094879+1025256599+1025668651+1025779128
3471+1025429083+1024928555+1024419023+1023781145+1023210350+1023101025
3462+1023301805+1023264099+1022968210+1022985268+1023632624+1024560436
3454+1025191478+1025382171+1025605358+1026358113+1027358966+1027686943
3445+1026956052+1025840526+1025187145+1025116270+1025089598+1024625016
3437+1023863325+1023414989+1023654828+1024319310+1024833513+1024868172
3428+1024568965+1024361416+1024457744+1024537691+1024134912+1023258345
3420+1022380153+1021979812+1022256477+1022947563+1023377216+1023150238
3411+1022723767+1022835191+1023615024+1024643361+1025545178+1026216836
3403+1026683585+1026895602+1026646556+1025771884+1024463904+1023244468
3394+1022608755+1022695200+1023183747+1023558567+1023612045+1023526074
3386+1023430152+1023236277+1023062304+1023340322+1024146556+1024875077
3377+1025018249+1024900394+1025133802+1025723483+1026158348+1026068993
3369+1025483306+1024737523+1024220951+1023998374+1023939007+1024317347
3360+1025540372+1027091711+1027733719+1027087581+1026078064+1025517288
3352+1025246987+1024930450+1024764871+1025078023+1025800519+1026529378
3343+1026844358+1026623608+1026192398+1025924466+1025694578+1025142535
3335+1024440821+1024278559+1025039302+1026316346+1027246120+1027239689
3326+1026506498+1025840729+1025773306+1026026075+1025925617+1025250845
3318+1024488545+1024244373+1024616689+1025294711+1025996763+1026517058
3309+1026631528+1026356285+1026102569+1026262123+1026810375+1027405472
3301+1027700346+1027511886+1026847945+1025864896+1024871083+1024288781
3292+1024359791+1024870338+1025424141+1025916208+1026416397+1026742275
3284+1026641818+1026369892+1026574124+1027454753+1028381278+1028579147
3275+1028036784+1027462538+1027395114+1027710229+1028060409+1028339376
3267+1028497373+1028403346+1028226462+1028455403+1029190490+1029887398
3258+1030049389+1029704625+1029072635+1028229238+1027218907+1026226922
3250+1025617407+1025794697+1026794467+1028016205+1028698627+1028787035
3241+1028965137+1029614524+1030152555+1029859237+1029047859+1028702891
3233+1029131732+1029708009+1029868511+1029718231+1029640248+1029769137
3224+1029887262+1029633614+1028930952+1028285965+1028356164+1029097885
3216+1029767580+1029927066+1029943854+1030244212+1030624380+1030642522
3207+1030281240+1029926322+1029885435+1030030638+1029934783+1029483266
3199+1029177425+1029534442+1030356381+1030911673+1030730795+1030046952
3190+1029469050+1029251821+1029123947+1028964866+1029134507+1029765414
3182+1030357667+1030507947+1030448376+1030513701+1030594257+1030442149
3173+1030107538+1029794454+1029582640+1029492540+1029572892+1029740908
3165+1029797500+1029703000+1029533359+1029218921+1028719476+1028236819
3156+1027853402+1027382523+1026867644+1026607903+1026474411+1025849732
3148+1024308683+1021883551+1018875577+1015800111+1013210958+1011388640
3139+1010452435+1010531975+1011333876+1011791689+1010721992+1007848050
3131+1003906307+999803385+995954517+992355711+988992614+986089226+984122518
3121+983634648+984840004+987336823+990358269+993344717+996120841+998554772
3111+1000359422+1001353235+1001716954+1001741391+1001374355+1000386499
3102+999098150+998470696+999137074+1000820417+1003004693+1005519586+1008058984
3092+1009827350+1010241298+1009593265+1008658481+1007899430+1007227095
3084+1006347752+1005218416+1004154743+1003507929+1003344584+1003507252
3075+1003851407+1004329935+1004918803+1005530620+1006009419+1006190973
3067+1005941589+1005273858+1004482788+1003888504+1003363809+1002573348
3058+1001698947+1001260765+1001166467+1000721177+999679437+998487823+997356321
3048+995822717+993575283+991249188+989943509+990170690+991676132+994031133
3038+996851325+999634353+1002035521+1004243287+1006590502+1008943472+1010834769
3029+1012025368+1012694183+1013216847+1013831507+1014500728+1015169678
3020+1015935566+1016670924+1016860602+1016280060+1015462590+1015084452
3012+1015312039+1016013888+1017053191+1018124175+1018822437+1019082449
3003+1019213775+1019457811+1019743818+1019854429+1019728925+1019634289
2995+1019934579+1020655044+1021478269+1022167730+1022721736+1023138595
2986+1023240813+1022703324+1021268079+1019044337+1016450107+1013728003
2978+1010774725+1007472824+1003778433+999470873+994320592+988624630+983223138
2968+978880579+975834425+973929859+972879996+972154115+970786023+967642593
2958+961990768+953888766+944384824+935484915+929520209+928031893+931009677
2948+937100902+944525154+951805895+957899151+962173609+964556025+965466304
2938+965425823+964744620+963359537+960778710+956503372+950760161+944639421
2928+939584182+936906688+937270746+940185709+944356393+948741666+952969416
2918+956893762+960326380+963186986+965573193+967688625+969735686+971764199
2908+973712156+975653006+977779607+980085258+982315567+984255130+985842550
2898+987042152+987823542+988283928+988645751+989087724+989595766+989972076
2888+989999830+989652426+989141811+988766720+988752910+989148648+989657909
2878+989576338+988109277+984802028+979669889+973279863+966956110+962470650
2868+960993909+962315563+965167165+968153343+970417972+971753300+972324500
2859+972396053+972355369+972788880+974233331+976778212+979977693+983166546
2849+985895148+988130263+990106516+992031525+993894324+995495756+996717156
2839+997741160+998865487+1000146457+1001417611+1002609361+1003834822+1005178477
2829+1006565726+1007848998+1008922419+1009715520+1010189038+1010430434
2820+1010634125+1010868887+1011033248+1011138782+1011388099+1011865949
2812+1012416639+1012915610+1013454926+1014169705+1014981760+1015601294
2803+1015798419+1015580445+1015081609+1014473177+1014043930+1014098221
2795+1014645322+1015339658+1015766873+1015783052+1015680496+1015953708
2786+1016771856+1017799854+1018617934+1019098154+1019310171+1019307531
2778+1019133761+1018894057+1018679197+1018441321+1018110840+1017857191
2769+1017997385+1018627411+1019607211+1020812703+1022071673+1023028254
2761+1023436448+1023461697+1023472393+1023664170+1023942120+1024042172
2752+1023802265+1023391973+1023184762+1023359344+1023718392+1023933591
2744+1023879233+1023651105+1023356366+1023073609+1022979514+1023213667
2735+1023592279+1023728953+1023459870+1022900651+1022149317+1021266793
2727+1020494813+1020119518+1020084724+1020030501+1019757762+1019430531
2718+1019297241+1019422813+1019699613+1019960438+1020074773+1020064348
2710+1020135968+1020519453+1021221844+1021963430+1022428757+1022583641
2701+1022624122+1022617285+1022417385+1022023542+1021778694+1022011967
2693+1022636781+1023306476+1023850531+1024298528+1024561722+1024457338
2684+1024105669+1023954982+1024219733+1024573365+1024593673+1024251955
2676+1023758467+1023208793+1022643076+1022207940+1022005197+1021934525
2667+1021808817+1021512657+1021062899+1020626613+1020392121+1020363419
2659+1020415882+1020536106+1020847633+1021447671+1022310632+1023237428
2650+1023889996+1024099170+1024128482+1024410562+1025051825+1025789282
2642+1026330223+1026533508+1026368335+1025929002+1025428135+1025060693
2633+1024979190+1025365112+1026229698+1027190544+1027812718+1028115444
2625+1028338089+1028364558+1027893950+1027103151+1026590506+1026616026
2616+1026867441+1027070387+1027328775+1027691749+1027918117+1027926917
2608+1028004088+1028348311+1028831780+1029260350+1029481370+1029320327
2599+1028776271+1028178400+1027902886+1028009571+1028264709+1028463458
2591+1028639124+1028930275+1029331902+1029668882+1029767783+1029637066
2582+1029527199+1029685129+1030023869+1030320638+1030641981+1031113265
2574+1031504942+1031642766+1031841921+1032287211+1032532805+1032352468
2565+1032486028+1033672295+1035314682+1035976457+1035131909+1033667421
2557+1032631096+1032226152+1032153313+1032275027+1032628388+1033076995
2548+1033224703+1032772508+1031990306+1031605941+1032033698+1032898622
2540+1033482617+1033440376+1032984052+1032556227+1032426254+1032568276
2531+1032871003+1033273781+1033609475+1033569806+1033032927+1032241992
2523+1031505686+1030892651+1030378855+1030145108+1030496642+1031464258
2514+1032637256+1033512402+1034000339+1034464989+1035179430+1035869094
2506+1036040292+1035685170+1035276503+1035045125+1034731094+1034159013
2497+1033619561+1033491891+1033807682+1034309226+1034704355+1034823225
2489+1034744768+1034820856+1035409860+1036544679+1037904512+1039025116
2480+1039530450+1039400884+1039110681+1039206941+1039639843+1039835681
2472+1039544260+1039201187+1039241533+1039423426+1039170928+1038416481
2463+1037756601+1037717542+1038098455+1038239732+1037841625+1037235697
2455+1036840501+1036744511+1036937709+1037469579+1038111588+1038343033
2446+1038020607+1037665891+1037788756+1038294902+1038730241+1038751226
2438+1038222673+1037230079+1036202216+1035746162+1036145894+1037135578
2429+1038226938+1039064784+1039445494+1039311664+1038842004+1038302552
2421+1037862610+1037721062+1038076319+1038715823+1039064920+1038899747
2412+1038593974+1038588829+1039033036+1039884421+1040956150+1041941975
2404+1042602531+1042839730+1042595558+1041915439+1041067438+1040358413
2395+1039856870+1039490849+1039355258+1039652840+1040246177+1040404106
2387+1039117112+1035788200+1030731878+1024883268+1018866506+1012527995
2378+1005503813+997860031+989915484+981836565+973647238+965289150+956672945
2368+947974831+939684504+932303170+926437230+922817574+921568352+922075243
2359+924192097+928629630+935687929+944789160+955090128+965063797+972192024
2349+974288434+970839433+963688055+956673283+952815548+951907503+952180242
2339+952763965+953961334+956078458+958513472+960354338+961630705+963130597
2329+965045993+966816796+968278644+970010996+972567860+976027691+980358674
2319+985526961+990904017+995331328+998246562+1000251789+1002286123+1004763717
2309+1007759981+1011361021+1015372421+1019124351+1022016164+1024130783
2300+1026082667+1028320895+1030708998+1032705559+1033867659+1034303607
2292+1034713358+1035782243+1037471813+1039175057+1040522097+1041595382
2283+1042388618+1042710232+1042757076+1043153694+1044116097+1044961999
2275+1044781527+1043481738+1041925390+1041020662+1040913841+1041242291
2266+1041877124+1042987912+1044413476+1045416021+1045347109+1044459102
2258+1043737485+1043814453+1044398651+1044916238+1045170496+1045202177
2249+1045296610+1046243985+1048544017+1051223339+1052637936+1052641389
2241+1052696627+1053576444+1054075347+1052317880+1047332027+1038777762
2232+1025878434+1007139973+980754547+945979352+906240982+871048996+852132703
2223+855528158+877317309+907226943+935823519+958649401+975673584+988646631
2213+999082039+1007657222+1014548046+1020007959+1024478865+1028021621
2204+1030114308+1030616663+1030507676+1031004684+1032318689+1033688270
2196+1034325202+1033997631+1032864301+1031214061+1029618383+1028759348
2187+1028687119+1028891689+1029421326+1030966234+1033551529+1036287104
2179+1038499744+1039975537+1040190465+1038498999+1035481141+1033279941
2170+1033812353+1036788580+1039961050+1041254950+1040555808+1040051625
2162+1042490904+1047552980+1050865374+1049599838+1046538114+1045391584
2153+1046834072+1049741250+1052508641+1053381553+1051762114+1048986532
2145+1046784994+1045592905+1044579123+1042732435+1040162169+1038599660
2136+1039931604+1044056188+1048832325+1052098823+1053088033+1052249442
2128+1050602993+1049069389+1047920625+1047064095+1046742753+1047162387
2119+1047606593+1047087585+1045868216+1045174761+1045474915+1046072245
2111+1046287241+1046184685+1046139736+1046139736+1045682735+1044602206
2102+1043774311+1044184603+1045447770+1046298004+1046381471+1046441786
2094+1046950708+1047627985+1048106038+1048261870+1048080382+1047671512
2085+1047202529+1046580964+1045570837+1044472640+1044211545+1045252812
2077+1046779240+1047614175+1047735144+1048003076+1048650974+1049180949
2068+1049587179+1050417715+1051591796+1052228795+1051729147+1050184712
2060+1047909929+1045541390+1044392017+1045510048+1047856587+1048351632
2051+1044988535+1039797908+1037548104+1040811149+1047439051+1053712644
2043+1058111659+1060832070+1061463721+1059170661+1054815444+1051217111
2034+1050495833+1051939065+1053498257+1054509874+1055494751+1056488767
2026+1057365402+1058592285+1059939189+1059642757+1056525931+1052005676
2017+1048915589+1049159896+1052718018+1057483663+1060084730+1058865091
2009+1056065410+1055001060+1055642730+1055337566+1053155117+1050983500
2000+1050787661+1052455434+1054202882+1054596589+1054096603+1054321753
1992+1055795989+1057229405+1057373999+1056209936+1054060657+1051111712
1983+1048040172+1046068116+1046241683+1048924998+1053191266+1056658949
1975+1057708813+1057549868+1058145912+1059175873+1058954041+1057339137
1966+1055662902+1054325408+1052704344+1051103927+1050759636+1051857359
1958+1052893413+1052311855+1050020217+1047355449+1046100677+1047370139
1949+1050845540+1054908116+1057887592+1059199769+1058963112+1057212617
1941+1054460796+1052105863+1051171756+1051296380+1051449978+1051231665
1932+1051005094+1051222391+1052077567+1053354543+1054418487+1054803123
1924+1054732451+1054652775+1054473657+1053892371+1053162293+1052795189
1915+1052610927+1051962420+1050788812+1049736444+1049176210+1048572246
1907+1047308741+1045680840+1044470745+1043920259+1043668438+1043565069
1898+1043958167+1045057109+1046466968+1047607947+1048329563+1048739856
1890+1048842006+1048999461+1050226547+1052971058+1056058979+1057735890
1881+1057710911+1057202328+1057155957+1057492666+1057835197+1058154577
1873+1058744596+1059811315+1060844932+1060626146+1058874906+1057043653
1864+1056459253+1057087925+1057910608+1057916294+1057027745+1056109343
1856+1055981605+1056603237+1057323500+1057638885+1057515276+1057287419
1847+1057429847+1058092027+1058684822+1058500086+1057853407+1057523873
1839+1057704277+1057910134+1057476014+1056345392+1055201840+1054647089
1830+1054591242+1054710992+1055114176+1055804789+1056217789+1056044560
1822+1055810949+1056103115+1056957614+1058056285+1059110819+1060088183
1813+1061060808+1061782356+1061753045+1061027096+1060372497+1060344472
1805+1060846895+1061520719+1062017457+1062028558+1061592610+1061195654
1796+1061202694+1061516658+1061751555+1061458441+1060566169+1059675589
1788+1059393509+1059693596+1060044182+1060148972+1060195207+1060183157
1779+1059828103+1059211209+1058734306+1058523305+1058239668+1057361543
1771+1055893941+1054457682+1053430496+1052761613+1052391260+1052304815
1762+1052209367+1051685011+1050792738+1049804815+1048707769+1047587504
1754+1046855327+1046677022+1046508870+1045568265+1043971232+1042473913
1745+1041465004+1041009628+1041141157+1041728536+1042381240+1042940594
1737+1043811610+1045383055+1047093610+1047741304+1047452048+1046996875
1728+1046582589+1046238772+1046094381+1046209867+1046573383+1047374404
1720+1049115895+1052155686+1055422048+1056835427+1056490324+1056066899
1711+1056602357+1058094126+1060002347+1061778633+1063043153+1063812764
1703+1064598622+1065872010+1067278485+1067771296+1066973118+1065205023
1694+1063308242+1062245111+1062277469+1063056354+1064065533+1065225128
1686+1066863657+1068496026+1068598514+1067337920+1065993792+1065143151
1677+1064886050+1065000452+1065028952+1064904869+1065061309+1065704265
1669+1066402391+1066754196+1067069446+1067794853+1068830163+1069438256
1660+1069301785+1069048949+1069363725+1070565629+1072553932+1073741823
1652+1072551021+1070931785+1070134013+1069326087+1067104173+1063790290
1643+1060710627+1058387173+1057069174+1056830485+1056851606+1054877722
1635+1049167071+1041345931+1032455498+1020285368+1001543725+976480224+951358709
1625+933940074+929011490+935188078+945054587+951525575+948830074+932982139
1615+908652981+882892572+855632677+824546321+790477173+758338788+734479560
1605+723552762+727356681+744611294+771194250+801960549+832285146+857215291
1595+871296485+872479705+866033697+861684030+866261554+879583427+896870465
1585+913806985+928578927+940373559+947948566+950348311+947967587+943264559
1575+940665184+942196960+946921109+954914666+966021664+976960715+984947570
1565+990606029+994962532+998317641+1001457212+1005841403+1010656328+1013099602
1555+1014431613+1016254946+1018570684+1020872747+1022659052+1023724891
1547+1024504792+1025497860+1026463918+1026537975+1024138771+1017364041
1538+1008222059+999084476+986960243+966057610+934548100+898832977+862844506
1528+823838786+782048819+746087222+724755478+720641793+732523953+753862940
1519+778321394+804913354+830549274+849690920+861113168+866628658+867559312
1509+865414840+864693833+871494625+884063269+898463030+914072751+930661189
1499+947381021+962926161+975434896+984120148+990450333+996474880+1003079021
1489+1008891957+1012000999+1012643007+1011755135+1009469656+1005569341
1480+999765138+991025866+977241441+955410252+921561921+875279860+830412329
1470+804193024+796002140+797882403+805942029+816712996+823567333+823525499
1460+819351972+813946620+809136771+808333178+813169427+821092583+829892712
1451+838697511+847438611+856719298+867257669+879160476+891994818+904976191
1441+917364634+929437488+942039098+953906028+962097318+967320980+972935776
1431+980722663+989542559+996957943+1002091639+1005480594+1007602119+1008871919
1421+1010016622+1011364541+1011999442+1010901989+1008217523+1004425112
1412+1000035439+995711090+991751408+987446487+980734848+968927963+951232190
1402+928756217+900553618+864220856+821872822+781364502+751481336+739254140
1392+745846909+765452325+791453995+818565302+840314446+850455589+847044362
1383+831266287+805079881+771927171+737318165+706804296+684104866+671492357
1373+669423363+675515265+686416068+699560787+713129742+726639600+741130478
1363+757207963+773381099+787789932+800070403+810610533+820068375+829348927
1353+838624673+846324641+849618555+846715370+839508618+833328647+833135516
1343+840237613+852752170+867672903+882100215+894339190+904458672+913277958
1333+921230898+928140813+933651292+937623633+939870391+939597721+935594782
1323+927180846+914988919+901247277+889618562+883898163+885856749+894411013
1313+906626634+919273464+930043483+937688620+941547100+941760606+939929894
1303+938803604+940710539+946055237+953421002+961043596+967883041+973543937
1293+977820968+980393739+980574008+977482025+971125101+963469201+957814127
1283+956605183+959813600+965228970+969926447+971384504+967776491+958172228
1273+943344777+926827349+914531038+911691891+919281790+933634707+949514459
1264+963287443+973598972+980112877+982465102+980410798+974659193+967523858
1254+962362137+961424306+963928707+966683168+966555498+961902766+951913054
1244+935575151+912146997+883211545+854399566+834101101+828846571+839039771
1234+859091222+881465924+900643651+914269672+922155054+925337273+926066132
1224+927496029+932069897+939828827+948551988+955528513+959066463+958603505
1214+953915979+944546748+930072591+910739236+887194446+859319282+826407834
1204+789867184+755334604+730322686+718963866+719475157+726575562+735583646
1194+744527489+753818059+764853100+778655734+795091590+812913477+830559699
1184+847056344+862177248+875934527+888294945+899367284+909431459+918614871
1174+926722966+933343218+937809453+939113913+936430733+930027101+921264881
1164+911652358+902695180+896802298+896937144+904298237+916775833+930019722
1154+939217484+939620872+927153904+901137680+867420202+837343161+821471600
1145+823393022+839137927+861346644+883162264+899249226+905403880+899390232
1135+883487397+865460195+854518911+854917356+863978377+876279901+888487466
1125+900094316+911284172+921299675+928568841+931985348+932222885+931850908
1115+933760956+939000593+945945099+951525710+953100877+949118721+938537365
1105+920539947+895411528+865744035+836480065+813220401+799764968+796669262
1095+801866184+812590916+826725115+842713921+859120669+874837684+889377910
1085+902476664+913446448+920977656+923457619+919866868+911126513+900629300
1075+892676901+889576930+889661750+887896973+878954010+860910561+837107180
1065+814597429+800052667+796283543+801993787+814126821+830006369+847641760
1055+865164644+880933106+894106594+904664461+912904152+919138008+923804956
1045+927651860+931574040+936115551+941195836+946368253+951153394+955149428
1035+958221103+960657065+962838566+964741913+965813777+964913855+960381754
1026+951431006+940470294+932972391+933295494+940612722+949912566+956781120
1016+960387034+962471936+964901196+968333611+972330796+976099108+978965467
1006+980393739+979820982+976173639+967612131+953394669+937086145+926140596
996+926131186+935908814+949527253+961771034+970712508+976469258+979579789
986+980593910+980041460+978064462+973888431+966103506+954691073+943248177
976+937801262+941928013+953387967+966342533+976347070+982655999+986821944
966+990420548+993946042+996828512+997976870+996582648+992994605+989030252
956+987014195+988129992+991743082+996254062+1000320024+1003424530+1005785758
946+1007850284+1009691421+1010802006+1010380747+1007757273+1002797821+996345991
936+990285160+986643165+986200109+987968813+989963885+990169607+986896069
926+979040201+966648103+951147437+934868901+920317709+909478710+902581522
916+896197250+883262654+858374954+825335428+797334692+786777164+795668612
907+817079761+843289454+870040088+895220361+917160401+934833633+948433659
897+959092322+967938144+975347368+981101952+985131291+987721866+988870494
887+987722001+982886225+973303895+959086365+942211650+926462006+915734634
877+911825993+913954557+919952568+927244276+933479079+937695186+941035740
867+945719205+953167691+962804380+971880091+976114136+970765241+952346159
857+921960028+888480087+866055562+864901992+883859984+912680018+940745605
847+962866185+978699769+989762834+997800663+1004421525+1010770054+1017245713
837+1023670804+1029605792+1034467155+1037707320+1039107161+1038403483
829+1033944424+1021803199+997105041+957401804+905930606+851979038+806381227
819+774265248+752937295+739266190+737280189+754101629+789172984+832172910
809+871636646+902106582+923802383+939468629+952110111+963400018+972840801
799+978057084+976376314+967233519+952052842+929818942+894241711+838700287
789+765136534+687816857+627485417+598196265+596519354+605676568+612825847
779+619822274+635742439+663056827+693858327+717297176+728933473+734005365
769+742032769+757970940+779406526+801111601+818138492+824194923+813559615
759+789397592+766609077+760906008+775337789+800000610+823371766+840774222
749+852961140+860437449+860218392+847492157+821806888+792029054+772200519
739+770254119+781732418+794952885+800840691+798841286+796148155+801056905
730+815554078+834595604+852173658+866039722+876817390+885418025+892412895
720+898395878+903870480+908978926+913577638+917607654+921380772+925233092
710+928917734+931900324+934300815+936849013+939742992+942213613+943441511
700+943420391+942705273+941497954+938972907+933549413+924244966+912065291
690+900010646+891515140+888512648+890594233+895799414+902081603+908177431
680+913510892+917160469+916765746+909537265+895572504+879128457+865373750
670+859389684+869031247+894964884+920736395+936076153+943530122+947777097
660+951313422+954219518+955885463+956722158+957926770+959939036+961854568
650+962296812+959326475+948729549+925360830+890357101+856282673+839789954
640+846639485+865608241+877357722+867558906+833789100+786088041+742196994
630+717895657+718361255+737870276+766621533+796796323+823949803+845919020
620+862333891+874751645+885553277+895812005+904276846+908209654+905573656
611+898008128+891549663+892214078+900771998+913142232+924583570+931520088
601+930446193+918491939+897171297+874489399+860854375+861560354+873394587
591+888916238+903117115+915065819+925205676+933515093+939785774+944244224
581+947522636+950201280+952373304+953748166+954444261+955418375+957521148
571+960274798+962271224+963006582+963608854+965196071+967379602+969037898
561+969889757+970444711+970726385+970217666+969068360+967838363+965204803
551+957263167+941436623+921612691+906870264+903454840+909730734+920041992
541+930856689+941270706+950572784+958084903+963976160+968827302+973182046
531+977563799+982144504+986517187+989964697+991964440+992806416+993211022
521+992958186+990353598+982024009+962646992+928709508+886052045+850920307
511+839276496+853544187+881514325+908411923+927802343+940656113+946956310
501+941470132+917912141+875581301+823394376+780288170+765390115+782163086
492+815902430+848743409+873779020+893173706+909073224+921026328+929218701
482+935789266+942414190+948620765+952859752+954344413+953092551+949026454
472+942963322+937699721+935805242+937430435+940814449+943643509+943851871
462+940472596+934948848+931052391+932102323+937515933+944352331+951184330
452+957050541+960036786+959771629+958892016+960032928+962512214+963567560
442+962558922+961864655+963260298+965805383+967251526+965900154+960665256
432+949618504+929702915+899023670+860088826+821789017+797862975+797380860
422+816237244+845516851+880204992+912490272+932834837+940972650+941309697
412+937945044+933609593+928304564+921248634+914686869+912817166+916625755
402+921879134+922611514+916904383+912108885+918451525+932515458+943870216
392+949653840+953413894+957339120+959114187+956753501+954157172+957091767
382+963681151+967709677+967720441+965891218+963414437+959967738+956404539
##END=
