##TITLE=SVS-724A
##JCAMP-DX=4.24
##DATA TYPE=INFRARED SPECTRUM
##DATE=11/6/2018
##SAMPLING PROCEDURE=Diamant-ATR
##ORIGIN=Angelika Moesle
##XUNITS=1/CM
##YUNITS=TRANSMITTANCE
##RESOLUTION=4
##FIRSTX=3997.453
##LASTX=373.96442
##DELTAX=-1.4165319
##MAXY=0.88882709
##MINY=0.64142221
##XFACTOR=1
##YFACTOR=8.2778473e-010
##NPOINTS=2559
##FIRSTY=0.8570134
##XYDATA=(X++(Y..Y))
3997+1035309511+1035613948+1035939915+1036195821+1036391170+1036480960
3989+1036402403+1036146353+1035663632+1034967991+1034394615+1034345868
3980+1034718422+1035051733+1035261412+1035704818+1036466919+1037073850
3972+1037078962+1036565494+1035972173+1035678033+1035765159+1036064339
3963+1036372161+1036536404+1036390522+1035884831+1035290502+1034979584
3955+1034998737+1035068150+1035005722+1035007594+1035407798+1036041154
3946+1036248168+1035909817+1035770703+1036356176+1037131382+1037354597
3938+1036868203+1035680985+1033930471+1032428663+1032368826+1033906925
3929+1035740965+1036804911+1037252782+1037787059+1038652847+1039214774
3921+1038798153+1037667747+1036850274+1036945177+1037361654+1037387719
3912+1037165296+1037060817+1036917527+1036388506+1035705322+1035678033
3904+1036794830+1038443817+1039784334+1040724719+1041126723+1040471190
3895+1038757111+1036896789+1036313621+1037497815+1038716428+1038540952
3887+1037858488+1037987089+1038471467+1038308231+1038296783+1039189213
3878+1039650477+1038824147+1037715342+1037024958+1036223758+1035402757
3870+1035760982+1036772293+1036641243+1035695170+1035680553+1037122957
3861+1038733709+1039354392+1038603092+1036492049+1033957401+1033829592
3853+1038517118+1043191539+1043641642+1041858654+1039978892+1038817163
3844+1038423367+1038340994+1037962031+1037444675+1037998034+1040142919
3836+1042242009+1042803288+1042146818+1041149405+1040131830+1039147090
3827+1038504517+1038190791+1037577957+1036817368+1037466061+1039753156
3819+1041025916+1040883346+1041410063+1042692400+1042944418+1041901425
3810+1040465861+1039461896+1039509923+1040034695+1039345175+1037710662
3802+1037739680+1040368799+1042765485+1043593831+1043932542+1043985034
3793+1043142215+1041711116+1040578837+1040105764+1040123118+1040520153
3785+1041088417+1041219970+1040787148+1040745025+1041926339+1043548828
3776+1044201481+1043594695+1042218031+1040901708+1040699518+1041748631
3768+1042733155+1042933905+1042836842+1042555879+1041933323+1041626366
3759+1042499715+1043921022+1044179376+1042813225+1040860017+1040217228
3751+1042345984+1044815900+1044293432+1042564735+1043380984+1047252621
3742+1049658525+1048467994+1045587073+1042973436+1042042627+1043652371
3734+1046673629+1048678968+1048909600+1048002193+1046639859+1045336640
3725+1044462211+1044258005+1044964878+1046416139+1047534377+1047269830
3717+1045750093+1043839152+1042411797+1042560559+1045131426+1048548999
3708+1050208283+1049833785+1048454385+1047144686+1046835928+1047657721
3700+1048556488+1048796481+1048656215+1048326000+1047435370+1045762982
3691+1044089657+1044215234+1046776668+1049234631+1049631667+1048410030
3683+1046570518+1044850894+1043428363+1042084822+1041546657+1043705151
3674+1047092194+1047259606+1044861479+1043786588+1045416494+1046847809
3666+1046361415+1044732662+1042801920+1040972921+1039525044+1038804562
3657+1039256465+1040556228+1040899476+1039123040+1036214614+1034642529
3649+1036691215+1040184322+1041412367+1040849504+1040105116+1039878877
3640+1040051689+1040191954+1040074658+1039827105+1039603745+1039131177
3632+1038095457+1037420194+1039273819+1043000870+1044450330+1043047889
3623+1040631761+1038522446+1037706342+1038798297+1040644866+1041317393
3615+1040748481+1039812344+1038675817+1037258614+1036459863+1037493279
3606+1039774181+1041283118+1041151853+1040019862+1038875847+1038255092
3598+1038216785+1038703251+1039419989+1039590857+1038572274+1036680558
3589+1035088095+1035069806+1036413492+1037204467+1036715481+1035669248
3581+1034645985+1033790349+1033175643+1032993614+1033345718+1033843489
3572+1033722953+1032726259+1031646832+1031780546+1033362784+1034553890
3564+1034040423+1032569360+1031237052+1030497560+1030173538+1029955723
3555+1029835906+1029960043+1030157985+1029803576+1028484516+1026643852
3547+1025331849+1025313920+1026174164+1026730834+1026303917+1025117490
3538+1023914575+1023283235+1023124680+1022937251+1022539567+1022171045
3530+1022099688+1022332121+1022567577+1022551160+1022468282+1022633606
3521+1022874750+1022730164+1022118554+1021317786+1020460062+1019451128
3513+1018360180+1017549908+1017336989+1017608376+1017909645+1017906837
3504+1017608376+1017206300+1016796376+1016238769+1015396670+1014463846
3496+1013904799+1013978532+1014384928+1014517201+1014021591+1013119944
3488+1012383405+1012069607+1011878146+1011506528+1011053040+1010664861
3479+1010217134+1009613804+1008943726+1008225620+1007430469+1006772703
3471+1006548479+1006754053+1007181907+1007704304+1008166144+1008210715
3462+1007522059+1006214376+1004877747+1004152873+1004149200+1004273337
3454+1003839795+1002825028+1001780092+1001145296+1000910199+1000835602
3445+1000859652+1001202035+1001894148+1002367220+1002015404+1001080347
3437+1000326743+999975430+999672289+999316872+999126131+998997026+998526041
3427+997634835+996702515+996124746+995990313+996092704+996168670+996155853
3417+996117690+995939262+995377334+994488289+993725612+993500236+993828075
3407+994407427+994779837+994473456+993331960+991771900+990510444+990016850
3397+990241721+990776647+991255840+991636602+992031334+992314170+992172248
3387+991592535+990987477+990658558+990424542+989983367+989315233+988523682
3377+987657462+986901193+986574578+986685106+986811259+986657744+986462107
3367+986645791+987267411+988002294+988522674+988708303+988573509+988223565
3357+987847411+987562127+987330991+987188853+987314790+987662790+987851371
3347+987688784+987464704+987447207+987471905+987332143+987200446+987376570
3337+987865916+988422155+988821279+989003379+989079561+989172231+989163806
3327+988793485+988134927+987647021+987569400+987650189+987674671+987824225
3318+988241278+988629817+988619521+988260648+987878949+987650765+987584449
3308+987743148+988166753+988672444+989019796+989250356+989611390+990100520
3298+990344905+990087199+989590796+989318617+989322722+989229187+988816670
3288+988330709+988139967+988319548+988682381+989058247+989402647+989709244
3278+989928212+989980919+989828269+989513895+989109299+988644650+988194835
3268+987964347+988087260+988360231+988386224+987982924+987349856+986915666
3258+987022306+987602018+988203620+988475295+988487895+988486671+988557164
3248+988652643+988734081+988760866+988648179+988368583+988116854+988219389
3238+988681517+988980914+988659339+988004526+987749844+988181586+988916829
3228+989490709+989779161+989817468+989610021+989291471+989173671+989408695
3218+989783338+990034923+990156251+990212271+990092599+989720477+989348715
3208+989333810+989682026+990052060+990152651+989944629+989578411+989326034
3199+989430945+989865351+990360962+990729267+990961123+991071147+991094981
3189+991167202+991402226+991758075+992113924+992396399+992612990+992871128
3179+993359826+994158722+995043303+995637849+995800940+995724903+995634536
3169+995561667+995473893+995436811+995538554+995751400+995948694+996042445
3159+996068295+996076647+995970944+995645697+995285816+995265727+995653978
3149+996050725+996064694+995812677+995773290+996195815+996869998+997527764
3139+998199715+998982409+999702387+1000081782+1000067093+999811331+999529503
3129+999531735+1000101511+1001087548+1001862321+1001987970+1001722992
3121+1001626937+1001867794+1002184904+1002365564+1002457875+1002528800
3112+1002499854+1002364700+1002374133+1002772969+1003463785+1004133287
3104+1004600672+1004835120+1004797389+1004524778+1004269449+1004305883
3095+1004591095+1004770316+1004563589+1004020095+1003329279+1002520375
3087+1001515185+1000412717+999503869+998948135+998601215+998260703+997933656
3077+997698416+997424437+996865678+995992257+995040567+994243904+993662967
3067+993253619+992928948+992548114+991957889+991099733+990081222+989161790
3057+988599791+988426259+988438716+988485807+988613544+988871250+989207081
3047+989618374+990153227+990729771+991226966+991747562+992502175+993447456
3037+994281274+994810007+995154551+995614087+996394981+997425589+998419618
3027+999186615+999836533+1000578400+1001365343+1001908261+1002028581+1001820414
3017+1001451821+1000978676+1000435326+1000035554+1000109720+1000723274
3009+1001482423+1001914381+1001926478+1001748769+1001611744+1001620169
3000+1001727528+1001760650+1001668412+1001693614+1002043846+1002494525
2992+1002621542+1002359300+1002028221+1001814798+1001515761+1000922368
2983+1000167612+999463331+998767906+998002781+997357112+997064052+997014872
2973+996838460+996311527+995544746+994761044+994016800+993285877+992744399
2963+992663610+992985688+993335561+993523494+993733172+994174635+994832113
2953+995604798+996466194+997408092+998318307+998988458+999323929+999548152
2944+999990191+1000593881+1000929208+1000837978+1000706065+1000877365
2935+1001147960+1001037144+1000270075+998896795+997200861+995546474+994125887
2925+992889057+991777084+990833099+990017210+989208522+988521522+988323724
2915+988765115+989527864+990226600+990850668+991626090+992609534+993646838
2905+994638995+995639001+996694018+997755948+998789868+999841933+1000918552
2895+1001895804+1002668849+1003304870+1003925049+1004492736+1004820287
2887+1004791341+1004569062+1004551204+1005001812+1005759880+1006448824
2878+1006842692+1006850180+1006437879+1005882577+1005774713+1006397053
2870+1007326997+1007917726+1007991171+1007873659+1007897853+1008055616
2861+1008154191+1008180473+1008325635+1008654770+1008957047+1008966695
2853+1008618407+1008101627+1007704232+1007574118+1007667005+1007931623
2844+1008374238+1008893322+1009281861+1009481963+1009681705+1010086445
2836+1010689991+1011312330+1011804269+1012151189+1012411415+1012640823
2827+1012863966+1013051035+1013157819+1013214775+1013280443+1013324006
2819+1013280083+1013185757+1013157099+1013267410+1013490842+1013730763
2810+1013906383+1014016190+1014096188+1014200091+1014430579+1014822286
2802+1015174895+1015222058+1014984874+1014772027+1014824087+1015090289
2793+1015341011+1015445634+1015517063+1015748055+1016128529+1016451616
2785+1016637605+1016893078+1017391137+1017932903+1018173111+1018090738
2776+1017958753+1017930887+1017958320+1018006132+1018101538+1018275647
2768+1018585412+1019027451+1019410877+1019532782+1019463513+1019483387
2759+1019758806+1020193644+1020564542+1020735554+1020710640+1020513634
2751+1020151305+1019733028+1019473810+1019529974+1019919521+1020539124
2742+1021138566+1021408872+1021262918+1020960425+1020844065+1020997004
2734+1021216547+1021284160+1021195810+1021087298+1021022710+1020963377
2725+1020901741+1020902677+1021027390+1021299497+1021712950+1022187535
2717+1022542015+1022628997+1022519550+1022455393+1022584138+1022840260
2708+1023091917+1023269050+1023356176+1023404923+1023527188+1023771141
2700+1024076442+1024388728+1024700509+1024978305+1025161629+1025198928
2691+1025033676+1024673435+1024284248+1024076010+1024121805+1024376415
2683+1024748681+1025075295+1025182439+1025065287+1024885490+1024776475
2674+1024768338+1024856904+1025000410+1025100929+1025121018+1025161341
2666+1025302831+1025463114+1025535911+1025580338+1025735149+1026018273
2657+1026302189+1026438422+1026383410+1026263450+1026292684+1026565007
2649+1026964491+1027307235+1027485735+1027474646+1027327468+1027188642
2640+1027200811+1027389608+1027674748+1027934542+1028027141+1027888603
2632+1027696782+1027787508+1028290175+1028940524+1029354193+1029417197
2623+1029353617+1029480130+1029890774+1030329141+1030449245+1030254399
2615+1030126879+1030325900+1030638402+1030681029+1030397689+1030102253
2606+1030099085+1030391785+1030766859+1031055239+1031221499+1031287815
2598+1031319785+1031386246+1031394671+1031160798+1030777804+1030626305
2589+1030882787+1031335195+1031728486+1031990512+1032157780+1032322023
2581+1032580017+1032921033+1033236271+1033403250+1033311012+1032944866
2572+1032496131+1032263627+1032448536+1033070443+1033948760+1034767961
2564+1035286397+1035452585+1035319736+1035006010+1034710357+1034569515
2555+1034526168+1034483397+1034497726+1034694948+1035048709+1035370067
2547+1035528838+1035565921+1035540791+1035392029+1035040500+1034519904
2538+1033992179+1033717120+1033885900+1034349324+1034715254+1034828157
2530+1034870136+1034962087+1035069014+1035264292+1035618916+1035904056
2521+1035874534+1035693730+1035631301+1035593499+1035377700+1035132595
2513+1035195455+1035690849+1036483481+1037275968+1037666523+1037436323
2504+1036870219+1036503282+1036500762+1036557214+1036420476+1036208925
2496+1036158522+1036354592+1036727433+1037032663+1036941288+1036473544
2487+1036138505+1036297492+1036656581+1036709072+1036410323+1036122303
2479+1036082413+1036145561+1036013288+1035634541+1035314191+1035373523
2470+1035764439+1036090981+1036020488+1035665648+1035509109+1035858981
2462+1036456983+1036804983+1036806999+1036814704+1037035615+1037212387
2453+1037033527+1036623746+1036420908+1036705472+1037418033+1038290158
2445+1039020649+1039422437+1039479033+1039271226+1038919338+1038585595
2436+1038382037+1038252211+1038028132+1037596390+1037035687+1036672638
2428+1036841705+1037450292+1038006890+1038199288+1038117706+1037891898
2419+1037617919+1037644345+1038271653+1039135713+1039526412+1039299308
2411+1038905369+1038667032+1038569466+1038583579+1038739469+1038973990
2402+1039135857+1039103023+1038898456+1038709803+1038657888+1038605180
2394+1038394565+1038155509+1038134483+1038313056+1038402414+1038189927
2385+1037771722+1037443091+1037423218+1037696333+1038005306+1037991265
2377+1037540154+1037053760+1037126917+1037867489+1038752070+1039196773
2368+1039127432+1038984862+1039207214+1039704264+1039956354+1039657029
2360+1039104895+1038904505+1039307013+1039967515+1040405953+1040387376
2351+1039819328+1038770504+1037630448+1036992628+1037335228+1038559241
2343+1039772669+1040048160+1039407604+1038593299+1038011931+1037538426
2334+1037228660+1037379151+1037974848+1038725788+1039361953+1039558166
2326+1039096254+1038240547+1037465701+1036910326+1036535612+1036520563
2317+1036972539+1037614175+1038102009+1038352442+1038420703+1038386357
2309+1038455122+1038836676+1039400115+1039771949+1039846906+1039863900
2300+1039982060+1040150479+1040315083+1040390112+1040170281+1039601225
2292+1038987959+1038728381+1038950948+1039469600+1039983572+1040292617
2283+1040357134+1040228461+1040011798+1039824873+1039739619+1039833297
2275+1040151344+1040453189+1040365486+1040058745+1040267200+1041306088
2266+1042550766+1043172962+1043027800+1042607146+1042339720+1042199886
2258+1042017857+1041871399+1041876223+1041854118+1041637527+1041508278
2249+1041877376+1042668063+1043387393+1043780900+1044064744+1044384950
2241+1044397767+1043769307+1042838066+1042301197+1042420221+1043000654
2232+1043909861+1044989360+1045649070+1045376963+1044614862+1044245188
2224+1044285295+1044092826+1043688589+1043701766+1044124436+1044267006
2215+1043851897+1043322228+1043135375+1043163961+1042832306+1041893937
2207+1040940662+1040789596+1041532760+1042527725+1043120326+1043197155
2198+1043127454+1043166841+1043141063+1042953058+1042803072+1042650349
2190+1042304797+1042128169+1042689304+1043949248+1045525365+1047079809
2181+1048041580+1047976272+1047250533+1046464814+1045758445+1045148275
2173+1044703212+1044221499+1043518298+1042869461+1042671591+1043073523
2164+1044119611+1045570008+1046679893+1047019757+1047410960+1048827731
2156+1050503215+1050629440+1048607827+1045873941+1044689675+1046154329
2147+1049161114+1051436616+1051723772+1050592789+1049150961+1047766665
2139+1046356735+1045249730+1045129914+1046167146+1047640080+1048730596
2130+1049332558+1049671341+1049578311+1048757742+1047464532+1046382873
2122+1045988285+1046275585+1046857962+1047270839+1047382374+1047377406
2113+1047250245+1046664484+1045439391+1043945143+1042990213+1043224517
2105+1044352260+1045221720+1045201703+1045046172+1045756213+1047123156
2096+1048145771+1048430695+1048436384+1048636557+1049033017+1049285323
2088+1048971669+1047948046+1046703007+1046163114+1046834200+1048126834
2079+1048786976+1048152252+1046774724+1045660375+1045252898+1045401445
2071+1045871061+1046520042+1047330891+1048446176+1049753715+1050507104
2062+1050007605+1048492835+1046885396+1046108102+1046751394+1048622877
2054+1050504079+1051175814+1050683660+1050014949+1049906654+1050362878
2045+1050941726+1051296134+1051666816+1052616130+1054017492+1054917122
2037+1054546800+1052871460+1050532449+1048980813+1049741546+1052611162
2028+1055372122+1055968467+1054364700+1051929058+1049715769+1047956398
2020+1046838953+1046868403+1048007810+1049153769+1049381953+1049226639
2011+1049964330+1052096110+1054903153+1057256565+1058654038+1059377760
2003+1059850185+1060268462+1060555474+1060174064+1058468913+1055771030
1994+1053511152+1052665382+1052672654+1052481553+1052000991+1051685681
1986+1051569393+1051378148+1051077599+1050881962+1050872097+1050907667
1977+1050997242+1051450009+1052327246+1053162864+1053577325+1053763674
1969+1054255180+1055451543+1057081953+1058241305+1058389996+1057840237
1960+1057006347+1055922960+1054765696+1053955999+1053466797+1052938785
1952+1052573647+1052990052+1054132916+1055081078+1055056668+1054212193
1943+1053315587+1052869156+1052699872+1052585888+1052736163+1053282681
1935+1053741064+1053519433+1052822353+1052474352+1052773605+1053032679
1926+1052548950+1051658968+1051425815+1052353960+1053878954+1055214791
1918+1055852971+1055503675+1054466947+1053611887+1053584165+1054266845
1909+1054986607+1055205430+1054909850+1054420648+1054074736+1054056446
1901+1054383205+1054966734+1055625435+1056140343+1056421523+1056570501
1892+1056750442+1057057615+1057437873+1057699252+1057820292+1058077638
1884+1058631716+1059218701+1059443717+1059241383+1058878550+1058611699
1875+1058446880+1058263987+1058090455+1058127465+1058577713+1059480151
1867+1060585572+1061489019+1061936530+1061928322+1061645630+1061267532
1858+1060820957+1060301441+1059915638+1059953800+1060326930+1060519760
1850+1060169743+1059432340+1058725755+1058428662+1058683416+1059015431
1841+1058747068+1057917427+1057118027+1056871338+1057144093+1057421240
1833+1057426209+1057483309+1057972583+1058560431+1058760821+1058830594
1824+1059085780+1059248295+1059103997+1059002974+1059261112+1059611417
1816+1059530843+1058982525+1058499011+1058585345+1059160233+1059710495
1807+1059976338+1060068360+1060158079+1060391447+1060813828+1061207624
1799+1061314695+1061225193+1061206543+1061429039+1061992190+1062768188
1790+1063240901+1063197770+1063000620+1062967282+1063000764+1062850922
1782+1062602144+1062514514+1062546125+1062425084+1062056347+1061667015
1773+1061795976+1062817943+1064044117+1064539511+1064290734+1063645641
1765+1062905790+1062504650+1062822624+1063551026+1064035260+1064217721
1756+1064193023+1063742560+1062942584+1062478224+1063079466+1064472114
1748+1065400331+1065353456+1064775184+1064171566+1063889738+1064113890
1740+1064524390+1064457641+1063945902+1063989177+1065414516+1067002730
1731+1067393286+1067114986+1066752873+1066389176+1066115053+1066006469
1723+1065819184+1065334878+1064924306+1065503226+1067390261+1069024271
1714+1069307107+1068780606+1068107287+1067631478+1067590435+1068178932
1706+1069093828+1069487983+1069232870+1069280105+1070217754+1071041707
1697+1071311150+1071715890+1071891510+1071296605+1070417712+1069844336
1689+1069431891+1068818985+1068506123+1069459829+1070699107+1070454074
1680+1069091956+1067492869+1066283472+1065837761+1065831641+1065485657
1672+1064787352+1064466570+1064646151+1064440648+1063642977+1062866619
1663+1062567006+1062484488+1062027689+1061013930+1059531203+1057895753
1655+1057256853+1059178234+1061161180+1060700780+1059333909+1058888558
1646+1059895980+1060768177+1060741679+1060395551+1060129853+1060124236
1638+1060998953+1063591277+1066670787+1068068549+1068192109+1068214863
1629+1068805016+1069918861+1070997496+1071924777+1072988291+1073741823
1621+1073300216+1071018162+1065442886+1055066965+1042026066+1029177853
1612+1016432750+1003494891+991747994+983616757+980683057+982757161+988334813
1602+995085210+1000301181+1001758562+997976787+987614619+969691637+944981679
1592+916344856+887649852+863100970+846351525+839153401+841292525+851392452
1582+866853510+883970181+900385450+917797773+939805383+962320772+976808035
1572+984655645+991020816+997066500+999300527+995265439+985779283+973083000
1562+959978017+948183021+939222214+936169418+934991848+929753124+920064922
1553+906557143+889944868+872379751+857659839+848104775+843584373+843408896
1543+847094761+855872603+869428554+878903908+882105971+884487465+890666430
1533+900754404+909895655+916219927+922188854+929669238+937422521+943652538
1523+949609656+956809149+962965865+966026942+966732447+965207381+960548513
1513+952586919+942199981+930992402+921223339+916625099+918351995+921090057
1503+923538516+927177649+932805056+940513840+949798597+958300733+963497118
1493+965947592+968012840+971774093+977050260+981340103+983664568+984903558
1483+985967288+987194614+988214708+988429139+987702969+986298871+984337311
1473+981466399+977487043+973165662+969354149+966652521+965870907+967281053
1463+969363294+970536543+970976062+972076874+975540027+979883513+981560078
1453+981184068+980397773+979876169+979688452+979317410+977824458+974846187
1443+970885624+966627032+962570341+959184162+957221162+957181559+957916154
1434+958126409+958161619+958690208+959334364+958944745+956814837+952711344
1424+946726216+939512970+931702227+923831864+917445524+913925559+912962420
1414+914134158+917300362+921742783+926189236+929837154+932732331+934784618
1404+935079262+933033312+929220935+924751008+920952024+919281724+920815502
1394+925140771+930261551+934906522+939465375+944464683+948945554+951185990
1384+951139043+950274767+950004748+950932676+952781117+954953292+957162261
1374+959318235+961065653+962140400+962887092+963888321+965459470+967832179
1364+971433294+976064224+979996561+981479360+980124802+975734513+967584122
1354+955333622+940094411+924357429+911269295+903675359+902785521+907487232
1344+915188383+923669493+932313550+941368323+950206146+957428680+962656531
1334+966550994+969738584+972510201+974962331+977082302+978855930+980384740
1324+981803023+983134899+984401755+985813270+987606770+989696860+991754475
1315+993600971+995263135+996784240+998184738+999528207+1000878157+1002221914
1305+1003517644+1004781620+1006058125+1007322245+1008506007+1009602788
1296+1010649812+1011610143+1012314784+1012415879+1011253070+1007772348
1288+1000780014+989661001+975196851+959817014+946911053+939376521+938253531
1278+942485049+949850225+958158955+965905037+972251991+976837053+979786739
1268+981729290+983441497+985365614+987524036+989841014+992304305+994765148
1258+996906937+998565932+999895361+1001145944+1002444986+1003814089+1005270678
1248+1006829875+1008472309+1010173355+1011901763+1013523460+1014726448
1239+1015066311+1014016982+1010986724+1005478053+997502994+987985445+978702055
1230+971532157+967376460+965556533+964249066+961678847+957217993+951617084
1220+946329612+942575055+940829294+940891506+942179604+943996002+945811464
1210+947510782+949329917+951490355+953937661+956481526+959112013+962041681
1200+965411515+969066201+972695109+976157902+979547970+982912980+986081704
1190+988886083+991383649+993704082+995827438+997675950+999294839+1000779582
1180+1002084745+1003059477+1003696865+1004237118+1004933407+1005778170
1171+1006559496+1007092189+1007284442+1007086141+1006525654+1005774641
1163+1005129117+1004921814+1005392511+1006529182+1007995420+1009258316
1154+1009855237+1009594147+1008567860+1007082252+1005564459+1004296595
1146+1003010369+1000836322+996930122+991379617+985599415+981702216+981154402
1136+983771280+987942962+991806030+994257225+995182849+995173056+995113436
1126+995758313+997381306+999752143+1002468099+1005245045+1007877260+1010113087
1116+1011754945+1012844165+1013644789+1014423307+1015224578+1015845838
1108+1016057316+1015849438+1015410423+1014890835+1014284265+1013547294
1099+1012729677+1011924805+1011193234+1010619066+1010330614+1010369857
1091+1010643548+1011051168+1011536338+1012025900+1012476795+1012964629
1082+1013615267+1014476878+1015461115+1016350737+1016922600+1017115718
1074+1016993525+1016616651+1016131409+1015872551+1016129465+1016867301
1065+1017855353+1018965527+1020175355+1021369414+1022356962+1023074132
1057+1023595736+1023975419+1024256382+1024574933+1025016467+1025417319
1048+1025504013+1025154285+1024388440+1023221382+1021630072+1019556616
1040+1016863412+1013307517+1008569228+1002411864+995009533+987192597+980289693
1030+975583374+973667897+974126425+975887163+978032121+980287677+982865025
1020+986094737+990171373+994917294+999701739+1003819489+1006983677+1009341337
1010+1011113381+1012388733+1013127865+1013174020+1012365548+1010828745
1001+1009133315+1008019757+1007933207+1008851703+1010509259+1012623974
993+1014876578+1016894663+1018428081+1019409509+1019754485+1019290197
984+1018008220+1016257418+1014582366+1013447423+1013137801+1013786494
976+1015356780+1017603552+1020159082+1022707123+1025054270+1027079267
967+1028698659+1029852539+1030490576+1030639698+1030485391+1030242519
959+1029907623+1029228760+1027954271+1026070260+1023799079+1021450707
950+1019351329+1017814094+1016995686+1016793640+1017081804+1018006564
942+1019839091+1022553824+1025724924+1028831724+1031576627+1033946600
933+1036033377+1037800596+1039042322+1039575087+1039436334+1038905081
925+1038380812+1038196192+1038409398+1038714268+1038659688+1038039509
916+1037017398+1035912265+1035035748+1034677307+1034964967+1035695098
908+1036455327+1036873244+1036647652+1035545327+1033598816+1031212498
899+1028861679+1026610874+1023871732+1019633157+1013165739+1004862626+996467274
890+990177349+987162355+986752575+987002288+986158606+983824347+980887479
880+978545588+977622844+978513762+980912249+983274733+983221593+979045879
870+970784457+959906660+948387587+937976744+929592265+922899615+916516947
860+908737527+898262094+885192106+872413737+865528690+869581060+884909846
850+906656510+928437808+946213612+959310171+969051440+976931092+983686674
840+989449090+994235407+998178257+1001480407+1004264480+1006505348+1008250246
830+1009859485+1011765530+1013976516+1016066173+1017724592+1019143955
822+1020776236+1022800225+1024927685+1026691664+1027819262+1028347563
813+1028562570+1028951613+1030061498+1032097152+1034589389+1036691791
805+1037953967+1038685106+1039460239+1040380175+1041034341+1041218386
796+1041256980+1041275486+1040664739+1038954692+1036855602+1035701146
788+1036120215+1037767186+1039892630+1041459170+1040902500+1036410035
779+1026670350+1011585877+992854135+973912210+958209790+946523090+936192675
769+923568398+907066722+887670590+867073846+845978251+824191624+802431639
759+784136535+774865963+778992426+796531045+822765205+850529183+873423031
749+888421530+896843164+902962581+910647891+920338757+928800858+931305696
739+924270447+907959296+888508512+875828142+876597156+888995842+905412191
730+919527261+929729722+937203698+943137918+947949077+951637965+953911523
720+954209696+952372416+949474287+947499766+947902562+950568763+954198463
710+957463386+959734568+960969022+960962830+958634044+952176131+940414905
700+924736751+909755101+900935496+900688375+907044905+916063748+924722494
690+931723829+936957801+940950118+944431488+947848630+951003097+953313810
680+954670888+955675934+956701285+957290286+956945166+955957618+954990518
670+954450841+954625309+955544597+956575133+957240819+957234122+955370849
660+949662940+939665981+928563961+921380886+920523090+923368944+923704415
650+915683850+898674107+879507022+868178907+869907171+881756459+896659695
640+909457937+918848614+925334465+929269970+931058863+931776824+932460944
630+933243926+933699646+933423867+931825212+927997426+921549665+913571007
620+906579753+903331103+905022428+910229038+916175428+921284975+925751446
611+929949625+933505089+935924601+937172016+937476669+937122116+936385289
601+935467585+934683379+934525400+935156019+936244447+937593389+939313228
591+941194935+942698832+943685300+944453882+945198126+945789863+945882749
581+945200214+943970296+942752692+941443497+938823666+933642546+926036009
571+917680404+910787797+906572336+904332908+902524935+900684703+899362763
561+897819263+893196470+883832075+872915828+866763504+868957569+877384747
551+887090158+894642259+899438224+902053950+902800930+902295599+902203072
541+904139503+908113315+912729628+916613722+919019481+919631452+918906506
531+918336658+919278483+921481117+923350871+923706287+922916608+922063349
521+921815292+922356481+923442245+924540249+925459897+926381057+927146975
511+927312226+926855642+926207885+925601963+924894514+923976162+923041537
501+922532462+922804353+923791181+925060558+926080508+926627602+927158495
492+928388485+930324411+932395275+934470964+936715216+938613196+939282050
482+938664895+937258638+935162932+932464472+929943217+928510389+928193135
472+927939462+926497705+923322069+918544680+912655391+906015881+898792987
462+891879931+887294796+886897904+890292580+894732121+898853471+903619339
452+909224136+914267871+917850264+920271577+921940005+923201316+924717310
442+926818128+928659656+928952212+927485614+925814018+926104630+928603276
432+931124027+931060087+927307906+920738817+913386818+907604960+905037549
422+905507382+908085953+913038530+920035184+925772759+928155549+927729063
412+926557758+926914614+928823467+929735915+927639921+923702327+921060103
402+921740983+925861757+933231974+943635401+953254262+956066993+951603043
392+944331185+938883503+937377446+939505698+943865097+948090567+949715792
382+949084092+947478164+943916653+937454059+930919821+930231453+933867562
##END=
