##TITLE=X8157
##JCAMP-DX=5.0
##DATA TYPE=LINK
##BLOCKS=1


$$ === CHEMSPECTRA SPECTRUM ORIG ===
##TITLE=X8157
##JCAMP-DX=5.00
##DATA TYPE=INFRARED SPECTRUM
##DATA CLASS=XYDATA
##ORIGIN=ComPlat
##OWNER=
##XUNITS=1/CM
##YUNITS=TRANSMITTANCE
##XFACTOR=1
##YFACTOR=8.9126567e-010
##FIRSTX=3997.453
##LASTX=373.96442
##MAXX=3997.453
##MAXY=0.9569892252831165
##MINX=373.96442
##MINY=0.4832404539385742
##NPOINTS=2559
##XYDATA= (X++(Y..Y))
2559A005245269A006082027A006640512A006532306A006116937A005780013A005470509
2552A005185816A005247209A005710261A006128038A006228553A006212570A006168833
2545A005892165A005440214A005251690A005542803A005965461A006018762A005631481
2538A005230757A005225407A005587944A006063837A006527357A006924335A007127573
2531A007043108A006677093A006118608A005668062A005825222A006829839A008212576
2524A009054215A008949487A008481084A008495195A009031678A009236453A008617445
2517A007667734A006987868A006651948A006709127A007495928A008765510A009400702
2510A008895718A008027863A007698296A007844220A007823756A007516192A007392537
2503A007755810A008243406A008238724A007800216A007721703A008585545A009957582
2496A010830051A010874591A010826106A011548839A012860218A013826984A013947762
2489A013254655A012012493A010744918A010128651A010574249A011481896A011523091
2482A010562546A009837070A010152726A010714689A010673760A010609961A010907160
2475A010757357A009999246A009541477A009664061A009794871A010174127A011735625
2468A013832534A015038650A015484047A015624420A014774489A012564156A010094945
2461A008444369A007816600A008435675A011149319A015176817A016719054A015117564
2454A012715431A010996640A010370878A010683324A011448324A012196202A012874062
2447A013640398A014316251A014549249A014350693A013868046A013116489A012260538
2440A011809991A012113409A012653436A012576261A012253047A013135883A015102785
2433A015945026A015454956A015223764A015351899A014555535A012596257A010283403
2426A008659511A008769522A010424446A011728870A011842560A011877536A012604082
2419A013364466A013912585A014451810A014360590A013085592A011307214A010008675
2412A009474466A009579396A010177271A010724387A010496271A009738829A009534321
2405A010218400A010736424A010228230A009159479A008432198A008601194A009652224
2398A010823899A011293772A011216463A011053619A010758627A010519678A011133670
2391A012722119A013880017A013612043A012716768A012239271A012649424A014099638
2384A015713300A016079715A015413426A014975118A015013037A014201157A012095219
2377A009539872A007618713A007598182A009883683A012369078A012826044A011899405
2370A011039174A010733281A011036097A011904488A012887972A013349352A013001194
2363A012007678A010910637A010247090A010130257A010602136A012097158A014507117
2356A016066407A015514409A013586229A011493198A010178742A010165701A010886094
2349A011047132A010431535A009778420A009515060A009921402A011728803A015537615
2342A020264573A022677340A021063813A017438176A014023935A011672961A010589096
2335A010712817A011950699A014654980A018902502A022261235A022376998A020606713
2328A018997667A018041000A017015517A015453284A013488188A011614378A010435213
2321A010121763A010521417A011780031A013745929A015185377A015507186A016082257
2314A018824122A022912277A023917831A020948117A017249986A014837954A013742652
2307A013254789A012883491A012490994A011971966A011198406A010113738A008904813
2300A008382375A009654698A011803370A012233252A010928092A009673691A009970556
2293A012319723A015535810A017272189A016886980A015773622A014890720A014165980
2286A013669958A014057640A015334445A016123051A015355711A013686008A012433747
2279A012071077A011960262A011524228A010973902A010597990A010164029A009448184
2272A008936646A009548298A011529043A013434285A013644478A012470596A010873655
2265A009360710A008333287A007937445A007649811A007033745A006553773A006803891
2258A007708127A009219534A011717836A014472943A015110208A013038110A010323462
2251A008802024A008618382A008804365A008644463A008182816A007752132A007604334
2244A007835125A008371741A009100427A009833526A010060705A009386725A008402637
2237A008171915A008860073A009537531A009271363A008021175A006412129A005096603
2230A004539657A004897245A005770249A006430052A006578116A006583399A006776806
2223A006826027A006163817A004909349A003950141A003951010A004489232A004545341
2216A003773253A002878112A002651000A003086031A003742690A004370994A004761218
2209A004578512A003805019A002919709A002399010A002295284A002324309A002234427
2202A002022830A001845541A001831697A002034533A002490697A003167687A003817391
2195A004041695A003654146A002896637A002199049A001846611A001858715A002019820
2188A002107228A002135115A002173703A002037075A001519050A000822131A000326443
2181A000065826I99844799I99691518I99796381A000142065A000452237A000492898
2174A000377135A000518779A001146214A001894695A002085761A001468558A000484338
2167I99817848I99800861A000090436A000046097I99572545I99260567I99517907
2160A000025700A000292068A000282706A000257360A000331459A000374260A000177844
2153I99724355I99287250I99117451I99177974I99383686I99781066A000290397
2146A000631332A000676207A000565058A000445149A000396529A000582914A001130030
2139A001780269A001949734A001322166A000230609I99300626I98842255I98723549
2132I98674462I98535225I98316205I98123735I97980954I97757185I97376525I97106545
2124I97427685I98404549I99422140I99906994A000027037A000186069A000283174
2117A000040413I99611935I99384422I99542050I99965645A000276553A000215762
2110A000215562A001000624A002383896A003233293A002922853A002056335A001426560
2103A001093515A000862190A000840321A001036336A001075726A000743484A000290397
2096I99997144I99903985I99919500I99779862I99177908I98295407I97870875I98440060
2088I99731042A000923248A001420140A001342095A001227469A001315144A001324306
2081A000943110A000318485I99944177A000113107A000661895A001318086A001969997
2074A002402755A002229077A001432311A000632804A000522859A001183531A001996547
2067A002235564A001764084A000975880A000164736I99461062I99190748I99596688
2060A000329586A000806415A000896832A000833433A000691454A000362891I99974807
2053I99991459A000660959A001510557A001763149A001211017A000319889I99605983
2046I99311593I99482195I99881849I99993933I99558234I99025496I99042617I99527671
2038I99707970I99099395I97986304I96845927I95778914I94684482I93611383I92766266
2030I92371829I92521365I93003744I93453889I93939144I94979072I96555015I97644298
2022I97387559I96270255I95504721I95661011I96347230I96815365I96613264I95931124
2014I95392770I95379662I95618210I95513482I94837696I94022606I93646293I93735305
2006I93868188I93818901I93660872I93403464I93026816I92762454I92932119I93520431
1998I94111351I94340470I94366284I94706350I95584103I96671514I97442398I97541910
1990I96960955I96043410I95117239I94209994I93437973I93254397I93789141I94423731
1982I94527991I94172610I93773893I93430415I92927037I92168525I91378447I90905631
1974I90908707I91207444I91419041I91294383I90922149I90491732I89928699I89006207
1966I87767790I86581202I85835061I85695289I85972961I86197130I86029070I85517265
1958I84808576I83928683I82964526I82071257I81269142I80577974I80179056I80086366
1950I79939839I79437330I78710985I78089704I77746293I77645845I77616754I77473103
1942I77176505I76823666I76465610I76032184I75429026I74688637I74016797I73602431
1934I73344020I72930724I72286370I71792086I71843982I72258215I72409757I72020937
1926I71441654I71025014I70707886I70408480I70274995I70286431I70121848I69676184
1918I69305019I69396507I69948504I70641478I71141513I71278676I71043271I70546781
1910I69986490I69528186I69224500I69130606I69342872I69758910I70013642I69862568
1902I69455224I69141507I69162907I69492006I69817627I69818363I69468332I68842235
1894I67779903I66227301I64713486I63914581I63842421I63924947I63773739I63471190
1886I63152323I62721238I62113265I61532176I61129245I60661846I59893436I59141143
1878I58861065I58852237I58467431I57496987I56350926I55522595I55208610I55318488
1870I55702492I56308259I56955221I57166350I56703900I56056001I55861859I56114585
1862I56356209I56310466I56002634I55592146I55235829I54923784I54547069I54176774
1854I53984906I53939296I53899973I53807683I53470292I52500918I50783398I48717118
1846I46757238I44868916I42580472I39566420I36108842I32903791I30506071I29198236
1838I29232075I30666507I32871958I34685445I35335016I35005114I34343640I33607598
1830I32493504I30669918I28153426I25168197I21975919I18907897I16294300I14276973
1822I12828229I11955960I11850563I12827561I14975764I17738897I20014767I20836545
1814I19937124I17688205I14669537I11312141I07761740I03828538H98944019H92361575
1806H83783338H73913919H64285322H56484189H51408871H49090133H49120762H51079371
1798H54408077H58228660H61763212H64879117H67944865H71220539H74494406H77206111
1790H78926105H79768279H80214211H80567386H80816366H80976803H81271394H81971121
1782H83250534H85191153H87775726H90834318H94043048H97055429H99671902I01853343
1774I03562704I04694387I05238560I05414913I05490015I05503257I05321687I04931798
1766I04546523I04475099I04963430I06001419I07185131I07923113I07884725I07157578
1758I06019275I04719933I03418518I02166325I01003946I00193203I00215607I01334048
1750I03231331I05317675I07383955I09712591I12562931I15748722I18725324I21026809
1742I22705674I24273324I26070226I27883981I29361949I30494501I31458190I32288193
1734I32931879I33436261I33968664I34730520I35857053I37351607I39092132I40867634
1726I42498883I44030888I45677652I47459842I49070426I50190807I50761329I50884382
1718I50620822I49973325I49020938I47981611I47092222I46511401I46409013I46960275
1710I48081257I49315863I50171144I50534150I50685960I50947580I51374586I51774039
1702I51939090I51843456I51677536I51687300I51931666I52264310I52583845I52940430
1694I53392648I53955614I54670322I55594955I56797460I58328328I60009132I61392404
1686I62204016I62667202I63195927I63973900I64897129I65687809I66087596I66141164
1678I66177478I66419102I66795683I67146249I67301403I66896198I65374894I62449519
1670I58646392I55291269I53705229I54258898I56237771I58540928I60374278I61516995
1662I62283465I63145435I64180682I65048871I65567565I65966750I66464578I66963543
1654I67276123I67371623I67333637I67287425I67388542I67752618I68360992I69043466
1646I69567978I69819567I69905770I70028154I70280479I70671438I71258011I72065477
1638I72891468I73421196I73563843I73443064I73085944I72474292I71903502I71829805
1630I72231197I72555414I72446138I72147199I72053774I72233872I72571932I73082533
1622I73845794I74783735I75669112I76321224I76738934I77062148I77397867I77705566
1614I77922111I78149090I78611473I79476252I80743627I82164550I83266472I83725847
1606I83760355I83894843I84361105I84972958I85491986I85834393I85992957I86020777
1598I86043783I86153126I86372079I86753141I87331421I87993698I88594917I89152666
1590I89690018I89994105I89836611I89396832I89163835I89392752I89932713I90617326
1582I91464584I92361196I92957466I93120711I93125459I93194208I93243295I93197752
1574I93105530I92844043I92150669I91089674I90180222I89858948I89989959I90119164
1566I90081713I90032559I89988086I89750541I89265353I88746191I88488851I88644807
1558I89062182I89446053I89732618I89984475I90021123I89724393I89479424
1551I89633641I89881084I89866973I89918669I90496280I91286157I91409812
1544I90416430I88749134I87297782I86702917I87045524I87964807I88990892
1537I89838417I90414624I90687346I90828321I91370087I92711227I94493349
1530I95903037I96511478I96496030I96265106I96173686I96412769I96974932
1523I97740867I98546929I99179245I99498379I99548803I99356735I98792432
1516I97909930I97220101I97271729I98036795I98938490I99468686I99709107
1509A000257761A001532425A003107766A004031530A003887010A003140803A002376272
1502A001737268A001227736A000993268A001096123A001335140A001388373A001012795
1495A000168347I99094111I98268522I98195226I99063482A000526136A001887806
1488A002599773A002611743A002347782A002320430A002624584A002895099A002920512
1481A003058612A003746904A004808232A005607606A005867755A006027055A006634894
1474A007581998A008218327A008185558A007765774A007360838A007073002A006932494
1467A007092463A007548560A008026258A008367328A008689605A008980651A008923873
1460A008347867A007499406A006661110A005855517A005168428A004986993A005549223
1453A006519064A007385983A008043111A008619452A009054416A009232575A009252303
1446A009288818A009447515A009756551A009997239A009746118A008936780A008094271
1439A007765908A008026525A008645734A009409463A010196598A010845700A011021920
1432A010452735A009419962A008622060A008372210A008387391A008497001A008974164
1425A009967947A011091872A011701250A011219807A009318444A006209895A002580579
1418I98825068I94638872I89727669I84514854I79677416I75331119I71055576
1411I66451738I61486967I56390183I51239496I46041928I41557798I39134130
1404I39077352I40353822I42426991I45896271I50981687I57001567I63227827
1397I68800838I72377924I72860771I70135758I65316043I60489706I57364839
1390I56059746I55779133I56027980I56920512I58555440I60369061I61608749
1383I62333556I63208500I64374958I65380578I66127053I67039247I68397039
1376I70156156I72427947I75419463I78766627I81671671I83840138I85719298
1369I87788856I90130734I92676250I95370567I98034054A000346506A002039950
1362A003147557A004138799A005607004A007565011A009216257A009768188A009442901
1355A009384651A010458820A012366269A014115422A015107332A015436832A015409012
1348A015290306A015389751A015855947A016433826A016731894A016594731A016053834
1341A015191262A014194737A013341862A012944750A013391551A014881290A016864844
1334A018199631A018273261A017580689A016780714A015717111A014076299A012534062
1327A012171793A012996446A014215402A015712898A017883506A020132426A021108286
1320A020698267A020389632A021140387A022049371A021855362A020884584A020508405
1313A021162122A021942636A021945980A021158778A020193016A019738122A020073240
1306A020852350A021509411A021686633A021098923A019530939A017375847A015754830
1299A015688956A017104864A018875818A020126808A021220906A022860849A024630064
1292A025369315A024700218A023402347A022586656A022738733A023198174A022705228
1285A020792094A018382270A016942087A017180568A018403336A019219696A019276207
1278A019653189A021047362A022889740A024795851A027032666A028903266A028657027
1271A026021161A023230341A022526668A023792103A025367979A026236904A026485215
1264A026645652A027542733A029571428A031459149A031615773A030695286A030479877
1257A031699034A034090668A036955319A039179963A039670367A038068744A034989153
1250A031814262A029747648A028631079A027520730A026656888A027498126A030377891
1243A033610763A035457689A035705198A035054558A034096085A033125240A032328341
1236A031953566A032215387A032757019A032589560A031292693A029901664A029717018
1229A030598583A031254172A030920794A030047990A029535715A029837998A030713610
1222A031613499A032244343A032634501A032781362A032665131A032562676A032823494
1215A033272904A033368537A033023187A032728663A032759025A032832054A032703585
1208A032441295A032001984A031300317A030803693A031152654A032064046A032587019
1201A032594643A032910367A033837274A034775015A035531186A036826181A039026013
1194A041145862A041726750A040335320A037795621A035456619A034621466A035842094
1187A037762517A037536007A033955845A029654221A028765434A032584143A038774224
1180A044405551A048290937A050611480A051264061A049327120A044789088A039878086
1173A037095559A036695839A037545236A038969904A040186586A039940547A038439240
1166A037871192A039513475A041672714A041897084A040168195A038497890A038361663
1159A039772220A041603764A042073370A040641814A039484117A040713238A042800584
1152A042600825A039984553A037740047A037880420A039655187A040681338A039595466
1145A037558210A036905831A038561155A041267911A043141253A043027429A040766539
1138A037248639A033963603A032212177A032969285A036753352A042316199A046283441
1131A046360416A043915882A041599685A040137699A038955659A038329295A039070954
1124A040814623A042365754A043375922A044508742A046118992A047527609A047749840
1117A046529145A044672321A043654396A044649650A047505606A050792582A053205149
1110A054538531A054932232A054104436A052227081A050527351A050106431A050848090
1103A051653884A051411256A049819598A047652936A046182792A046022690A046674735
1096A047347645A047699348A047579438A046780199A045546329A044801861A045157777
1089A045961230A046298622A046403016A047173566A048433317A048627726A046836375
1082A043838038A040571326A036840225A032224883A027432186A023966584A022819787
1075A023911210A026546073A030107643A034071609A037595728A040069419A042097713
1068A044570535A047077264A048392656A048254222A047607059A047252814A047182661
1061A047136583A047256626A048094186A049937768A051864344A051878053A049424692
1054A046545529A045144736A045292065A045947989A046273744A046336674A046755321
1047A047887672A049453115A050854644A051781417A052423297A053183414A054317504
1040A055648411A056385323A055818077A054411198A053077214A052069521A051005450
1033A049470703A047709179A046566261A046650392A047714596A049063493A050515447
1026A052093061A053240928A053432529A053032808A052846089A053413134A054716689
1019A056216259A057502359A058686406A059766392A060205303A059764052A059084521
1012A058914521A059452676A060478760A061583291A062355847A062710426A062897881
1005A063171539A063629174A064086074A063922360A062789140A061367749A060451408
998A060089941A059827919A059408671A058915792A058221281A057062045A055666602
991A054549163A053751328A052471247A049561053A045324099A041722069A040084667
984A040344682A041975196A044723415A048056266A050729251A052199461A053107710
977A053920258A054756748A056039304A058137417A060479295A061690494A061411352
970A060708548A060407136A060547643A060928103A061301742A061279271A060918339
963A061039787A062244966A063703674A063820106A062815355A061697984A060835546
956A060405932A060552592A061157021A061932654A062921622A064687627A067570134
949A070150827A070323101A068738665A067297813A066937483A067675732A069074452
942A070579037A071692262A072255161A072646053A073290875A073741823A072811505
935A070050647A065717524A060889448A056843225A053532308A050029590A045934948
928A041706085A037267699A031547359A024977889A019577819A015679594A012759770
921A010449993A008412536A006476732A005011670A004672139A005665721A006928682
914A007128442A006501075A005683511A004282851A001272410I96568190I91118899
907I85823157I80413926I70490738I47538956I18198806H95535195H75271911
900H49354896H17913556G90345095G69852225G53416947G39440982G27798469
893G17535482G06057150F91826787F76626382F61301921F44925494F27190273
886F09449166E93496401E79884445E68950353E62045899E60096118E63754257
879E75153140E94109926F13654421F29714255F45253590F63094209F82634692
872G01295550G17458841G31583874G45090500G58710950G71891688G83707144
865G93777259H02053081H08233196H11766143H12449888H10821046H07945160
858H05060112H03423245H04248165H08427138H15872956H25195661H35078790
851H46178401H59867466H73240942H81744945H86742819H92035820H98923889
844I05139984I08950602I11168223I12617702I13741560I16124166I22599207
837I30829017I32807957I29868003I25741662I21394228I16462226I10553094
830I04325630H99195407H96150725H95374424H96625213I00105127I05150751
823I08500791I09594220I10733259I13545078I17351950I20065661I21524302
816I22950107I24671773I25862307I25877555I24522706I21315782I16427919
809I10817189I04648442H97978992H91899459H87605659H85480996H85376802
802H87322839H91242264H94628417H95630427H95938058H97042923H99514608
795I03544647I08776790I13809373I17531781I20514134I23880960I27819713
788I31040882I32564995I33223527I34157389I35906541I38551637I41747125
781I44954986I47824586I50006495I50534685I47402395I38870036I25884844
774I09911147H89835252H63289398H32380929H06622612G92806013G90068829
767G96588744H10756711H23738357H27458558H26203355H25865161H28941676
760H35084006H41376675H44207286H42624455H38329251H33173682H27994238
753H22293091H13817644G99883142G81701320G63184581G46145074G31764039
746G22149619G18463325G20169409G26147825G34343261G42535955G50932823
739G61311038G72422352G80127518G82799163G80471797G72809567G60804449
732G48098869G38983414G35847981G38546778G44673392G51668865G59272779
725G68410370G78721575G88956942G98856924H08331772H16714529H24405182
718H33220495H44697022H57919356H69474797H76257603H75570982H63331664
711H36785275H00456942G66604506G48438534G51582661G69567934G91458454
704H11945907H30175011H45907618H59873485H73800831H87964317I00330500
697I09538713I16445307I22275659I27388159I31389910I33687850I34013203
690I32687178I30623840I28943370I28315133I28573811I28670046I26543978
683I19033223I02817901H76349023H40639363G99044980G57095484G20854692
676F93984621F76525599F66451204F61672684F60567418F61626874F63602469
669F66142034F69856751F75495101F83125765F91993242G00676676G07620252
662G12227970G15475020G19321684G25569344G34993233G47216568G61260012
655G76225480G91577360H06926766H21715747H35151017H46290218H54001937
648H56821915H53043933H41327655H21604532G95609807G66774774G39641946
641G18658203G06510906G03143144G06260187G12864366G20739798G29081693
634G38187851G48668990G60745398G73959105G87249253G99190904H08302079
627H13360610H13451629H07540424G94470032G74563802G51592358G31985801
620G20999813G19623631G25012465G32929427G39349161G40535213G32693220
613G12574456F79660096F38359769E97253384E65037481E46619351E42195745
606E48774678E62287925E79173682E97004270F14268280F29924849F43307754
599F54371853F63777752F72466268F81045709F89577466F97791761G05373205
592G12191723G18401130G24270471G29936307G35398304G40620548G45496440
585G49829563G53491916G56514127G58937929G60720586G61911990G62848794
578G64050831G65913205G68520047G71725500G75369663G79364056G83539351
571G87547856G91108222G94302306G97430182H00594239H03627351H06400984
564H08958739H11370168H13669110H15731513H16832165H15813236H12616744
557H09348093H08651776H11065011H14925451H18642643H21972218H25221743
550H28325477H30983346H33182309H35297075H37702285H40358482H42888349
543H45050263H46948683H48777352H50555595H52168654H53584963H54976326
536H56574940H58414643H60281832H61890879H63038010H63648925H63754858
529H63365637H62434584H61134306H60092840H60092840H61488216H64004173
522H67015350H69944604H72565089H75086730H77866582H80953731H83971796
515H86474311H88332806H89759882H91045046H92311819H93474866H94376762
508H94946950H95176068H94933441H93908292H91903003H89310406H87246332
501H86953480H88915835H92633829H97295181I02449145I07884792I13109244
494I17316037I19856940I20319056I17845966I10628397H96465111H74073218
487H44408249H11534416G82005073G61918811G53568824G54904880G61989232
480G71579308G81853731G91848544H00838003H08058515H12843589H15175569
473H16063487H16965917H18515979H19693739H17905598H09675787G92257359
466G66294601G37411350G13994443G02172300G02577571G11545630G24576832
459G38582423G51971748G63953392G74281249G83272314G91447687G99006660
452H05793077H11679137H16764018H21306932H25591971H29707077H33445601
445H36500850H38365364H38021619H34987704H31356382H31278806H37073311
438H46804230H56608311H64229145H69485430H72620128H73298589H70537998
431H62838250H48513792H26044323G94529887G55370273G14640135F82411592
424F67167383F70054237F85128647G04750385G24030117G41269316G56373152
417G69654873G81395829G91752443H00764105H08305089H14156640H18439071
410H21892234H25297179H28502566H30278669H29218812H24865359H18419276
403H12642692H10515889H13257286H19568613H26947489H33578752H38946587
396H43176520H46476603H49197804H51752817H54179293H56232399H58071701
389H60322426H63279835H66489033H69229762H71152458H72450529H73611771
382H75018316H76729817H78549457H80181174H81389029H82142793H82615141
375H83068296H83758661H84801465H86035669H87182800H88187551H89231491
368H90330471H91126635H91333618H91242064H91366989H91715749H91922665
361H91956170H92157200H92747117H93662655H94642662H95385726H95914451
354H96636850H97772478H99047209I00126728I01001204I01857690I02826863
347I03839238I04667302I05243509I05839310I06744550I07915154I09093516
340I10100809I10902657I11572023I12307396I13377753I14941658I16889165
333I18834266I20366070I21442579I22435426I23715307I25348228I26971252
326I27406684I24368088I14684117H94773807H62049041H17731652G68082809
319G21609658F86026396F68252118F73238423F99313066G36721320G73504279
312H02325067H21816664H34046352H41917504H47530374H51619265H54161504
305H55212333H55083128H54185045H53001867H51913521H50818353H49167709
298H46412000H42040691H35273601H25317844H12023283G95887946G77419090
291G56758895G33940933G09382646F83976433F58699560F34394333F12009730
284E92730332E77751422E68008533E63880185E64950943E70200942E78508931
277E88991339F00929714F13411326F25369964F36366518F46987495F58029391
270F69772219F82455196F96703281G12681793G29195383G44173692G55116143
263G57642533G45358340G16016852F79219381F53112036F49727555F66000256
256F90174739G12957859G31377293G46214492G59030018G70972004G82792475
249G94984044H07385404H19098205H29372962H38238299H45965667H52283347
242H56238552H56725078H53371092H46762366H37611935H26368874H13786747
235H00709066G86571862G68748096G44165065G11941605F75003425F39661786
228F13105032E99933857F00221961F10557910F26508535F44470200F62395551
221F79579978F95870469G10931236G24203461G35514936G45342023G54273500
214G62441918G69284244G73640306G74757743G73918244G75472719G82579942
207G90859307G96087371G99110987H02299721H06857014H12085611H16629061
200H20124691H23279652H26480758H29242219H31377114H33727285H37104878
193H41182800H44957572H47938254H50510855H53252186H56256608H59314131
186H62405091H65574230H68470982H70579729H71993028H73456083H75464917
179H77783521H79983621H81829945H83042415H83572678H84294475H86498253
172H90396478H94779023H98256864I00236940I00839564I00489466H99501701
165H97651298H93733812H84735658H65388849H30884837G82518148G29141080
158F80433923F40751203F11830167E98250980F04852283F29161187F61759289
151F93744801G20945844G43251332G62230522G78839879G92822733H03861753
144H12299549H18963583H25122298H31983081H39502932H46204015H50771004
137H53639801H56470680H60160786H63994075H67036282H69564211H72251438
130H75046605H78122451H82742875H89620177H97139560I02696922I05664496
123I07670988I10064294I12877317I16081432I19568769I21527980I18008476
116I03111422H69278247H12359471G40790883F76262775F39447648F35609076
109F55294414F83993152G10715694G31820215G48361024G61824114G73141341
102G83477424G93783345H03816144H12643294H19900722H26142899H32019730
95H37630927H42962181H47951629H51532994H52306553H51145378H50646347
88H51198813H49390943H40422148H21757746G95268336G67376728G46809759
81G40666894G50512104G70670659G92411041H10809008H25505901H36877765
74H44880330H50487850H55452486H60322493H64117395H66503746H68649208
67H71463634H74700118H77628569H79461718H79532473H77697719H73219876
60H62567334H41044500H07587572G66188067G26284588F99871016F92998194
53G03256232G24244389G49273753G73190160G92552752H06056436H15172025
46H22417816H29053895H34776843H39099600H42409915H45887221H50610768
39H56221833H60836371H62901515H62942243H62564190H62718809H64753389
32H70328407H77515347H82393379H82864055H79459310H75200153H72908566
25H72416489H71939527H71285476H71893516H74363863H77704139H80339337
18H81289583H81212810H81164592H81042007H80932263H81547125H82288784
11H81192881H78240689H77084262H81111358H88540859H94866364H97409941
4H96202354H93638580H92613699H92583404
##END=


$$ === CHEMSPECTRA PEAK TABLE EDIT ===
##TITLE=X8157
##JCAMP-DX=5.00
##DATA TYPE=INFRAREDPEAKTABLE
##DATA CLASS=PEAKTABLE
##$CSTHRESHOLD=0.93
##MAXX=3997.453
##MAXY=0.9569892252831165
##MINX=373.96442
##MINY=0.4832404539385742
##$CSSOLVENTNAME=- - -
##$CSSOLVENTVALUE=0
##$CSSOLVENTX=0
##NPOINTS=34
##PEAKTABLE= (XY..XY)
449.0406102814695, 0.6176454996842
487.2869713682562, 0.660130975527729
528.3663962392493, 0.566496548979221
592.1103313838935, 0.5332005605178566
694.1006276153244, 0.5347004510147892
738.0131162705234, 0.5790798646245369
770.5933497888973, 0.502567050883749
821.5884979046127, 0.5955901716781891
941.9937087333851, 0.7223849868552307
973.1574103596558, 0.5946233846116417
995.821920633307, 0.7408902619863901
1028.4021541516809, 0.625822065414941
1056.7327919937447, 0.6716300228134721
1082.2303660516027, 0.7905111876110316
1117.6436633541825, 0.7665712213048028
1160.1396201172788, 0.72072356693333
1232.3827466145422, 0.4832404539385742
1249.381129319781, 0.6413758376310478
1277.7117671618448, 0.6266873453430665
1324.4573196012507, 0.5887410623839401
1375.452467716966, 0.6670575714593278
1406.6161693432368, 0.6558360438041123
1427.8641477247847, 0.6403416967265527
1451.945189890539, 0.7360652660483229
1460.4443812431587, 0.7041612242248004
1510.022997466771, 0.7891059486369874
1544.0197628772476, 0.7980164859072241
1586.5157196403438, 0.7160635567484992
1620.512485050821, 0.49919444187366907
2335.8610905629534, 0.8543275564637448
2359.9421327287077, 0.8381050792018907
2855.728294964816, 0.802311298201241
2923.7218257857703, 0.7567648862786341
2950.635931735731, 0.8127011029720722
##END=


$$ === CHEMSPECTRA PEAK TABLE AUTO ===
##TITLE=X8157
##JCAMP-DX=5.00
##DATA TYPE=INFRAREDPEAKTABLE
##DATA CLASS=PEAKTABLE
##$CSTHRESHOLD=0.93
##MAXX=3997.453
##MAXY=0.9569892252831165
##MINX=373.96442
##MINY=0.4832404539385742
##NPOINTS=77
##PEAKTABLE= (XY..XY)
3382.678158827209, 0.8886868328908102
3333.0995426035965, 0.8893680539803612
3248.107629077404, 0.8844669430628105
3233.942310156372, 0.887259182150228
3224.0265869116497, 0.8871477213568035
3216.9439274511337, 0.8856028290736613
3207.028204206411, 0.8848150937151542
3184.36369393276, 0.885253545622651
3170.198375011728, 0.8831601711199878
3153.1999923064895, 0.8785163721664286
3107.870971759187, 0.8661249246294876
3095.1221847302577, 0.8647727935029217
3089.456057161845, 0.8639082871933977
3073.87420634871, 0.863752838874096
3065.3750149960906, 0.8637625545611647
3049.7931641829555, 0.859039661126987
3024.2955901250975, 0.8513446417814187
3012.963334988272, 0.8519268601890806
2977.5500376856917, 0.8281624883713581
2950.635931735731, 0.8127011029720722
2923.7218257857703, 0.7567648862786341
2872.7266776700544, 0.8061276051085513
2855.728294964816, 0.802311298201241
2797.6504873885847, 0.8435018630654837
2780.6521046833464, 0.8481975167469892
2735.3230841360437, 0.8500047299071884
2711.2420419702894, 0.8621100749251998
2682.911404128225, 0.8661585422792943
2675.828744667709, 0.8663581581601386
2619.167468983581, 0.8816077681410445
2595.0864268178266, 0.8822272984947152
2582.3376397888974, 0.8810061780740451
2571.005384652072, 0.8818890417825741
2566.7557889757622, 0.8822344509017169
2555.4235338389362, 0.8794144364109594
2534.1755554573883, 0.8878554076891596
2518.593704644253, 0.8887880414552327
2486.0134711258797, 0.8896571368916915
2361.3586646207973, 0.8369674053121059
2340.110686239249, 0.8518531293452641
1620.512485050821, 0.49919444187366907
1586.5157196403438, 0.7160635567484992
1544.0197628772476, 0.7980164859072241
1510.022997466771, 0.7891059486369874
1460.4443812431587, 0.7041612242248004
1451.945189890539, 0.7360652660483229
1427.8641477247847, 0.6403416967265527
1406.6161693432368, 0.6558360438041123
1375.452467716966, 0.6670575714593278
1345.705297982799, 0.8273754089843841
1324.4573196012507, 0.5887410623839401
1277.7117671618448, 0.6266873453430665
1249.381129319781, 0.6413758376310478
1232.3827466145422, 0.4832404539385742
1160.1396201172788, 0.72072356693333
1117.6436633541825, 0.7665712213048028
1082.2303660516027, 0.7905111876110316
1056.7327919937447, 0.6716300228134721
1028.4021541516809, 0.625822065414941
995.821920633307, 0.7408902619863901
973.1574103596558, 0.5946233846116417
941.9937087333851, 0.7223849868552307
889.5820287255665, 0.7943334553031429
821.5884979046127, 0.5955901716781891
770.5933497888973, 0.502567050883749
738.0131162705234, 0.5790798646245369
694.1006276153244, 0.5347004510147892
670.0195854495696, 0.6897667622638834
592.1103313838935, 0.5332005605178566
528.3663962392493, 0.566496548979221
498.61922650508177, 0.7581518863920075
487.2869713682562, 0.660130975527729
449.0406102814695, 0.6176454996842
422.12650433150884, 0.7687738507183574
405.12812162627006, 0.7765468335284089
392.3793345973413, 0.7851446836073113
385.29667513682534, 0.7817150924178855
##END=

##END=

