##TITLE=JPK-668, X17430
##JCAMP-DX=5.0
##DATA TYPE=LINK
##BLOCKS=1


$$ === CHEMSPECTRA SPECTRUM ORIG ===
##TITLE=JPK-668, X17430
##JCAMP-DX=5.00
##DATA TYPE=INFRARED SPECTRUM
##DATA CLASS=XYDATA
##$CSCATEGORY=SPECTRUM
##ORIGIN=Angelika Moesle
##OWNER=
##XUNITS=1/CM
##YUNITS=TRANSMITTANCE
##XFACTOR=1.0
##YFACTOR=8.6960828e-10
##FIRSTX=3997.453
##LASTX=373.96442
##MAXX=3997.453
##MAXY=0.9337347798630945
##MINX=373.96442
##MINY=0.4717390863931438
##NPOINTS=2559
##XYDATA= (X++(Y..Y))
2559I73849268I73382018I73220876I73693541I74412066I74684384I74372929I73981623
2551I73976208I74316930I74640311I74702136I74550178I74330364I74129605I74025216
2543I74064627I74197050I74387460I74685000I75043475I75287758I75397014I75556854
2535I75809431I75923828I75767689I75526010I75349926I75147727I74891106I74687948
2527I74432081I73969902I73638639I73875863I74357370I74477387I74369776I74561282
2519I74945528I74970271I74564435I74188483I74258738I74851078I75708332I76332680
2511I76344332I75895931I75542940I75646712I75920126I75795106I75219970I74751349
2503I74953616I75824990I76793282I77359233I77552247I77616677I77481992I76828993
2495I75697091I74723315I74587465I75284126I76344469I77497277I78399768I78424855
2487I77408035I76153306I75949051I77149083I78286811I78071521I77182532I76995549
2479I77526818I77882688I78194142I78837409I78971134I77975014I76766962I76547422
2471I77463897I78928158I80231004I80496809I79628794I78756872I78888267I79801931
2463I80541978I80459522I79204588I76862510I74707893I75280973I79445993I83114837
2455I83528694I82004252I80032712I78473794I77945815I78399426I78991971I79230360
2447I79548531I80181448I80532725I80374393I80293171I80626902I80901618I80617854
2439I79976302I79325770I78588533I77891461I77971244I78825003I79166204I78881550
2431I79256611I80515521I81322054I80911557I79739626I78873256I79376011I80864057
2423I81530765I80969337I80544309I80845962I80979070I80964471I81664694I82718391
2415I82930665I82207548I81377779I80838491I80407773I80091932I80162530I80566653
2407I81024171I81600335I82408307I83009008I82965690I82529558I82185683I82236335
2399I82861575I83806905I84306234I84158457I84021168I84194099I84215416I83820408
2391I83305110I82901672I82473353I81959631I81636456I82110629I83823835I85661445
2383I85961933I85333540I85787631I87675961I88483934I87008431I84524882I82116181
2375I80089190I79003691I79942510I82729563I85451364I86622951I86361807I85646023
2367I85246081I85263079I85491667I85886125I86410403I86737416I86410403I85387619
2359I84416312I84656414I86305671I87720788I87543470I86325205I85169862I84670260
2351I84930308I85652740I86277843I86513696I86538645I86623294I86765861I86763737
2343I86648106I86847084I87589461I88370291I88613204I88172274I87178621I86043429
2335I85212975I84786507I84928115I86168244I87908661I88389689I87635590I87354568
2327I88433761I89749424I90209957I89897337I89217950I88445002I87804683I87657181
2319I88405933I89786574I90593518I90117563I88997450I88546376I89708436I91635835
2311I92486578I91922204I91038903I90856925I91234111I91179072I90278362I89190533
2303I88659196I88643774I88746792I89268464I91052749I93420188I94237825I93206543
2295I91566197I90330522I89904192I90170957I90497422I90418051I90301529I90560755
2287I90781666I90465961I90162937I90741637I91961958I92856979I92996599I92532021
2279I91744680I90920463I90345122I90296526I90900723I91721718I91861544I90974474
2271I89898570I90032159I91614519I93039643I93096533I92237702I91467839I91286203
2263I91558109I91926522I92146062I92173067I92057711I91790672I91462287I91536587
2255I92401106I93413882I93572625I92952320I92318307I92039959I91863120I91483672
2247I90924096I90436283I90336623I90729093I91260568I91457695I91295113I91189559
2239I91451936I91966756I92409537I92566841I92529005I92619549I92980217I93379680
2231I93636301I93886616I94221923I94454486I94468605I94408426I94304927I93963794
2223I93420736I93070213I93140468I93408467I93572625I93618685I93658782I93688050
2215I93677426I93697440I93830617I94104374I94499244I94896170I95152586I95308313
2207I95477132I95584126I95487343I95299608I95340185I95750820I96285310I96501560
2199I96207926I95670694I95256358I95060465I95055393I95284255I95695918I96067483
2191I96241443I96263651I96275851I96379075I96560232I96740977I96912948I97133379
2183I97359705I97442778I97294590I96985603I96704307I96644264I96858526I97208227
2175I97453539I97403777I97089101I96799717I96832274I97184717I97610019I97917431
2167I98124222I98364872I98649459I98786543I98703812I98660562I98868930I99129732
2159I99123837I98818415I98409082I98109004I98061026I98257467I98533554I98709296
2151I98748913I98812246I99094501I99556200I99901309I99852301I99353933I98615942
2143I98049100I97973292I98357470I98987576I99694586A000277398A000560819
2136A000648005A000746157A000786871A000581176A000242853A000160877A000609279
2129A001495457A002453674A003172816A003604082A003817178A003811216A003602026
2122A003404556A003575363A004225552A004910628A005020912A004537212A004013757
2115A003887160A004270241A005162931A006246785A006793887A006397166A005574526
2108A005244359A005763222A006609783A006925693A006426913A005765895A005790364
2101A006523558A007158393A007027546A006304086A005665891A005507218A005698381
2094A005992426A006372285A006935631A007614608A008086314A007958963A007127138
2087A005970287A005075746A004729678A004730089A004680396A004391355A003996279
2080A003751378A003810735A004159957A004612677A004872930A004734887A004201219
2073A003365693A002377044A001597379A001518762A002308776A003531153A004469013
2066A004767513A004641190A004376412A003889765A003117228A002568550A002909888
2059A004049947A005180478A005687140A005580900A005143191A004678134A004570797
2052A005066082A005886528A006398948A006216901A005458073A004527547A003906694
2045A003976265A004739753A005763702A006543846A006882375A006897522A006820687
2038A006820687A006922335A007050577A007151676A007264702A007461211A007719683
2031A007928530A008067054A008281316A008665493A009083736A009339124A009398961
2024A009377233A009394711A009485324A009549616A009442279A009241863A009350844
2017A010112003A011310116A012271280A012542089A012312267A012103215A012193279
2010A012424471A012450654A012114798A011625614A011366663A011474959A011676541
2003A011650220A011409502A011107095A010699818A010167178A009783275A009729813
1996A009756955A009639612A009585875A009813023A010151551A010344908A010344154
1989A010152580A009741808A009222533A008834655A008656309A008456509A007978292
1982A007293421A006703960A006323278A005983447A005552044A005105150A004751611
1975A004438854A003980514A003247868A002312546A001340621A000365818I99265377
1968I97990633I96733163I95721484I94866629I93874415I92769108I91956475I91629598
1960I91494091I91195590I90652053I89895213I88912595I87716812I86427950I85244778
1952I84315692I83609642I82994204I82431611I81982387I81664764I81455437I81380315
1944I81465718I81581486I81435697I80866319I80104681I79553672I79353667I79387389
1936I79576839I79849705I79933463I79562720I78869143I78323344I78259393I78563447
1928I78876066I79033576I79178268I79435163I79710496I79885621I79968556I79978906
1920I79907143I79826743I79845661I79889733I79704327I79145779I78347265I77483705
1912I76535976I75532864I74852311I74860948I75360413I75801891I75912723I75732527
1904I75280150I74582804I73825759I73176598I72613252I72020706I71304649I70408737
1896I69327488I68056583I66554760I64869519I63211627I61743732I60364257I58799582
1888I56904877I54839845I52956381I51553738I50772840I50592232I50713551I50496136
1880I49334007I47261436I45034371I43478674I42816148I42707851I42792912I42912586
1872I42873860I42362126I41212677I39577061I37776670I36137078I34894069I34012346
1864I33148443I32041011I30883132I30061451I29620863I29272876I28870672I28599383
1856I28712271I29266022I30103467I30990468I31792820I32563095I33413426I34311737
1848I35059530I35462625I35474620I35157819I34523189I33475045I31994471I30364886
1840I29099944I28566414I28710968I29163688I29533952I29576242I29179110I28300128
1832I26980490I25443300I24073763I23130694I22516970I21981041I21451554I20987045
1824I20500740I19761378I18606309I17019769I15070847I12864687I10522746I08229470
1816I06320988I05180998I04954330I05461198I06393916I07439181I08285263I08752788
1808I08890488I08795626I08424677I07646178I06294393I04149647I01087879H97312108
1800H93337566H89741170H86921149H85026375H84062950H83967265H84510666H85332689
1792H86268356H87483604H89116822H90962862H92677439H94156711H95593556H97177698
1784H98780482I00026644I00750789I01198231I01637585I02015114I02158915I02072484
1776I01880086I01703797I01666098I01813806I02022174I02120463I02039721I01730734
1768I01107687I00209171H99241221H98307680H97226637H95735712H93836620H91847396
1760H90101770H88661224H87401285H86290015H85335842H84308330H82924537H81394132
1752H80356955H80129602H80396847H80748947H81121541H81571861H81981194H82152686
1744H81988322H81486527H80743258H79979221H79372556H78848004H78223312H77562293
1736H77154127H77106765H77191825H77140556H76890858H76472478H75828457H74909790
1728H73915726H73280136H73317629H73979538H75024597H76255405H77447692H78212963
1720H78138527H77041170H75078129H72677036H70311653H68262455H66578447H65213503
1712H64112103H63231270H62569155H62145497H61986617H62197657H62943462H64225060
1704H65784320H67350572H68856165H70284716H71471794H72226715H72568534H72718778
1696H72910832H73251897H73705028H74158707H74543296H74858794H75105408H75312542
1688H75647918H76303316H77225274H78146545H78922852H79654743H80458946H81322643
1680H82219583H83175674H84139443H84930074H85434474H85792674H86293510H87103676
1672H88124472H89065690H89652888H89834799H89819788H89875238H90108418H90462026
1664H90874306H91378363H92032322H92792726H93536064H94221346H94943847H95804528
1656H96838963H98071347H99470426I00827351I01864733I02552689I03183549I04026752
1648I04983597I05707400I06046750I06218175I06493302I06869460I07189414I07495522
1640I08063324I09047107I10269621I11443950I12477151I13461688I14487349I15556330
1632I16595700I17494353I18177031I18659361I19001042I19247451I19443069I19634096
1624I19818474I19929923I19896406I19698320I19350058I18831401I18080181I17104007
1616I16088284I15351732I15153714I15505746I16137086I16693578I17059249I17468993
1608I18234401I19382958I20649888I21780555I22726709I23571488I24380077I25166596
1600I25970182I26887547I27950702I29050046I30069882I31008495I31883844I32683180
1592I33443379I34189253I34823060I35294286I35796081I36597200I37727594I38905898
1584I39739711I40065080I40160353I40507586I41253185I41995289I42206056I41827978
1576I41317889I41075799I41036936I40943993I40756736I40633978I40721917I41088137
1568I41705220I42451162I43183395I43799176I44249154I44533740I44659241I44647177
1560I44670824I45034645I45921441I47301190I49025157I50778871I52066226I52571449
1552I52490364I52320928I52456915I53075849I54138249I55300035I56061948
1545I56215687I55997518I55762693I55734591I56044949I56728244I57634780
1538I58503755I59121386I59451895I59726132I60251300I61008346I61693354
1531I62217563I62818744I63631446I64456828I64949234I64858484I64228104
1524I63496556I63262074I63853454I65071100I66264554I66769434I66436594
1517I65685922I65065618I64943476I65484409I66542217I67657806I68447066
1510I68888339I69074842I68942213I68422323I67694270I67120917I66985341
1503I67305637I67903460I68627332I69388490I70005710I70281043I70313464
1496I70498664I71094362I71916591I72562256I72865554I73043969I73365705
1489I73767772I73946187I73811296I73632744I73662149I73819384I73879701
1482I73766950I73534867I73304497I73366390I74048177I75256846I76382168
1475I76881153I76861344I76947981I77607766I78669001I79531602I79803576
1468I79595894I79197665I78759751I78453848I78588944I79229743I79915642
1461I80139911I79955533I79786097I79811870I79868828I79805427I79651893
1454I79524405I79530642I79759503I80288305I81095660I81880466I82192537
1447I81924332I81471818I81275240I81470859I82003978I82725862I83347537
1440I83611287I83531230I83343905I83321080I83662762I84370389I85178978
1433I85784615I86149601I86448169I86715757I86739815I86435215I86212180
1426I86676346I87867193I89039740I89390949I88853649I88021824I87478561
1419I87397475I87670889I88147256I88680923I89111024I89367988I89608913
1412I90098987I90891196I91744200I92344353I92481369I92167926I91763186
1405I91699785I92013159I92534420I93324229I94301500I94918378I94848054
1398I94392318I93861529I93273645I92712424I92401312I92449977I92816059
1391I93517449I94529745I95470483I95857197I95617094I95104263I94754700
1384I94785543I95045317I95121193I94701100I93863449I93038408I92711464
1377I93077684I93972156I95159714I96475719I97649569I98370082I98556790
1370I98330739I97872056I97497611I97575406I98121000I98760497I99260304
1363I99806652A000575213A001267076A001363925A000841978A000362048A000535596
1356A001151308A001435278A001036363A000404132A000180069A000537858A001187567
1349A001779975A002225223A002693159A003288103A003769062A003829379A003650827
1342A003833766A004624809A005505915A005816479A005566301A005275409A005170402
1335A005014881A004659011A004307322A004299783A004953947A006388050A008217914
1328A009702944A010385622A010336683A009835436A009189428A008770020A008860906
1321A009394163A009968202A010250389A010443540A011137253A012390474A013235117
1314A012613030A010711128A008922526A008506750A009542625A011143559A012456480
1307A013277613A013818066A014264959A014644819A014803699A014535015A013895450
1300A013182134A012572727A012179502A012337765A013291184A014775254A016362343
1293A017883152A019122390A019481413A018453009A016476122A014992875A015218926
1286A016811430A018171165A018154989A017146805A016526090A017292457A019033285
1279A020199458A019635838A017593425A015120705A013154237A012521115A013884963
1272A016865921A019709109A020698581A019797185A018337172A017343178A016859408
1265A016769345A017457163A019469761A022993296A027460724A031334098A033090896
1258A032666896A031240675A029695397A027832289A025511391A023935543A024645637
1251A027476694A030483698A031752545A030841692A028848355A027322680A026860365
1244A026787162A026301611A025489594A024985742A025071557A025427084A025616054
1237A025583223A025541069A025523043A025321118A024853731A024361120A024169956
1230A024395391A024864697A025228586A025202678A024862298A024538095A024189353
1223A023332305A022059138A021419848A022131519A023675015A025245928A026728764
1216A028236893A029500532A030145512A030132009A029758592A029341035A028916212
1209A028378363A027818513A027412333A027187104A027293891A028137918A029706706
1202A031092419A031250819A030149144A028807710A028250190A028687967A029726652
1195A030968700A032218015A033314480A034026494A034148361A033769187A033450604
1188A033866174A034988343A035874590A035708033A034903282A034577571A034932139
1181A035141329A034901089A034749680A035000612A035480337A036042244A036588797
1174A036896962A036763305A036035938A034704237A033280346A032537009A032522204
1167A032538585A032429261A032988837A034619793A036492496A037625769A037968478
1160A038018103A038286444A039473728A042262220A046556167A051104680A054046226
1153A054253565A052313897A049639253A047028970A044832200A043527504A043100694
1146A042818918A042465721A042645437A043263686A043201862A042197242A041249854
1139A040794394A040196571A039193253A038272462A037580051A037148100A038081504
1132A041348145A045567244A048434285A049558236A049843713A049386470A047931187
1125A046414217A046163559A047165231A048431475A049374064A050010956A050282312
1118A049889362A048840533A047718228A047104709A047027393A047320547A048097196
1111A049267481A050058798A049730345A048427842A046776324A045164286A044050685
1104A044096197A045161613A045843263A044943787A043004118A041478786A040841277
1097A040534757A040337082A040592264A041363909A042345293A043339905A044138076
1090A044496207A044630687A045017538A045644011A045972601A045613921A044799300
1083A044147603A044130468A044834668A046032027A047315201A048331267A049032245
1076A049533287A049739941A049452750A048816818A048255048A047938521A047559484
1069A046740203A045462238A043876383A041949532A039585383A037045424A034987658
1062A034001202A034115735A034746938A035314191A035948136A037291421A039446174
1055A041601339A043197886A044561939A046123942A047758256A049031903A049850156
1048A050516453A051241352A051938150A052469213A052842698A053141198A053359436
1041A053468828A053692618A054383384A055351196A056005977A056321065A056757471
1034A057489910A058077109A057987388A057385658A057110257A057689025A058533599
1027A058794606A058438668A057820077A057167558A056680978A056542935A056828892
1020A057424453A057906440A057826588A057220335A056513325A056035382A055901039
1013A056104472A056481453A056813950A057040344A057275168A057715756A058454912
1006A059341708A060234398A061203993A062291068A063305352A064052459A064512787
999A064783665A065089293A065636258A066392755A067201482A067887313A068250242
992A068306995A068247912A068030976A067434730A066422640A065094982A063491992
985A061714767A059919517A058233248A056743077A055340915A053723119A051828825
978A049870582A047999729A046353900A045106025A044398604A044470984A045522144
971A047321164A049545282A052077084A054711768A057338433A060204377A063202333
964A065635093A067376949A069020995A070750584A072020392A072675859A073047836
957A073356069A073631265A073741823A073555595A073020762A072084821A070848804
950A069539036A067814932A065100877A061898323A058905987A056140114A053360395
943A050181420A046015234A040851147A035446272A029699989A022012324A011145204
936I97906807I82083555I61878897I38568946I14470214H87892251H56764474
929H23835483G92822377G62075282G29175695F99722124F78628750F62746142
922F48636713F35047381F21590198F08680459E97560488E89158890E84058547
915E82645006E84020300E87030800E92151706F00357479F10417586F19641688
908F27072320F33087836F38889980F48627597F66462281F83816416F92910082
901F99337877G09349594G22991498G34879071G43013081G49175893G54373840
894G58420556G61252230G62723963G61133378G55283940G46669314G37244522
887G28468479G21665006G17839474G17554682G20748463G25619807G29709089
880G32870586G36986667G42821300G48457299G53055436G58185046G65238355
873G74201792G84046951G93766611H03040268H11939069H20265476H27545042
866H33460828H37988847H41376601H44041170H46317036H48488651H50949513
859H53982494H57567100H61510045H65580819H69658791H73689263H77360644
852H80499317H84030392H89374882H95542218H99745005I01902568I03958690
845I07128480I10611302I13119938I14578785I15245972I15207520I15384975
838I18290194I24431141I29024137I30714107I31113912I30216973I26626745
831I19153891I07884567H93563892H76275419H56194274H35696873H20852812
824H19646816H30063753H42298491H54006209H67349613H81467608H92258099
817H98703784I03138380I07517730I12100650I16627229I21837582I28347354
810I34739782I39587411I43343920I46454080I48325207I48329182I46249277
803I41671429I32934387I17481810H98208020H82590121H71085697H60679796
796H49588681H37454220H25776934H17978505H16425482H20992295H30984134
789H44549408H56860296H64063369H67498623H69880250H71160340H68216052
782H57591296H39565586H19530912H05943019H06558869H23265214H47637360
775H67666688H80195745H88657728H96225444I03538596I09188166I12266796
768I13487048I14041416I14347455I13098964I08812762I01424351H90933183
761H76955081H59415814H39794036H21620345H08376464H01571140H00943021
754H04958483H12246000H22885835H36045272H47898848H56748298H65199589
747H75927501H88612147I00725360I10969023I19888798I27794906I34380758
740I40207441I46520086I53017794I58019163I61042137I62224965I60675506
733I54447579I41436878I20146721H90468195H56120523H25830054H06950449
726G99518788G98787583G99620299G99639970H00247663H03868734H10434093
719H18177208H26804858H37411313H49014985H57210819H58932182H56050267
712H53222089H53831564H57870399H63355399H68587686H72322811H73582543
705H73064298H73393505H76698665H82481756H88761226H94520463H99754601
698I04303867I07958729I10988489I13824138I16637031I19314553I21743474
691I24047443I26418515I28788421I30816920I32126688I32520119I32043958
684I30787996I28617478I25221635I20521988I15143365I10539059I08290883
677I08838259I11169440I14133536I17567008I21764311I26448262I30827270
670I34391314I37192761I39419277I41057498I42025242I42380015I42339987
663I42225864I42336971I42806004I43609041I44684738I45982443I47418397
656I48858189I50188108I51391020I52515176I53601018I54681993I55775511
649I56813442I57694754I58441176I59196302I60077341I61101083I62199948
642I63288874I64347504I65348765I66015129I65689829I63418829I58148433
635I49243806I37442665I25449263I17088585I15169410I19622924I27520121
628I34996540I39364649I40010520I38160916I35909518I34747595I34453413
621I33543313I31107949I28048237I26255385I26806325I29249640I32406956
614I35475511I38398139I41480197I44852118I48327880I51610834I54391306
607I56100400I55554189I51199856I42547395I31823047I23507470I21267930
600I25241649I32526699I39871174I45602721I49668903I52676661I55073024
593I56939559I58231574I59027689I59557656I60075284I60704842I61377170
586I61953539I62416609I62868917I63375236I63908287I64430371I64920789
579I65339786I65641713I65829175I65992785I66292382I66827420I67508727
572I68121903I68551044I68865035I69017267I68352273I65761044I60982711
565I55769479I52987636I54196510I58462081I63571335I67900444I71049673
558I73315190I75067739I76537963I77837039I79006365I80034768I80873927
551I81522677I82122076I82858148I83724518I84511654I85081649I85518672
544I85982016I86519247I87029748I87338941I87335582I87102471I86896023
537I86958053I87322285I87818597I88253427I88552202I88763585I89023016
530I89488896I90215372I91122388I92114327I93089541I93723692I93206884
523I90258074I83917464I75051563I66895345I63092501I64775960I69967806
516I75778998I80589067I84238720I87099935I89498080I91641319I93599356
509I95301596I96692655I97881583I99052622A000252175A001354055A002248048
502A002971440A003611483A004174214A004627345A004999322A005312284A005428874
495A005121258A004407393A003700383A003441637A003695106A004283607A005132225
488A006216078A007344553A008263152A008889831A009342345A009788690A010255872
481A010518594A010230580A009272021A008008450A007156200A007263811A008293585
474A009750992A011079472A011858383A011868733A011060555A009173047A005137708
467I96708899I80996000I56559699I25635766H93301308H64231228H41966062
460H30982421H35730184H55772604H84160074I12288387I35277904I52461987
453I64787954I72921416I76604792I74215557I62795097I39932725I07477907
446H73888035H51259596H47761352H62057421H85340161I08545174I27317511
439I41459634I52063347I59971717I65720193I69716737I72313792I73898070
432I74933808I75842948I76787045I77554166I77612770I76125272I71804457
425I62914703I47858162I26472937I01325993H77524665H60307408H51988266
418H51045471H54281679H59848519H68130717H79989365H94733286I10061459
411I23624471I34216395I41561830I45302438I44164573I36084232I20014229
404H98599463H78468625H66336563H64450220H70178132H79222380H88294661
397H95558326I00160369I01796602I00198820H94778867H85054134H71693733
390H56805325H42460113H28841582H14370594G97658421G78880739G59409959
383G40757913G24047661G10143447F99863183F93827036F92147964F94416223
376F99917605G07766686G16985578G26729913G36576443G46517219G56546345
369G66272585G75070972G82594616G89017065G94495143G97713050G94835111
362G81744422G59402214G35796093G19336978G10106571G00534962F85226804
355F67363127F54977666F53740210F64084629F82588282G04381057G25335633
348G43301368G57796551G69142505G78101417G85620469G92385215G98758041
341H05088438H11672920H18430264H25062110H31567152H38188921H44802054
334H50819283H55871167H60216521H64356112H68542174H72798766H77187781
327H81822999H86647667H91379666H95753944H99681124I03167853I06276641
320I09139912I11808113I14183983I16299804I18497258I21095205I23967935
313I26624758I28660796I30038147I31041806I32062053I33279632I34494538
306I35468244I36366145I37522310I38853258I39878440I40261521I40147673
299I40016963I40170291I40360632I40171525I39630249I39056553I38370037
292I36786513I33296014I27793398I21755812I17060003I14215786I12861946
285I13607545I17607585I24377473I31735794I38026299I43157829I47590985
278I51535712I55193864I58753658I61981299I64492402I66369012I67962680
271I69270803I69917702I69617009I68319373I65072746I56168325I36893986
264I08874244H84195030H76713128H88650531I09661996I28404312I40985735
257I49094659I54922369I59313029I62275686I63745774I64146539I64364365
250I65105098I66448315I68031565I69428176I70398660I71116707I72111867
243I73619173I75146014I76111221I76700065I77558347I78852556I80202970
236I81393886I82703175I84504731I86703625I88688052I89946893I90586732
229I91004153I91244941I90994625I90006799I88374678I86583266I85246561
222I84455586I83458370I81293335I77746426I73609851I70087275I67927244
215I66988014I66614802I66444545I66696985I67879813I70628345I75118939
208I79522485I82019811I83514574I85136756I86801709I87827782I87790084
201I86668121I84765396I82818531I81870458I82887895I86308001I91569350
194I97143798A001555363A004449136A006415261A008025997A009488271A011013603
187A012849637A014968885A017266343A019872102A022721528A025268478A027128432
180A028314276A028405917A026473857A022661279A019201076A018790441A021892444
173A026418886A030391440A033913948A037844966A041923212A045138857A046676116
166A045074085A036413193A014432202I74157022I15906990H44863947G68218696
159F96026547F43145681F23550018F39514329F78831840G24274877G64609346
152G96863884H22002877H41585106H57317128H70880209H83147915H94208529
145I04098447I12864002I20418353I27037517I33347352I39479937I45011135
138I49902836I54936900I60984219I68030674I75052316I80845892I84855734
131I87309468I88944330I90197757I89858268I84100950I65919376I25936117
124H58949317G74985980G01195227F65224482F74965869G16623266G68939484
117H16522811H53869331H82259269I04954261I24108034I39914561I51591093
110I59215974I64404257I68984161I73483460I77614757I81668260I86299365
103I91116699I94620837I96252410I97444628I99737151A002596858A003663713
96A000955690I94154889I82615784I61391975I20763599H54318966G70176597
89F90249695F37176020F21027400F33777847F57841212F81429375G04057882
82G29263633G55887315G77190700G87597150G89549088G91495062G99670334
75H14493970H32965956H51942684H69832271H86219622I00437553I11378081
68I18540852I22379406I24159852I25731039I28615627I32982640I37776601
61I42027915I45918562I50442810I56088336I62288915I68267349I74413095
54I82005075I90818747I98454320A002939088A004019035A001061038I92421943
47I76627548I50994779I10289704H50256416G72808471F87459421F10273717
40E58844089E42473085E58208842E95214845F39582117F81168641G19391812
33G57714574G92191243H16339529H32583081H45741216H57138576H66551030
26H74449873H81022635H85855870H90101153H96655271I06722712I17460699
19I23181827I19120785I06077253H88110215H66701343H42720640H19952308
12H03991082G98715819H04838260H20055395H38597568H54791357H68269172
5H81298036H94068703I05241384I14785233I23647775
$$ === CHEMSPECTRA INTEGRALS AND MULTIPLETS ===
##$OBSERVEDINTEGRALS= (X Y Z)

##$OBSERVEDMULTIPLETS=
##$OBSERVEDMULTIPLETSPEAKS=
$$ === CHEMSPECTRA SIMULATION ===
##$CSSIMULATIONPEAKS=
##END=


$$ === CHEMSPECTRA PEAK TABLE EDIT ===
##TITLE=JPK-668, X17430
##JCAMP-DX=5.00
##DATA TYPE=INFRAREDPEAKTABLE
##DATA CLASS=PEAKTABLE
##$CSCATEGORY=EDIT_PEAK
##$CSTHRESHOLD=0.93
##MAXX=3997.453
##MAXY=0.9337347798630945
##MINX=373.96442
##MINY=0.4717390863931438
##$CSSOLVENTNAME=- - -
##$CSSOLVENTVALUE=0
##$CSSOLVENTX=0
##NPOINTS=39
##PEAKTABLE= (XY..XY)
388.12973892103173, 0.6945698895693814
427.7926318999216, 0.4717390863931438
495.7861627208754, 0.540050569146872
543.9482470523844, 0.578484717605911
594.9433951680999, 0.542244258646949
619.0244373338824, 0.8886461305718364
653.021202744359, 0.8538426801641923
674.2691811259069, 0.8404281784928327
743.6792438389366, 0.7623969952934999
777.6760092494133, 0.7938323067385129
872.5836460203282, 0.5684978995849388
907.9969433229085, 0.601897600479542
940.5771768412819, 0.7517330689598216
964.6582190070367, 0.7400761882381
1001.4880482017197, 0.7372202911631947
1024.1525584753713, 0.722629193836046
1106.311408217381, 0.8389771631609488
1170.0553433620248, 0.8297771858431029
1223.883555261923, 0.8011422200264604
1247.9645974276777, 0.8054793521905879
1266.3795120250193, 0.7958388965387149
1332.9565109538698, 0.7898572725053112
1371.2028720406565, 0.7592239425131875
1378.2855315011943, 0.7460112021373038
1399.5335098827209, 0.6946322961379873
1442.0294666458167, 0.6965066828698139
1476.0262320562938, 0.7008547225305973
1494.4411466536353, 0.709970359150191
1539.770167200938, 0.7127716578692366
1624.7620807271305, 0.623991492819967
1668.6745693823295, 0.5066729215182497
1752.2499510164375, 0.9082176736588412
2658.8303619624703, 0.795825247167152
2735.3230841360437, 0.7737946553526447
2791.984359820172, 0.7495906993923888
2852.8952311806097, 0.7653679893723047
2915.2226344331507, 0.7687052528929542
2942.136740383112, 0.7869557783898524
3003.0476117435496, 0.8075177122596913
##END=


$$ === CHEMSPECTRA PEAK TABLE AUTO ===
##TITLE=JPK-668, X17430
##JCAMP-DX=5.00
##DATA TYPE=INFRAREDPEAKTABLE
##DATA CLASS=PEAKTABLE
##$CSCATEGORY=AUTO_PEAK
##$CSTHRESHOLD=0.93
##MAXX=3997.453
##MAXY=0.9337347798630945
##MINX=373.96442
##MINY=0.4717390863931438
##NPOINTS=100
##PEAKTABLE= (XY..XY)
1134.6420460594213, 0.8582129530998704
3691.4821113057073, 0.8579973624239178
2393.938898139171, 0.8576182775648504
3746.7268550977324, 0.8568542049457113
3725.4788767161845, 0.8567781498751508
3678.7333242767786, 0.8563785005194781
3704.2308983346365, 0.8562774111657528
3714.146621579359, 0.8560565758822634
3765.1417696950743, 0.8557129553880711
2408.104217060203, 0.8551041530665424
3773.6409610476935, 0.8541168024342553
653.0212027443313, 0.8538426801641923
3753.809514558249, 0.8536391900874557
3127.7024182486316, 0.8534164477530083
2419.4364721970287, 0.8533250736629873
3797.722003213448, 0.8530548263674199
3801.9715988897574, 0.8526894500132786
3833.135300516028, 0.8524710583290559
3786.3897480766223, 0.852296059228397
3090.872589053948, 0.8520654486782321
2439.2679186864734, 0.8520301034496914
2432.1852592259575, 0.8518025330500735
3117.7866950039092, 0.8516540578715628
3735.394599960907, 0.8513497158441615
3817.553449702893, 0.8512435010192341
3809.054258350274, 0.8512362884881597
3865.715534034402, 0.8511350799981002
2447.7671100390926, 0.8508715678186615
3106.4544398670837, 0.8507024690101823
3844.4675556528537, 0.8504297781153483
3823.2195772713058, 0.8503825114268971
3885.5469805238467, 0.8496034189335457
2460.515897068022, 0.8494867131543283
3874.214725387021, 0.8492137239838542
3892.6296399843627, 0.8486933756077424
3926.62640539484, 0.8483402181195433
3078.1238020250194, 0.8477396414227352
3919.543745934324, 0.8476518440315698
3855.799810789679, 0.847614054334154
3903.9618951211883, 0.8475093291482102
3943.624788100078, 0.8473200249913453
3936.542128639562, 0.8471623710974393
3976.205021618452, 0.8470203927623885
3986.1207448631744, 0.8469777749998023
3949.290915668491, 0.846684222202331
2477.51427977326, 0.8466790958615203
2469.015088420641, 0.8463936495524352
3994.6199362157936, 0.8463209320384534
2503.011853831118, 0.8408984591722235
674.2691811258792, 0.8404281784928327
2518.593704644253, 0.8391228364615814
2529.9259597810787, 0.8376606753603728
1107.7279401094602, 0.8375132132755083
2556.8400657310394, 0.8311147138160135
1171.4718752541044, 0.8287259390032261
2569.5888527599686, 0.8281461642060839
3039.877440938233, 0.826642875850881
2583.7541716810006, 0.8214730067978256
3028.545185801407, 0.8197865528506063
1311.708532572322, 0.819367412964554
2597.919490602033, 0.8179830957181379
796.0909238467552, 0.8174465343652537
3003.0476117435496, 0.8075177122596913
2977.5500376856917, 0.807489042144308
1247.9645974276777, 0.8054793521905879
1223.883555261923, 0.8011422200264604
1562.4346774745895, 0.7958720373102657
1266.3795120250193, 0.7958388965387149
2658.8303619624703, 0.795825247167152
777.6760092494133, 0.7938323067385129
1332.9565109538698, 0.7898572725053112
2942.136740383112, 0.7869557783898524
2885.475464698983, 0.7840963046160915
2735.3230841360437, 0.7737946553526447
2915.2226344331507, 0.7687052528929542
2852.8952311806097, 0.7653679893723047
2830.2307209069586, 0.7627393052880143
743.6792438389366, 0.7623969952934999
2818.898465770133, 0.7594116370251262
1371.2028720406565, 0.7592239425131875
940.5771768412819, 0.7517330689598216
2791.984359820172, 0.7495906993923888
1381.118595285379, 0.741968993273297
964.6582190070367, 0.7400761882381
1001.4880482017197, 0.7372202911631947
1024.1525584753713, 0.722629193836046
1539.770167200938, 0.7127716578692366
1494.4411466536353, 0.709970359150191
1476.0262320562938, 0.7008547225305973
1442.0294666458167, 0.6965066828698139
1399.5335098827209, 0.6946322961379873
388.12973892103173, 0.6945698895693814
1624.7620807271305, 0.623991492819967
907.9969433229085, 0.601897600479542
543.9482470523844, 0.578484717605911
872.5836460203282, 0.5684978995849388
594.9433951680999, 0.542244258646949
495.7861627208754, 0.540050569146872
1668.6745693823295, 0.5066729215182497
427.7926318999216, 0.4717390863931438
##END=

##END=

