##TITLE=X8038
##JCAMP-DX=4.24
##DATA TYPE=INFRARED SPECTRUM
##DATE=30/10/2018
##SAMPLING PROCEDURE=Diamant-ATR
##ORIGIN=ComPlat
##XUNITS=1/CM
##YUNITS=TRANSMITTANCE
##RESOLUTION=4
##FIRSTX=3997.453
##LASTX=373.96442
##DELTAX=-1.4165319
##MAXY=0.97553617
##MINY=0.4344286
##XFACTOR=1
##YFACTOR=9.0853886e-010
##NPOINTS=2559
##FIRSTY=0.9594996
##XYDATA=(X++(Y..Y))
3997+1056090877+1056398105+1057056188+1057350295+1057009018+1056345884
3989+1055916040+1056169997+1057158204+1058345982+1058986942+1058909463
3980+1058618373+1058472862+1058268240+1057802248+1057272882+1056900245
3972+1056656392+1056562577+1056760376+1057128157+1057224793+1056762213
3963+1055979021+1055510601+1055850566+1056832082+1057692228+1057701151
3955+1056818764+1055745205+1055154563+1055011807+1054927833+1054867148
3946+1054936624+1054998686+1055189531+1056021402+1057354822+1058328924
3938+1058564053+1058207030+1057194156+1055600349+1054344670+1054373077
3929+1055293515+1056009790+1056086482+1055803790+1055570433+1055464875
3921+1055219578+1054688243+1054231436+1054477520+1055521229+1056751519
3912+1057676352+1058379243+1058940822+1058772414+1057080265+1054007920
3904+1050993242+1049512538+1049749044+1051248838+1053530644+1055744680
3895+1057025617+1057084202+1056356643+1055867361+1056169734+1056531874
3887+1056025928+1054628740+1053094437+1051819536+1050926259+1051237620
3878+1053054943+1054964112+1055446571+1054185578+1052045545+1050360875
3870+1050359826+1052237505+1054392628+1055139540+1054305767+1053150988
3861+1052905035+1053557345+1054495365+1055171686+1054994422+1053399762
3853+1051447097+1051731035+1053855585+1055936837+1057160828+1057408421
3844+1056662690+1054939773+1052650029+1050675254+1050024256+1051273112
3836+1053810318+1056204636+1057358102+1057101521+1056227073+1055682093
3827+1055763705+1056191778+1056417852+1055902066+1054649930+1053669071
3819+1053686259+1054184922+1054982219+1056473223+1058194631+1058997898
3810+1058282542+1056338798+1054416967+1053883533+1054130405+1053259236
3802+1051091452+1049950648+1051355250+1054146675+1057025354+1059284920
3793+1060429398+1060519867+1060127156+1059757997+1059500366+1059143541
3785+1058505205+1057621441+1056621556+1055680059+1055296598+1055977184
3776+1057318411+1058385935+1058760802+1058625262+1058274407+1057846203
3768+1057401861+1057147642+1057440568+1058219823+1058613388+1057674056
3759+1055578634+1053908660+1053838659+1054597643+1054487886+1052345753
3751+1048974380+1047116645+1047353085+1047753932+1047216955+1046349920
3742+1046303275+1046703400+1046196601+1043931722+1040579834+1038585509
3734+1039602976+1042285300+1044857080+1046754571+1047735169+1047671597
3725+1046998097+1046648882+1047300273+1048904446+1050868855+1052562774
3717+1053673663+1053993881+1053171195+1051094470+1048824145+1048266372
3708+1049701874+1051637285+1052678633+1052324760+1051144264+1050468730
3700+1051073739+1052437403+1053751733+1054659115+1055194320+1055534875
3691+1055667332+1055338192+1054669612+1054302224+1054304126+1054176656
3683+1053636531+1052810892+1052031637+1051402157+1050656754+1050025175
3674+1050596463+1051973970+1052367665+1051507059+1051612355+1054149627
3666+1057450212+1059606056+1060189022+1059715223+1058604137+1056906281
3657+1055127403+1054521738+1055287938+1055571811+1053500663+1048946302
3649+1044639337+1044162323+1047106017+1051053926+1054473190+1056568678
3640+1057345834+1057556164+1057620653+1056987762+1055101227+1052401124
3632+1049605434+1046801085+1044683292+1045287317+1048170785+1050587147
3623+1051346524+1050925406+1050303799+1050233011+1050841497+1051560003
3615+1051811335+1051715552+1051826162+1052138442+1052178920+1052157073
3606+1052679748+1053387166+1053413277+1052639991+1051672909+1050965097
3598+1050334305+1049414327+1048294844+1047546882+1047351052+1046968509
3589+1045680881+1044148284+1044285267+1046484869+1048860359+1049876055
3581+1049515621+1048800199+1048567039+1048590395+1048305997+1047897278
3572+1047763904+1047352954+1045545341+1042293369+1039609733+1039489348
3564+1041117335+1042790917+1044037936+1045158534+1046399714+1047580997
3555+1048056239+1047246084+1045583523+1044402896+1044273786+1044412934
3547+1044072444+1043569517+1043786604+1045156894+1047350658+1049434796
3538+1050449508+1050286873+1049691049+1049168440+1048602269+1047986042
3530+1047619245+1047486985+1047183103+1046681750+1046613324+1047498335
3521+1048954502+1050000114+1050164192+1049982269+1050188334+1050642124
3513+1050525741+1049523953+1048322333+1047786275+1047926473+1048033081
3504+1047698692+1047345606+1047572796+1048146380+1048276278+1047780764
3496+1047372045+1047696265+1048438060+1048717537+1048185481+1047441980
3488+1047405241+1048333879+1049556165+1050163798+1049881828+1049235751
3479+1048849403+1048849272+1049130586+1049708303+1050465319+1050987928
3471+1051021386+1050736333+1050341194+1049824883+1049190483+1048565071
3462+1048032293+1047643387+1047565842+1047958816+1048660789+1049164635
3454+1049098177+1048681389+1048396073+1048244919+1047764428+1046791966
3445+1045763412+1045167128+1045141280+1045481245+1045693805+1045356136
3437+1044647603+1044198603+1044317151+1044669253+1044755523+1044469289
3428+1044163635+1044175116+1044222942+1043550426+1041946713+1040285267
3420+1039593988+1039929295+1040592758+1040979105+1040860098+1040274246
3411+1039437783+1038620476+1038029901+1037737040+1037620854+1037510572
3403+1037374573+1037102837+1036287302+1034707863+1032871121+1031531730
3394+1030827396+1030312594+1029638700+1028816473+1027947076+1027013780
3386+1025979977+1024971695+1024321681+1024351006+1024924066+1025296964
3377+1024753558+1023411937+1022019669+1021057638+1020389911+1019627778
3369+1018567405+1017397144+1016436622+1015596354+1014571802+1013673801
3360+1013574606+1014005106+1013719265+1012080191+1009818920+1007967876
3352+1006855085+1006266609+1005817018+1005017228+1003554369+1001561553
3343+999303168+996868700+994421504+992221770+990182112+988020167+985889515
3333+984175520+982744939+981056464+978880282+976433546+973942526+971406370
3323+968750222+965983137+963113707+960082365+956975774+954079250+951490741
3313+948917190+945966345+942406949+938293519+934100378+930455892+927527812
3303+924905648+922058459+918721922+914970106+911038008+907050540+903089903
3293+899461162+896474759+893993580+891605757+889159676+886781760+884485193
3284+882111802+879724176+877772298+876539909+875570267+874141851+872268370
3274+870651012+869683667+869102669+868572122+868052203+867609173+867327859
3264+867446997+868232682+869646993+871346752+873009247+874525115+875968161
3254+877512568+879311783+881418949+883900325+886891254+890337679+893792567
3244+896780019+899471856+902622862+906520780+910362409+913207892+915248731
3234+917448071+920236675+923238954+925987211+928371426+930600617+933007925
3224+935694316+938286696+940295322+941676306+942772500+943768317+944567713
3214+945228552+946110807+947442129+949021305+950493415+951749356+952980958
3204+954412458+956028898+957662330+959329614+961246197+963496906+965919303
3194+968241653+970151347+971431759+972187200+972719387+973216869+973799113
3184+974647189+975764310+976812086+977471219+977867407+978427018+979281391
3174+980033617+980257658+980052971+979958368+980446469+981545286+982846626
3165+983958433+984928993+985991990+987086149+987990317+988619074+988902816
3155+988889236+989070371+989950986+991353161+992775214+994090724+995299954
3145+996169220+996663947+997122788+997676887+998140255+998584991+999332756
3135+1000353372+1001258786+1001872783+1002413499+1003182258+1004288751
3126+1005501524+1006362195+1006671194+1006745000+1006970287+1007340365
3118+1007645231+1007883771+1008253455+1008830581+1009413875+1009743015
3109+1009858086+1010155604+1010985638+1012212910+1013305954+1013936746
3101+1014309185+1014655710+1014724071+1014263852+1013675113+1013480201
3092+1013436508+1012880309+1011705259+1010448071+1009605507+1009192261
3084+1008820872+1008069498+1006901468+1005785003+1005299723+1005570278
3075+1006183684+1006721120+1007145912+1007521500+1007721070+1007735700
3067+1007924708+1008683954+1010096888+1011922739+1013697353+1015033398
3058+1015961577+1016668470+1017027723+1016952802+1016956148+1017687643
3050+1019106416+1020593483+1021719198+1022545755+1023226275+1023665566
3041+1023809044+1024009270+1024636978+1025486825+1026110400+1026525482
3033+1027013124+1027488891+1027589726+1027153453+1026291207+1025239691
3024+1024238560+1023414430+1022877191+1022819065+1023122619+1023101757
3016+1022256503+1021080206+1020496912+1020687101+1020981274+1020681590
3007+1019565453+1017746819+1015356240+1012365966+1008711968+1004539493
2999+1000166005+995882067+992027973+989056135+987166253+986023087+985074833
2989+983964928+982539726+980747202+978675857+976589620+974808642+973441566
2979+972258840+971029666+969889911+969042033+968263565+967153923+965761654
2969+964624589+964298205+965018481+966694491+969092614+971957058+974941624
2959+977617256+979686698+981076145+981831390+982058448+981847660+981151854
2949+979937375+978437514+976940213+975334204+973216148+970509681+967707956
2939+965419853+963947284+963440420+964061043+965580453+967144082+967975887
2929+968191006+968538909+969472926+970689504+971502415+971535677+970984333
2919+970213672+969331482+968335468+967534891+967613092+969191022+972277144
2910+976193300+980136814+983729341+986971603+989910442+992503084+994611955
2900+996042799+996761961+997106190+997595931+998450370+999401576+1000055395
2890+1000298395+1000247880+999990708+999535344+998885724+998076749+997262330
2880+996740705+996737293+997212995+997987986+998977046+1000260607+1001990478
2870+1004197429+1006649545+1008920591+1010649282+1011811867+1012788462
2861+1014024722+1015544789+1016932333+1017834795+1018336607+1018798532
2853+1019414431+1019980470+1020196114+1020172037+1020368720+1021011780
2844+1021878815+1022624022+1023010894+1022982487+1022767172+1022739158
2836+1023015093+1023391600+1023698631+1023989654+1024383874+1024900579
2827+1025465175+1026014551+1026539850+1027009647+1027334916+1027438834
2819+1027282564+1026880405+1026429765+1026266671+1026540112+1027087782
2810+1027720936+1028443509+1029366439+1030542145+1031840336+1032920915
2802+1033432240+1033319334+1032919997+1032755722+1033172379+1034111514
2793+1035192552+1035977384+1036213431+1036028884+1035900889+1036233178
2785+1036963098+1037713816+1038208084+1038399781+1038365601+1038228159
2776+1038097539+1037986732+1037820752+1037587723+1037454283+1037608979
2768+1038021700+1038546736+1039183498+1039948058+1040606732+1040904185
2759+1040972676+1041171131+1041592840+1041962196+1041985288+1041687114
2751+1041390448+1041359024+1041518312+1041628201+1041663496+1041826459
2742+1042172525+1042442030+1042415723+1042288383+1042457972+1043010759
2734+1043636696+1044005396+1044025865+1043807204+1043588477+1043632038
2725+1043977711+1044365042+1044553525+1044624379+1044838185+1045311656
2717+1045945531+1046536107+1046902117+1047036213+1047144921+1047423611
2708+1047845844+1048261583+1048588755+1048824998+1048972740+1049005740
2700+1048857997+1048489232+1048003755+1047627248+1047504436+1047580538
2691+1047731692+1047934017+1048193747+1048399550+1048444489+1048462334
2683+1048712092+1049192583+1049584638+1049611798+1049288431+1048798100
2674+1048319053+1048021665+1048051516+1048379147+1048784126+1049098243
2666+1049372143+1049743664+1050264371+1050868527+1051396122+1051684258
2657+1051738711+1051775187+1052045939+1052646355+1053393989+1053879925
2649+1053849025+1053559510+1053528151+1053938379+1054523641+1054932359
2640+1055003475+1054787766+1054454296+1054122138+1053836888+1053784470
2632+1054280574+1055301125+1056307702+1056842710+1057046676+1057233125
2623+1057255037+1056791276+1056085301+1055791981+1056064045+1056370026
2615+1056329154+1056149856+1056083595+1056045610+1056003951+1056190006
2606+1056662362+1057109591+1057252347+1057098176+1056736692+1056200634
2598+1055622327+1055320806+1055572729+1056321216+1057230370+1058011003
2589+1058567923+1058867082+1058852518+1058542862+1058142934+1058009888
2581+1058356872+1058968835+1059476289+1059876808+1060365564+1060786223
2572+1060832737+1060635726+1060572745+1060744761+1061160106+1062055942
2564+1063444798+1064585734+1064473943+1062933998+1060905493+1059550489
2555+1059272061+1059637218+1060009854+1060096978+1059952450+1059616225
2547+1058984383+1058214903+1057963899+1058740727+1060174195+1061312966
2538+1061475797+1060631133+1059343111+1058472140+1058515833+1059219840
2530+1060040754+1060664920+1060916121+1060714845+1060286379+1059887895
2521+1059405633+1058756800+1058398138+1058796294+1059639908+1060151430
2513+1060053219+1059822093+1060052760+1060838051+1061755340+1062301173
2504+1062278342+1061789651+1060948530+1059798016+1058599610+1057949728
2496+1058297303+1059403402+1060481685+1060823881+1060229434+1059062519
2487+1058072212+1057954583+1058884992+1060455115+1061926372+1062506123
2479+1061849745+1060598921+1059916958+1060132798+1060393184+1060010445
2470+1059492756+1059725195+1060652389+1061376406+1061383228+1061157482
2462+1061411242+1062083299+1062559132+1062657867+1062718748+1062787502
2453+1062583865+1062330564+1062695393+1063699149+1064477027+1064387541
2445+1063722373+1063120119+1062827915+1062697361+1062469318+1061939165
2436+1061143967+1060455050+1060295892+1060766345+1061603923+1062387771
2428+1062739414+1062580912+1062264565+1062179869+1062207358+1061944872
2419+1061463266+1061267436+1061460117+1061544420+1061153217+1060448686
2411+1059829375+1059666150+1060175638+1061184839+1062197517+1062824897
2402+1062949153+1062578026+1061867393+1061120218+1060521376+1060066406
2394+1059836657+1060060567+1060784452+1061611534+1061730147+1060199190
2385+1056540927+1051197470+1045075150+1038533812+1031222862+1022988064
2377+1014391454+1006063561+998008455+989803769+981173569+972286985+963614208
2367+955429925+947768382+941196603+936801531+934832267+934493483+935684541
2357+939499272+946454512+955822439+966606056+977320262+985445041+988609955
2347+986053921+979408402+972421672+968280819+967172620+967633298+968753699
2337+970566167+973156119+975793307+977488670+978416718+979780054+982022890
2327+984281472+985801670+986903702+988521257+991392458+995696208+1001068794
2317+1006677427+1011442380+1014615429+1016364916+1017693875+1019652249
2309+1022640489+1026444985+1030669550+1034911369+1038733776+1041836824
2300+1044291171+1046426612+1048495858+1050468008+1052024289+1052847106
2292+1053114906+1053496136+1054445112+1055813828+1057260745+1058564905
2283+1059463628+1059730640+1059504631+1059168405+1058985368+1059045068
2275+1059277375+1059397039+1059150430+1058631954+1058174162+1058068014
2266+1058495233+1059481866+1060719634+1061572630+1061573483+1061002654
2258+1060583701+1060413522+1059883434+1059004983+1058706022+1059339175
2249+1060318460+1061586341+1063700198+1066103373+1067188610+1066604070
2241+1065873822+1066244424+1067145836+1067248245+1066262137+1065158465
2232+1064982578+1065932210+1067372042+1068401777+1068684403+1068819549
2224+1069471597+1070296317+1070310684+1069039129+1066844972+1064594263
2215+1063300992+1063656243+1065635413+1068396988+1070573038+1071244111
2207+1070861635+1070574613+1070696507+1070609252+1069865620+1068768705
2198+1068230351+1068959091+1070309700+1070675317+1069437089+1067511518
2190+1065896127+1064649108+1063224103+1061424625+1060311572+1061559968
2181+1065158203+1068976804+1071416784+1072805378+1073531428+1072723765
2173+1069931684+1066742562+1065379619+1066266336+1067937163+1069020038
2164+1069437351+1070091695+1071827667+1073741823+1073031846+1068900571
2156+1064670758+1063450572+1065010854+1067338124+1068880300+1069441878
2147+1069809528+1070303992+1070048855+1068352836+1065720240+1062842020
2139+1060109508+1058568251+1059600086+1063015480+1066862094+1069524146
2130+1070801278+1070923631+1069854402+1067786468+1065506368+1063992928
2122+1063787387+1064510813+1065057040+1064836870+1064591442+1065188053
2113+1066089203+1066048003+1064961191+1064039835+1064267025+1065302993
2105+1065951170+1065567118+1064789175+1064678040+1065472122+1066545616
2096+1067216886+1067214983+1066643236+1065816286+1065056974+1064525509
2088+1064228909+1064168487+1064341028+1064484046+1064143425+1063389362
2079+1063098404+1063906854+1065250903+1066090383+1066215820+1066123973
2071+1066064338+1066028387+1066347883+1067463692+1069078361+1070054431
2062+1069383424+1067069012+1064021925+1061483538+1060636250+1062003851
2054+1064399416+1065130255+1062735609+1059284067+1058433105+1061024829
2045+1064391675+1066315999+1067511452+1069538383+1071765736+1071771772
2037+1068830768+1065557474+1064736101+1065676547+1065869229+1064996290
2028+1064578845+1065074950+1066067225+1067939131+1070708381+1072265384
2020+1070428117+1066190693+1062905329+1062747943+1065289216+1068452555
2011+1069843380+1068699033+1066979068+1066842675+1067609532+1067072096
2003+1064686962+1061814712+1060103866+1060363137+1061839839+1062680763
1994+1062029831+1061085513+1061454738+1063188414+1065034341+1065673858
1986+1064274307+1061029290+1057506501+1055784174+1057202947+1061850860
1977+1068141129+1072871377+1073721551+1071596804+1068744628+1065790700
1969+1062533283+1060294317+1060870329+1063627114+1066099240+1067053923
1960+1067277899+1067766852+1068200370+1067369680+1064701067+1061255168
1952+1059185069+1059950088+1062969753+1066081264+1067370730+1066501989
1943+1064485227+1062733313+1062297827+1063385360+1065294595+1066819386
1935+1067126482+1066342241+1065093976+1063935655+1063348621+1063503187
1926+1063847416+1063744088+1063479175+1063769740+1064469351+1064940722
1918+1065321493+1066150281+1066991205+1066847596+1065766164+1065011904
1909+1065504006+1066673874+1067534808+1068056236+1068563952+1068679614
1901+1067861914+1066425887+1065183920+1064526230+1064344898+1064248197
1892+1063543731+1061678582+1059191367+1057847712+1059004787+1062159729
1884+1065402384+1067024729+1066994879+1066546469+1066512748+1066819976
1875+1067188938+1067464414+1067460477+1067014888+1066150806+1065246966
1867+1065005409+1065773512+1067145245+1068369696+1068886532+1068645499
1858+1068086808+1067768361+1067927388+1068383211+1068775725+1068762670
1850+1068138898+1066994420+1065697147+1064665641+1064262367+1064550110
1841+1065037752+1065176441+1064826898+1064171504+1063411799+1062563133
1833+1061528084+1060380916+1059664904+1060058993+1061440436+1063076295
1824+1064498217+1065604251+1066271781+1066398464+1066295989+1066486965
1816+1066945741+1067103783+1066637726+1065731459+1064819156+1064373568
1807+1064600167+1065115560+1065201436+1064552341+1063657818+1063254347
1799+1063431940+1063660835+1063462708+1062638710+1061416687+1060740431
1790+1061382441+1062723013+1063718830+1063913874+1063354001+1062390199
1782+1061496725+1061013020+1060953778+1061031520+1060844087+1060068374
1773+1058768346+1057695115+1057607336+1058285035+1059059108+1059357020
1765+1058750567+1057227942+1055433319+1054210443+1053590213+1053078626
1756+1052563168+1052049875+1051134751+1049329500+1046811779+1044814108
1748+1044420085+1045224861+1046150612+1046616670+1046719670+1046757786
1740+1046849633+1046859539+1046429958+1045306539+1044157075+1044291762
1731+1045576897+1047151678+1048533122+1049207934+1048877482+1047978235
1723+1047149316+1046278411+1044835364+1043137377+1042866429+1044810238
1714+1047474717+1049617375+1050974610+1051405700+1050622967+1048743123
1706+1046788883+1045558331+1044277197+1041641715+1037870546+1034858623
1697+1033196062+1032230292+1031550034+1030533354+1028393321+1024954572
1689+1020877290+1016341561+1010019671+1001328131+993212864+986860075+979944460
1679+970889665+958384706+940673994+918288667+893734310+865436468+829805240
1669+792746119+767028914+755676109+756547605+769677123+791981494+815516285
1659+835363356+850786555+862447900+872901196+885287016+895457555+899283635
1649+899424752+899062612+900676100+904017557+906982507+908814394+909765928
1639+910234807+911103285+914435098+920748853+926245563+927992230+925090063
1629+917081930+905527717+894580023+888424835+889943393+898675346+910023690
1619+920239693+927644654+929216943+922179828+908702013+893944967+884539514
1609+886784843+901556584+923589744+947021404+968665264+987079392+1001524945
1599+1012005795+1019261309+1024456958+1028692151+1032422252+1035491186
1591+1037779814+1039566500+1041293156+1043101491+1044691558+1045721293
1582+1046120696+1045853356+1044713011+1042715668+1040895000+1040798233
1574+1041750292+1041735596+1040049418+1037716768+1036171116+1035038643
1565+1033212464+1030471161+1026654265+1020472967+1010630453+1001294410
1557+996899862+992588895+984993483+973843462+958941692+940202819+918858512
1547+895518174+868894636+839176972+809449664+781636118+758963770+746867464
1537+742286073+740937629+743901661+754034214+769856487+787935833+808104303
1527+830960215+853779649+873042050+889580335+905750709+919525517+927549199
1517+929497469+925683657+916347810+903245649+889810478+880126925+879315654
1507+894623125+921352156+941204082+951328959+956247231+958025781+957128043
1497+953935575+949354513+944248676+938285580+930320746+920211745+910383402
1487+903287177+898204696+893324147+887723191+881630262+875848301+870261909
1477+863449032+854245182+843487283+834847111+832326831+834363340+835751934
1468+832932299+824201462+810728961+797503003+788229022+783138078+783903885
1458+796868931+822547495+847868906+867116939+882638151+895637050+905714495
1448+912977028+918953508+925791183+934886391+945804104+956376735+964850205
1438+971518489+977491163+982156856+983878526+981707659+974278948+959434648
1428+936016699+905510923+873996405+852630907+850244133+867495610+899588173
1418+935128605+961434155+977023203+986280848+991945967+995140469+996186212
1408+994351963+987840212+974496560+954000721+929494583+906771587+893944377
1398+898013917+917759432+944592315+969221659+986220886+995585861+999791728
1388+1000942767+1000493504+999357424+997878754+996501509+996089904+997078045
1378+998314042+996777115+988807754+973863341+957867608+948593495+948855522
1368+956241064+965787634+973501792+978315424+980749105+980982265+978432135
1358+972530707+963603448+953396499+944540225+938910795+936821147+937831725
1349+941586624+947774877+955686178+963929767+970799655+975088710+976443386
1339+974842298+969625327+959199126+941689559+915750543+881222855+839409673
1329+792569380+743153830+694087496+649815439+615773097+595808593+590404123
1319+597131714+612245257+632690186+657199080+685064191+714377466+742511230
1309+767881319+790291904+809992020+826965792+840927443+851696299+859435780
1299+864415852+866583570+865507387+860781600+852546276+841863954+830778817
1289+821773291+816641935+815646970+817858578+822140023+827598289+833630861
1279+840229669+848158224+858405782+871375946+886567953+902801307+918667273
1269+932984635+945129751+955129651+963431695+970431218+976187658+980640201
1259+983980608+986636755+988918692+990821695+992178471+992901700+993077587
1249+992912393+992576496+992052378+991219917+990110341+988843312+987226150
1239+984629113+980255165+973224283+962180674+944808024+918106089+880300319
1230+833562369+784577647+741439835+709604706+690622636+683860931+688475779
1220+703679005+727857643+758191600+791308715+824057459+853767185+878508976
1210+897622649+911775145+922211384+929984061+935792986+940164178+943552083
1200+946341999+948763478+950687605+951558183+950716012+947837792+942949502
1190+936022538+926675997+914395079+899307844+883100469+869096437+860802003
1180+859670646+863911481+869288594+871023648+865383459+850327976+825325143
1170+790976164+749117582+703251523+658645537+621788415+598980658+593968112
1160+605699982+628153473+652945911+673286856+686931111+696522751+707204877
1150+723067301+744885276+770427185+796349340+819877440+839460517+854617293
1140+865440667+872097141+874565331+872726031+866612502+856382854+841900955
1130+822425995+796907376+764740942+726411841+683534284+638310365+593066109
1120+550509295+514313470+488919894+478161830+483570073+503627736+534517826
1111+571715241+611236187+649745898+683695081+708787728+721025543+718747084
1101+703546942+678962471+648376001+614473463+580440568+550707946+529800601
1091+520449435+522833421+535188374+554868087+579245508+606247980+634431407
1081+662745125+690344733+716647135+741415758+764572206+785908313+805103271
1071+822018129+836847734+849888358+861210394+870652914+877911642+882120003
1061+881311160+872631559+853105034+820921149+778217904+733640456+699962878
1051+686637004+694225003+715890775+743141103+770084596+794183918+814968549
1041+832490056+846449543+856373079+862554377+866637235+870738463+875495609
1031+878865407+877328218+869348294+858296944+851275837+853948779+866310063
1021+883548682+900339350+913960053+924310152+932335605+938881929+944426072
1011+949177183+953249347+956800281+959924716+962501810+964389461+965756931
1001+967030257+968499546+970043296+971195581+971512519+971022712+970409240
992+970641678+972241390+974897668+977890172+980748514+983362872+985716908
982+987738131+989225002+989751481+988601099+984960614+978919776+972739134
972+970098076+972963569+979695752+986882708+992304564+995666752+997550007
962+998653286+999699947+1001270661+1003421650+1005600653+1007081160+1007435886
952+1006558157+1004399361+1000948016+996571641+992133794+988269269+984304762
942+978074325+966856273+948203343+919867516+880240749+831400161+782383162
932+745841599+727941420+723563405+724268002+728372051+740177268+761292745
922+785595377+803400626+811386453+817485155+832492877+857577979+884468857
912+906421257+923462667+937930461+950431221+960610354+968543435+974718436
902+979719042+983941507+987447173+990243781+992573872+994788170+996950116
892+998700193+999820923+1000740245+1001919166+1003086343+1003722186+1003825317
882+1003712936+1003615710+1003709328+1003964728+1003835617+1002393686+998554878
873+990873195+977865899+960115758+942607306+933243250+936925262+951142313
863+968422001+982629999+992113260+998044931+1001797993+1004100399+1005372479
853+1005970402+1006136186+1006002549+1005721366+1005485123+1005319798
844+1004883656+1003627781+1001130463+996954970+990177520+979434513+963373372
834+941242002+914815082+890924778+879655750+886776117+908200201+933593777
824+954744222+969377668+978908952+985233006+989469052+992078423+993271843
815+993052263+991039635+986464608+978029714+963937902+942639781+913099841
805+875048380+832836516+799731013+792043425+814732831+855928802+897936372
795+930516117+952627675+966789487+975449209+980534708+983548534+985377337
785+986110079+985344469+982807394+978254345+970792898+958961111+941789278
775+920198296+898060431+881146754+873163091+872751551+875911938+881178178
765+890416405+903951362+916634045+920620726+912775096+898818955+888988776
755+889229283+897278682+906909161+913788889+916747607+916255111+913532308
745+909819528+905449385+900051344+893722632+887800867+884388622+884448913
735+886022382+884498970+874332368+852271326+823426142+803585631+808115653
725+836011468+870405780+895610677+908209582+912616201+912917524+910699749
715+906319372+899821530+891534248+882051446+871449161+859148693+844796692
705+828686872+811085983+791776544+770848565+749681260+730692498+716370347
696+708647923+708566442+716151293+730544362+749971037+771804101+793337023
686+812766060+829428995+843294404+854504584+863395104+870496118+876043607
676+879420294+879177293+873761408+862318658+845624364+829123014+821094346
666+818383877+810887397+795025498+773261843+750445623+730556368+715881656
656+707698554+706209781+710352209+718078635+727440723+737192636+745085961
646+746686853+739108235+726614363+719450434+724818953+740475114+758659691
636+774108278+786235484+796183884+804719744+812156918+818563766+823989361
626+828837173+833808978+839185829+844342378+848567533+852361008+857140985
616+863529988+870572679+876501530+879497905+877942018+870459839+855510570
606+830880308+794437612+747120174+696955153+659127799+647543146+663892687
596+697373779+734871599+768697445+796571216+818682577+835988572+849443556
586+859274458+864796098+864910972+858774220+846924720+832736337+821836338
577+818670440+823283452+831856706+840388367+846762610+850279691+851673862
567+853553050+858885486+868463283+880471416+892518387+903291901+912115832
557+918359652+922223193+924987523+927276020+927510099+923121456+913407003
547+900260427+886166779+873061928+863200586+859044381+861286955+868149167
537+877185461+886717007+895621108+903254309+909624090+914993855+919671357
527+924129935+928555842+932390254+934715818+934565452+931304558+925997052
517+921663976+920555581+922329538+926069939+932084994+940301686+948143052
507+951865017+949648489+941292058+926315826+906864550+890720943+885593260
497+892160512+904600457+916277285+924941534+932360863+940075677+947291237
487+952282068+954153974+953657476+953123714+954936247+959553392+965122662
477+968926043+969512552+967569267+965002671+963652455+964293088+966194713
467+967485162+966518407+963524132+960112609+957226582+954974823+954340226
458+956869494+961716060+966159352+969086841+970630919+970396710+968280688
448+966015283+966117758+969111181+972828423+974875231+975088513+975059384
438+976172832+978747235+982097090+984864634+985704115+984508334+982878182
428+982204026+981710545+979755387+976460247+973114263+970222660+969279129
418+973226185+980077507+984432232+984172961+980723913+975961584+969760014
408+961841037+954406487+950321661+949880008+950448213+947430451+935686837
398+916800878+904872324+908292966+919182863+928658120+933990228+933695268
388+925056933+908851395+892839786+886230022+890529836+901102861+913231641
378+922479052+925906779+926657825+931296029
##END=
