##TITLE=X8869
##JCAMP-DX=4.24
##DATA TYPE=INFRARED SPECTRUM
##DATE=2/11/2018
##SAMPLING PROCEDURE=ATR platinum Diamond 1 Refl
##ORIGIN=ComPlat
##XUNITS=1/CM
##YUNITS=TRANSMITTANCE
##RESOLUTION=4
##FIRSTX=3997.453
##LASTX=373.96442
##DELTAX=-1.4165319
##MAXY=0.98555887
##MINY=0.50159562
##XFACTOR=1
##YFACTOR=9.1787322e-010
##NPOINTS=2559
##FIRSTY=0.93991083
##XYDATA=(X++(Y..Y))
3997+1024009423+1023846169+1023685903+1023580249+1023722593+1024049489
3989+1024222873+1024095530+1023880716+1023773829+1023709930+1023577522
3980+1023459595+1023529728+1023781556+1023942862+1023730840+1023235040
3972+1022922365+1023099190+1023510701+1023687656+1023562586+1023475310
3963+1023678500+1024095400+1024457623+1024557692+1024413725+1024188976
3955+1023880067+1023253222+1022238050+1021204825+1020708571+1021006375
3946+1021838228+1022706511+1023299783+1023627589+1023821623+1023889613
3938+1023788894+1023650187+1023685903+1023850585+1023806947+1023423424
3929+1023056201+1023012238+1023180557+1023334784+1023403618+1023343486
3921+1023024901+1022422344+1021807448+1021647376+1022171294+1023138023
3912+1024147935+1024944137+1025373376+1025247007+1024361710+1022730928
3904+1020957023+1020004970+1020002502+1020110559+1019969969+1020101922
3895+1020796042+1021652247+1022167723+1022437864+1023021719+1023902925
3887+1024344242+1023818701+1022953340+1022665471+1022692809+1022540076
3878+1022729305+1023662980+1024508794+1024183261+1022796645+1021491526
3870+1021049949+1021464252+1022191100+1022468969+1021859463+1021015597
3861+1021132225+1022261558+1023588821+1024655164+1025306685+1024691594
3853+1022015508+1019717166+1020032049+1021995248+1024091699+1025293502
3844+1025110248+1023838247+1022500724+1021844982+1021585945+1021132160
3836+1020694739+1020767729+1021176577+1021458537+1021642636+1022096291
3827+1022713330+1022949054+1022662678+1022165125+1021478278+1020533693
3819+1019865159+1019840807+1020255370+1020954815+1021914270+1022928274
3810+1023748957+1024271447+1024478988+1024471260+1024465156+1024371191
3802+1023761101+1022763657+1022247142+1022440786+1022901455+1023347447
3793+1023773244+1024149688+1024422492+1024656398+1024924396+1025132327
3785+1025162263+1025106417+1025079987+1024969658+1024738220+1024832055
3776+1025690467+1027018445+1028043163+1028131868+1027169165+1025730728
3768+1024725427+1024575550+1025035310+1025561890+1025738326+1025544941
3759+1025323958+1025394675+1025616308+1025581696+1024961021+1023553819
3751+1021691534+1020545837+1020644672+1021357949+1022104343+1022621897
3742+1022924962+1023149387+1023258482+1023023862+1022247206+1021204111
3734+1020667595+1020983582+1021777576+1022581701+1023056201+1023046461
3725+1022905935+1023361798+1024564771+1025872942+1026753433+1027247415
3717+1027612171+1027997381+1028338175+1028272393+1027548012+1026826748
3708+1026892465+1027571065+1028340902+1028738322+1028356487+1027364758
3700+1026738952+1027021691+1027756917+1028323824+1028404087+1027827245
3691+1026540373+1024877316+1023676097+1023653564+1024754324+1026396730
3683+1027766008+1028176610+1027617625+1026562646+1025007906+1022686575
3674+1020872149+1021074885+1022401369+1023391475+1024162351+1025877033
3666+1028387658+1030495668+1031427849+1031429083+1031309598+1031479994
3657+1031630910+1031302260+1030596841+1029841744+1028829819+1026989612
3649+1024520288+1023091268+1023636290+1025402728+1027345731+1028730659
3640+1029356789+1029511990+1029427441+1029020216+1028328694+1027752956
3632+1027493789+1027049615+1025842616+1024663931+1024779065+1025881839
3623+1027106305+1027795295+1027436254+1026147434+1025142392+1025290840
3615+1026060418+1026739472+1027283066+1027761787+1027824582+1027336445
3606+1026910193+1027022146+1027340861+1027374239+1027065135+1026710899
3598+1026676612+1027311639+1028655980+1030030518+1030592230+1030219487
3589+1029227238+1027916599+1026888309+1026780902+1027432683+1028239015
3581+1028741374+1028746179+1028359539+1027940821+1027842180+1028164142
3572+1028743517+1029250356+1029234576+1028297524+1026709211+1025653712
3564+1025796835+1026625896+1027466320+1028064852+1028477921+1028771245
3555+1028912030+1028845144+1028589744+1028276289+1027935820+1027348523
3547+1026467577+1025949764+1026577062+1028026214+1029123792+1029201328
3538+1028639032+1028170506+1027950042+1027663082+1027411967+1027712499
3530+1028577665+1029335944+1029605371+1029760767+1030088313+1030253190
3521+1029943177+1029386011+1028953006+1028689423+1028365968+1027774645
3513+1026980781+1026382249+1026383743+1026905063+1027459502+1027746527
3504+1027761722+1027530804+1027227739+1027245402+1027670939+1028057904
3496+1028020759+1027708473+1027460801+1027363719+1027363914+1027460736
3488+1027633146+1027800555+1027919911+1028050306+1028349734+1028933265
3479+1029610566+1029961100+1029830835+1029525692+1029337697+1029132429
3471+1028678514+1028095178+1027692499+1027585611+1027655159+1027727760
3462+1027698603+1027635288+1027820231+1028510715+1029543745+1030300984
3454+1030246761+1029437896+1028401944+1027639704+1027312353+1027215141
3445+1027074291+1026980131+1027276118+1027974199+1028681956+1029156716
3437+1029460235+1029606215+1029547836+1029461728+1029632774+1030085975
3428+1030571190+1030856787+1030915815+1030818149+1030520279+1029954736
3420+1029326138+1029024502+1029179119+1029546667+1029800249+1029782391
3411+1029574265+1029414129+1029481015+1029697712+1029793041+1029555369
3403+1029038204+1028510130+1028223430+1028298303+1028744945+1029371725
3394+1029779988+1029772715+1029685244+1029974087+1030557748+1030913867
3386+1030841656+1030798992+1031271219+1032049174+1032549584+1032672512
3377+1032801283+1033047462+1033080711+1032723163+1032191583+1031729940
3369+1031398952+1031216282+1031192515+1031215828+1031075237+1030615738
3360+1029935644+1029497964+1029820964+1030792303+1031536555+1031345054
3352+1030519695+1029902851+1029834082+1029979867+1030008569+1029990971
3343+1030078962+1030073572+1029589980+1028675981+1027999654+1028156479
3335+1028940083+1029612514+1029785118+1029657321+1029483288+1029268474
3326+1029055283+1029115935+1029643749+1030426574+1030989454+1031073094
3318+1030933803+1031030495+1031373172+1031442915+1030893152+1030025453
3309+1029383543+1029156326+1029123143+1029015151+1028812610+1028679228
3301+1028617018+1028375904+1027823478+1027177477+1026743043+1026642650
3292+1026889543+1027480672+1028279147+1028911251+1028970149+1028434608
3284+1027804971+1027651913+1028029656+1028457985+1028456751+1027996148
3275+1027433722+1027102734+1027054095+1027155203+1027285339+1027390863
3267+1027493919+1027671783+1027953094+1028249145+1028429672+1028443634
3258+1028364734+1028312979+1028331292+1028382657+1028416100+1028312654
3250+1027900949+1027216310+1026545113+1025985609+1025268696+1024299045
3241+1023484401+1023181077+1023141205+1022885155+1022387082+1022027132
3233+1021987131+1022052068+1021984079+1021810110+1021683222+1021653415
3224+1021665364+1021643675+1021489123+1021083781+1020443820+1019850808
3216+1019680476+1020057115+1020767924+1021524709+1022155514+1022536180
3207+1022576766+1022338964+1021988235+1021614972+1021274309+1021136121
3199+1021319440+1021593023+1021544320+1021100211+1020601943+1020301930
3190+1020067245+1019719698+1019376307+1019173831+1018903755+1018297626
3182+1017456487+1016598724+1015701154+1014836183+1014457076+1014787869
3173+1015334386+1015508808+1015343737+1015137364+1014831637+1014248171
3165+1013583273+1013152541+1012882140+1012532970+1012243412+1012336923
3156+1012688950+1012807916+1012552516+1012297700+1012316857+1012420173
3148+1012343417+1012148019+1012008208+1011826382+1011314413+1010392166
3139+1009351149+1008654626+1008568259+1008864635+1008944768+1008426565
3131+1007542177+1006805198+1006442001+1006290502+1006109195+1005843730
3122+1005573394+1005266563+1004751476+1004026316+1003419148+1003258167
3114+1003494671+1003788969+1003840919+1003528893+1002856267+1001933956
3105+1001004242+1000358111+1000129335+1000181351+1000248107+1000183493
3097+1000013811+999760554+999362485+998833827+998320948+997835538+997120379
3087+996001046+994695732+993577763+992773119+992122118+991412608+990615172
3077+989901441+989339859+988685221+987729272+986728062+986148297+986104984
3067+986347462+986649292+986959760+987267825+987478613+987453936+987223472
3057+987091843+987279124+987476210+987185873+986554288+986340903+986889757
3047+987644853+987978374+988005777+988228319+988758211+989250115+989389861
3037+989186411+988819902+988328908+987579786+986611304+985801270+985442034
3027+985359174+985211765+984957209+984742070+984527580+984137889+983573904
3017+983035180+982629969+982208652+981529988+980590208+979723549+979219242
3007+978859682+978058284+976437048+973950710+970451019+965561594+959059699
2997+951136576+942510762+934660629+929591976+928755123+932031234+937659131
2987+943027342+945851616+944979631+940338593+932762563+924309158+917941685
2978+915881599+918276958+923631922+930051476+936017634+940731792+944145246
2968+946527423+948012095+948618809+948467374+947780852+946723730+945302112
2958+943497946+941560398+940020139+939274004+939288679+939814740+940718090
2948+941952946+943334563+944506235+945071258+944634487+942811489+939439465
2938+934921874+930307590+926787898+924824439+923750693+922424469+920260743
2928+917523226+914858764+912819653+911684086+911467713+912047283+913263243
2918+914955002+917035608+919501750+922225630+924805348+926816665+928263609
2908+929686980+931736481+934605822+937932584+941165056+943833285+945597384
2898+946423782+946728081+947042964+947517594+947914429+948069825+948216974
2888+948785050+949897434+951175474+952127917+952654822+953068410+953653695
2878+954263136+954405999+953805129+952783658+951899465+951217164+950181991
2868+948319836+945919476+943856143+942809216+942798891+943391123+944093231
2859+944524742+944494416+944140181+943914067+944242977+945176003+946476252
2849+947988328+949678464+951394315+952900546+954115207+955064338+955774822
2839+956435174+957389954+958757089+960281439+961651106+962731801+963516379
2829+964073220+964519797+964906047+965173526+965268010+965229892+965183786
2819+965273270+965541983+965860373+966053303+966103175+966149800+966324808
2809+966671381+967146660+967589341+967783635+967702528+967607264+967800908
2799+968366127+969193044+970108277+970918311+971479114+971800621+972027903
2789+972313175+972731634+973261850+973809211+974296244+974757497+975276285
2779+975828776+976309445+976712774+977129479+977555276+977907629+978223421
2769+978627139+979137810+979702054+980325847+980988666+981546742+981901951
2759+982172612+982527887+982908227+983082325+982993296+982840432+982759325
2749+982668282+982510548+982340541+982104752+981692722+981236729+980996978
2740+980989251+981094385+981402775+982056308+982881797+983545202+983981519
2730+984365691+984764084+985072149+985237675+985370668+985645419+986141349
2720+986728062+987170548+987419130+987638295+987850576+987833887+987549979
2710+987332827+987412311+987563291+987496341+987300423+987201653+987130546
2700+986867159+986463570+986198364+986180247+986248366+986203494+985957575
2690+985535480+985071110+984686548+984304259+983737158+983023427+982437233
2680+982103064+981824740+981374851+980767423+980179412+979745693+979460031
2670+979217164+978978323+978865006+978955984+979083587+979042936+978913255
2660+978923905+979118848+979375742+979627766+979852515+979982261+980018431
2650+980108825+980356562+980676251+980944054+981141790+981290627+981444984
2640+981806298+982546848+983471952+984212048+984778175+985504829+986394996
2630+986996904+987067492+986967163+987178990+987679140+988033636+988052273
2621+988056364+988397287+989009131+989637534+990216324+990760308+991124089
2611+991114349+990718358+990125346+989611299+989392524+989542595+990075409
2601+990985772+992049258+992788704+992900203+992557006+992123222+991796910
2591+991642942+991698724+991896914+992078220+992145366+992109195+992022763
2581+991972501+992046920+992207901+992263877+992091857+991805741+991566510
2571+991304487+990840636+990242040+989812736+989698446+989689549+989463046
2561+988929842+988318388+987874019+987494717+986885406+986156544+985866662
2551+986201871+986516819+986098100+985102150+984296921+984054898+984043469
2541+983885151+983686831+983675012+983628257+983163108+982520354+982466196
2531+983217785+984035092+984193411+983804953+983348245+982969788+982702504
2521+982841926+983580008+984550828+985126566+985073317+984776617+984874933
2512+985629509+986605719+987137494+987142300+987204900+987768235+988547164
2502+988938284+988833864+988780290+989305312+990309900+991294161+992002762
2492+992554604+993067222+993531657+993953558+994299027+994462540+994533972
2482+994806905+995311017+995726165+995933771+996189366+996578733+996788352
2472+996636527+996442428+996579772+996915955+997056155+996979788+996976347
2462+997012062+996745947+996254044+996143065+996716076+997442145+997575528
2452+997166549+997114729+998018468+999268066+999781529+999471451+999286053
2442+999796205+1000521819+1000863652+1000986059+1001325035+1001742000
2434+1001792781+1001555499+1001551538+1001936034+1002320206+1002404690
2425+1002345207+1002425081+1002660740+1002860618+1002939128+1002996793
2417+1003095823+1003121798+1002924192+1002492811+1002015713+1001781222
2408+1001877395+1002018375+1001938177+1001895188+1002389040+1003410381
2400+1004404838+1005009084+1005402607+1005826716+1006197835+1006446287
2391+1006879942+1007828877+1009084384+1009994747+1010121571+1009683955
2383+1009332382+1009486025+1009955200+1010319241+1010545030+1010978035
2374+1011828265+1012999613+1014278757+1015314774+1015648035+1015219056
2366+1014686891+1014794818+1015566733+1016447094+1016951466+1016893736
2357+1016368779+1015776742+1015409843+1015014827+1014340058+1013776463
2349+1013855168+1014440777+1014655981+1013850168+1012785578+1012784669
2340+1013764385+1014411230+1014110763+1013724643+1014168103+1015027295
2332+1015286526+1014886704+1014605264+1014686307+1014685787+1014500000
2323+1014729036+1015881551+1017500710+1018479712+1018359317+1017839880
2315+1017746499+1017994821+1018060214+1018003328+1018297886+1018958173
2306+1019492806+1019570861+1019383386+1019422998+1019946851+1020591683
2298+1020733052+1020335114+1020049323+1020275825+1020625386+1020616554
2289+1020428624+1020575643+1021198526+1022013106+1022734629+1023351993
2281+1024029164+1024720232+1025021153+1024691789+1024169494+1024153260
2272+1024782442+1025531045+1025815992+1025596307+1025404351+1025680597
2264+1026194124+1026444395+1026432576+1026567452+1026962468+1027292092
2255+1027328263+1027314885+1027667173+1028338240+1028714359+1028342071
2247+1027563857+1027114098+1027257026+1027699512+1028283692+1029369452
2238+1031345184+1033946721+1036341756+1037911172+1038704322+1038986866
2230+1038691594+1037769932+1036858271+1036849050+1037704865+1038466195
2221+1038608928+1038555095+1038566199+1038111959+1036872557+1035641337
2213+1035597244+1036890934+1038389114+1038904915+1038457428+1038061178
2204+1038281577+1038491456+1037875521+1036723265+1036183113+1036816840
2196+1037990201+1038849328+1039449028+1040452512+1041820751+1042485259
2187+1041719058+1040355949+1039895216+1040655247+1041746332+1042746568
2179+1044216110+1046291781+1048003606+1048502718+1048090817+1047665150
2170+1047623265+1047660085+1047529755+1047775155+1049140472+1051147114
2162+1052232419+1051694344+1050608974+1050183827+1050088758+1049539904
2153+1048812990+1048598241+1048697401+1048430182+1047944707+1047970423
2145+1048595644+1049294049+1049731211+1049761147+1049201253+1048256084
2136+1047613979+1047686775+1048122832+1048348361+1048176665+1047525080
2128+1046163919+1044383845+1043261135+1043335814+1043634203+1043036321
2119+1041993680+1041802113+1042629551+1043284188+1042876249+1041986796
2111+1041791464+1042339603+1042512013+1041820880+1041238389+1041644120
2102+1042398827+1042413957+1041959198+1042312070+1043781222+1045169202
2094+1045560972+1045683639+1046791542+1048746169+1049982325+1049471070
2085+1048060686+1047326305+1047524170+1047544171+1046768165+1045967872
2077+1046062226+1046814790+1047418127+1047862431+1048816562+1050198243
2068+1050840283+1050003949+1048603241+1048324204+1049678676+1051408294
2060+1051989487+1051378812+1050698524+1050413772+1049985442+1049401781
2051+1049630752+1051153997+1053161094+1054745641+1056081086+1057793560
2043+1059862542+1061581380+1062287189+1062050621+1061840028+1062490379
2034+1063145082+1062077830+1059861374+1059595518+1062718116+1066860951
2026+1069015197+1068697067+1067036283+1064739369+1062089194+1059710588
2017+1058329751+1058085455+1058501122+1059127447+1060076058+1061923732
2009+1064737746+1067040180+1066924331+1064754110+1063077482+1063268009
2000+1064100966+1064331041+1064945807+1067430975+1070892808+1072645933
1992+1071521600+1069326054+1068303219+1068583296+1068792461+1067918463
1983+1066221964+1064751058+1064139604+1064176749+1064700147+1065988123
1975+1067636179+1068374131+1067684427+1066559445+1066362814+1067471172
1966+1069032860+1069986926+1070183947+1070008550+1069280923+1067491627
1958+1065064967+1063322232+1062981114+1063328921+1063092937+1061833144
1949+1060319769+1059637858+1059920142+1060071707+1058963089+1056865404
1941+1055220855+1054857918+1055313392+1055735033+1055726461+1055357744
1932+1054741679+1053970998+1053379999+1053409156+1054079509+1054937272
1924+1055606131+1056165570+1056832091+1057416661+1057439389+1056925147
1915+1056667020+1057285292+1058507681+1059480124+1059644352+1059347261
1907+1059385380+1059993522+1060616210+1060656537+1060131774+1059460123
1898+1058956725+1058800875+1059119070+1059723316+1060072681+1059855789
1890+1059460123+1059569154+1060312237+1061267731+1062054907+1062459729
1881+1062377193+1062002827+1061780739+1061783142+1061504429+1060701344
1873+1059938844+1059837217+1060344056+1061200455+1062585318+1064463124
1864+1066081893+1066692568+1066255601+1065424853+1064922494+1064955937
1856+1065337251+1066010526+1066997970+1067904956+1068166331+1067817615
1847+1067474224+1067565137+1067847032+1067697155+1067070765+1066612045
1839+1066745492+1067165639+1067326425+1067240448+1067237980+1067290125
1830+1067122521+1066824456+1066807573+1067168172+1067610268+1067877942
1822+1068018208+1068196721+1068493292+1068814410+1068920583+1068738562
1813+1068534138+1068523099+1068508423+1068228671+1067827875+1067616567
1805+1067593904+1067366297+1066617175+1065739151+1065481608+1065841428
1796+1066167286+1066036826+1065508038+1065032628+1065059772+1065420177
1788+1065785322+1066330799+1067401558+1068830125+1070139790+1071144961
1779+1071850575+1072177667+1072017725+1071399323+1070743711+1070804817
1771+1071679724+1072652427+1073337585+1073723381+1073741823+1073354989
1762+1072758081+1072373974+1072374753+1072232020+1071107297+1068658234
1754+1065039252+1060538285+1056432724+1055109292+1057108077+1060466594
1745+1063493408+1065493102+1066233458+1065912990+1065193414+1064746123
1737+1064639560+1064335391+1063412041+1062489081+1062050101+1061576510
1728+1060755307+1059643377+1058106820+1056094918+1053994181+1051962602
1720+1049541917+1046259767+1042441815+1039231487+1037046915+1035101120
1711+1032453152+1028611628+1022900545+1014065112+1002421574+990590950+978094715
1701+958939370+929450152+895269765+856862447+809193250+760012302+718144451
1691+679662715+640884278+607675814+586796437+578959746+583530456+596767112
1681+611707022+626091778+639988527+654116129+670087640+687502912+703872037
1672+719501715+736736720+754807344+770237209+782417847+793109332+803722632
1662+814153912+823482353+831637758+838901958+845310147+851652879+859379111
1652+866506681+870842317+873794712+877275053+882755346+889809667+896921457
1642+903388610+908938257+913450978+917409585+921996984+927448380+932467356
1632+936829681+941135510+945593098+950022504+954286578+958549548+963074218
1622+967464725+970657521+971765424+969815603+964038024+955565528+945654140
1612+933838192+919967808+905717343+893602033+885156161+880654804+879784248
1602+882053369+886920325+893755286+901854000+910600015+919409668+927616959
1592+934846481+941266489+947135046+952424163+956977145+960667689+963386503
1582+965037092+965574582+965069041+963760285+962327303+961867933+962349317
1572+962483998+961287909+959100285+957643796+957731722+958645331+959609527
1562+960112665+959576864+957651199+956238088+957519375+959980322+962123074
1553+962950121+961570324+958071606+953915199+950607464+948595496+947799035
1543+948296133+950820914+956215230+962397436+966973666+970211528+973100090
1533+976010667+978367453+979743095+980411305+980825283+981172635+981312316
1523+981228806+981426607+982355282+983691117+985138710+986895082+988958999
1513+990822713+991961397+992261799+992438820+994625145+999771658+1004741086
1503+1007988495+1009893184+1010639709+1009960850+1007258724+1002316050
1494+995735840+987546473+976690240+963000318+950055687+942911233+942746096
1485+948005796+956384912+964273488+966938210+961112058+947789294+932998677
1475+925382385+929389435+939070943+945469067+947277195+946642298+944357073
1465+940117415+934076124+926928683+918333584+905491879+884026373+857017324
1455+834206307+816276338+800668349+788083603+780598485+778622039+780114050
1445+782079911+782062248+779086215+774489984+771064646+771407323+776754169
1435+785320241+794229119+802627846+810661818+818182327+824945011+831106243
1425+837016944+842810692+848477552+854347148+860916837+867672444+873353460
1415+877889299+882028043+886207049+890367547+894253813+897778246+901063383
1405+904056300+906302692+907430402+907546186+906939277+905507984+902414089
1395+896955289+890123251+883931304+879016489+874905343+872183476+873079553
1385+878827585+887664837+896760411+904116822+908833058+910953601+911577588
1375+912908488+916815209+922218487+925166012+920961096+905546167+879100583
1366+849338887+829661182+832622020+857960805+891204075+920238469+942183800
1356+958082321+969387728+977500599+983503252+987977594+991312928+993893750
1346+995816298+996627111+995569730+992191666+986918979+980964250+975071017
1336+968884200+962339576+956817138+954205666+954930826+957395279+959396272
1326+959541213+957401059+953169778+947488892+941245709+935284486+930149662
1316+925958318+922520707+919458761+916091153+911427062+904477941+894528435
1306+881136188+863933457+842410351+815905803+783943560+747040981+707796162
1296+670796241+639961707+615458282+594255124+574184092+556881422+546576446
1286+546475923+556554136+574148117+595709990+618143199+639377267+658068502
1276+672916784+682715894+687382907+688868164+690662200+695780725+704876234
1266+716216903+727275156+736448007+743919098+751361032+760631159+772357557
1256+785621422+798707943+809921527+817965435+821803127+820068509+810894295
1247+793136801+768328623+741422760+719416387+708605156+711876527+727503218
1237+750390666+774996563+797637248+816912144+832906513+846178625+857160901
1227+866254073+874095569+881213723+887416645+892001187+894866501+897249652
1217+900964028+906795181+913935284+920992202+927098950+931999739+935701257
1207+938425462+940550031+942198346+942899155+941631310+936869747+926524640
1197+908709092+883601355+854341563+825251648+799456026+778874907+765415709
1187+760345497+762743779+769980964+779504219+789437426+798620277+807447918
1177+817963097+831900951+848793864+866372000+882302210+895144370+904299882
1167+909857127+912258006+911274393+905325184+892716022+873708540+850576471
1157+826033498+803211312+786789653+781392155+787607284+801096614+816651873
1147+832168755+848197995+864948499+880872216+893812496+902780533+908551358
1137+912820237+916836898+920693813+923754200+925558042+926284955+926562499
1128+926943229+927357922+926746987+922777471+912009879+892151907+866342388
1118+844496412+837306566+847528421+868120125+888904044+903742001+911904485
1108+915367227+916447986+917024244+918273647+920457764+923094108+925472259
1098+926954269+926866603+924413318+918881075+909861283+897088931+879881005
1088+856857512+826956459+791587126+755688810+725538720+704615120+691697373
1078+683351050+678082064+677691399+684848321+700033435+720902228+743942215
1068+766368541+786895177+805426664+822304707+837692362+851450533+863458242
1058+873879456+883034124+891101539+898064167+903955841+909096575+913908789
1048+918400405+922012764+924132333+924575078+923500098+921215068+918261308
1038+915316770+912626528+909587180+905027185+897760713+886795775+871429419
1028+851819185+829751381+808507702+791412898+780190871+774709863+774233934
1018+778598662+787949117+801508384+816904481+830734604+839853621+842824784
1009+841135752+839166514+841887667+851400271+865505600+879892045+891556687
999+900084706+906429971+911330435+914789215+916358697+915523402+911854872
989+905102577+895607701+884917514+875680830+870386194+869977475+873650616
979+879744961+886688238+893437221+899521046+904839904+909409705+913331297
969+916836119+920088073+923017741+925518689+927645466+929477166+931003983
959+932260010+933375705+934415619+935267343+935750675+935863926+935901980
949+936176731+936623763+936929295+937072223+937419770+938171230+938999901
939+939430179+939340824+938883013+938092071+936780393+934577379+930876186
929+925108802+917382311+908575450+899681572+891550973+885456758+883193092
919+885913725+892969863+902252069+911598888+919706109+926060140+930668774
909+933953002+936458172+938425202+939692787+939852145+938194997+933714486
899+926051958+917087818+910942821+911184649+917854084+927791057+937625883
890+945862201+952490204+957463139+959575435+955850929+941091807+909466136
880+860969956+808616148+774827271+774920261+804082453+842832446+873592301
870+889685376+891725785+881963040+864395619+846620202+836948305+838670389
860+848586972+861312308+873637173+884860824+894964167+903686609+910835154
850+916762739+922328686+928191463+934055799+938939054+942393030+945069765
840+947673055+949735154+950067766+948250742+944969306+940891474+936026985
830+930437141+924762943+919510257+914386212+908869033+903043530+897718503
820+894341544+894724092+899841254+908594282+918274036+926298202+931386467
810+933719421+934598484+935657099+937864010+941213760+945337438+950014387
800+954832640+958824300+961169722+962282561+963709764+966878857+972100309
790+978583696+985064031+990346589+993493084+993958558+991925681+988370923
781+984392120+980190127+974568528+965528086+951714782+933403369+911604797
771+885837228+853601402+813977411+772489770+740649675+728491765+736524893
761+754250243+766441856+763091261+746587975+730128327+727732773+744603672
751+775739257+811666990+844732006+871673260+892518935+908238033+919483178
741+926834588+931396012+934679266+937705886+939817208+938191231+930043943
731+917387051+908338232+910403578+922960790+938286884+947050951+940936281
721+916870276+884633476+863581364+864857586+881868556+900629793+913308634
711+919830140+922041791+920864794+917289255+912964334+909402562+907285526
701+906710826+907842822+910935938+915728865+921223900+926373140+930878264
691+934754140+936739093+934152816+926184431+917262241+914806099+922482783
681+936739872+950820784+960992118+967689670+972097386+973987400+972706438
671+967140751+953388683+928780579+906967266+905546557+920286847+939661617
662+956080679+966824829+973150742+976776608+977748336+975215893+969172199
652+961919949+957488595+958669878+964804160+972768778+979628480+984228412
642+987040023+988978805+990520818+991968540+993935181+996771923+999763801
632+1001898890+1003414148+1005503326+1008399875+1010901019+1012174903
623+1012944416+1014200767+1015786417+1017055496+1018130152+1019531574
615+1020986829+1021755692+1021943428+1022414811+1023446542+1024197483
606+1023601094+1021527761+1019123310+1017866699+1018171842+1019338449
598+1020855655+1022763072+1024576654+1025089923+1023966109+1022835218
589+1023648499+1026259322+1028866314+1030600217+1032350550+1034613177
581+1036099668+1035553671+1033572225+1031493631+1029566603+1027320275
572+1025110962+1024044684+1024308591+1024343593+1022320716+1018095864
564+1012983638+1007951155+1002805681+997171939+991455986+986290576+981614017
554+977101881+973136261+970445499+968966217+967877080+966703785+965671014
544+965047482+964991960+965945701+968162417+970830645+972806377+974231631
534+976059175+978035491+978875656+978621685+979088003+981489402+984791228
524+987238408+988731327+990444775+992805069+994585208+994225323+992158938
514+990470166+989997029+989225504+986467142+982442493+979750693+979736341
504+980709369+979420095+974072209+966107981+958747803+954635229+955248891
494+960800097+969627153+978344790+984163344+987417052+990467049+994318314
484+997682675+999674057+1001496081+1003813385+1004706734+1002247476+997303308
475+991935032+987046582+983671246+984036975+988356182+992196342+989259661
465+977863276+963725673+954874070+953765712+954384504+946802175+926914202
455+901143646+880767601+875523616+887598730+910372343+935115518+955639362
445+969304153+977867367+985332419+993215086+1000195117+1005390334+1008315456
435+1006571033+997173563+980725409+963112401+953435893+958258172+976245222
425+998309259+1015277760+1027032991+1038152546+1045200762+1041145073+1034352127
415+1034640321+1038640228+1039312074+1036929767+1037026654+1039600983
407+1038656398+1031842867+1023321018+1017733512+1016988156+1021767251
398+1030664506+1038064555+1040985456+1042539222+1044429561+1044316439
390+1039663518+1030176628+1014110244+986617992+950116794+919236998+903413091
380+900872920+910051031+933559804+967295368+994627872
##END=
