##TITLE=X7943
##JCAMP-DX=4.24
##DATA TYPE=INFRARED SPECTRUM
##DATE=30/10/2018
##SAMPLING PROCEDURE=Diamant-ATR
##ORIGIN=ComPlat
##XUNITS=1/CM
##YUNITS=TRANSMITTANCE
##RESOLUTION=4
##FIRSTX=3997.453
##LASTX=373.96442
##DELTAX=-1.4165319
##MAXY=0.98694152
##MINY=0.3437781
##XFACTOR=1
##YFACTOR=9.1916091e-010
##NPOINTS=2559
##FIRSTY=0.9614982
##XYDATA=(X++(Y..Y))
3997+1046060799+1046923391+1047376735+1047040180+1046200349+1045315450
3989+1044652910+1044426595+1044834416+1045733387+1046627884+1047194386
3980+1047505002+1047606617+1047328489+1046659270+1045961129+1045655441
3972+1045840838+1046245353+1046477764+1046343012+1045925658+1045408181
3963+1045006066+1045013588+1045589687+1046494105+1047229533+1047327062
3955+1046556747+1045223886+1044169218+1044146002+1045180309+1046548123
3946+1047342107+1047205669+1046661864+1046610051+1047225058+1047824048
3938+1047910619+1047473292+1046590143+1045593967+1045329197+1046274015
3929+1047619975+1048223440+1047855629+1047110474+1046660178+1046527501
3921+1046118902+1045080899+1043918066+1043564197+1044279587+1045540468
3912+1046956009+1048455332+1049651626+1049744551+1048356700+1046184786
3904+1044573148+1044222587+1044771450+1045805886+1047072798+1048104575
3895+1048536715+1048385038+1047968851+1047744222+1047797396+1047655122
3887+1046945309+1045865286+1044923321+1044267071+1043903605+1044213832
3878+1045235753+1046237312+1046554542+1046014952+1044857826+1043628979
3870+1043109232+1043764185+1045047568+1046096789+1046541832+1046478996
3861+1046176486+1045836234+1045585926+1045448386+1045260135+1044812109
3853+1044484308+1045075517+1046302159+1047512589+1048341266+1048492424
3844+1047757580+1046247817+1044447800+1042934145+1042250790+1042802831
3836+1044272778+1045724309+1046439569+1046289708+1045725281+1045405327
3827+1045673274+1046292950+1046612840+1046177004+1045165005+1044285488
3819+1043967155+1044214675+1045263637+1046987330+1048373171+1048643906
3810+1047796294+1046349951+1045337498+1045544943+1046118318+1045662899
3802+1044355133+1043906069+1045184394+1047329980+1049381539+1050681393
3793+1050981893+1050674778+1050299056+1050033833+1049787739+1049551243
3785+1049423041+1049301388+1048821068+1047827161+1046834810+1046580740
3776+1046996798+1047458636+1047669907+1047671982+1047446575+1046894599
3768+1046221035+1046041150+1046826445+1048235436+1049327197+1049493724
3759+1048816010+1047818212+1046971118+1046243732+1045205145+1043650054
3751+1042373156+1042426265+1043092761+1043156635+1042548048+1042028690
3742+1042177318+1042537737+1042229326+1040614900+1037868832+1035503286
3734+1035270680+1037141121+1039770465+1041995423+1043261362+1043602911
3725+1043401821+1042960862+1042455835+1042237626+1042662373+1043687730
3717+1044915864+1045808545+1045814965+1044710624+1043275175+1043027590
3708+1044257085+1045856985+1046846483+1046921121+1046345282+1045685401
3700+1045351894+1045393136+1045742077+1046356111+1047258195+1048548581
3691+1050165212+1051535101+1051799027+1050908032+1049626530+1048476083
3683+1047595982+1046946541+1046390091+1045753879+1044996533+1044693439
3674+1045622759+1046989924+1047367008+1046647987+1046453900+1047935650
3666+1049989866+1051151597+1051017688+1050173448+1049278173+1048414608
3657+1047698245+1047766270+1048602729+1048954458+1047883642+1045744995
3649+1043938947+1043482490+1044211952+1045717500+1047410520+1048518168
3640+1048749736+1048543977+1048257808+1047630480+1046377381+1044704593
3632+1042904446+1041176862+1040418868+1041671902+1043764638+1045109042
3623+1045702455+1046157550+1046813216+1047589303+1048128374+1048040183
3615+1047329980+1046613164+1046641891+1047453838+1048584831+1049771592
3606+1050699226+1050880991+1050305216+1049400279+1048389577+1047237379
3598+1046144062+1045474908+1045375174+1045853808+1046733130+1047383220
3589+1047148993+1046313312+1046289967+1047693706+1049371617+1050203212
3581+1050142840+1049867241+1049810760+1049696175+1049301323+1049077018
3572+1049368245+1049657851+1049277135+1048450663+1048120204+1048514796
3564+1048979229+1049348337+1049909327+1050675297+1051345035+1051605265
3555+1051203020+1050126499+1049001731+1048736832+1049386986+1050077150
3547+1050071703+1049458188+1048985065+1049412211+1050920159+1052859532
3538+1054084877+1053906484+1052734442+1051522456+1050786639+1050480238
3530+1050414937+1050441654+1050400087+1050204120+1050079355+1050505074
3521+1051560261+1052532639+1052664602+1052146477+1051857584+1052100824
3513+1052186487+1051500602+1050487241+1050115540+1050587106+1051225587
3504+1051531599+1051696440+1052063213+1052523042+1052710449+1052505858
3496+1052134999+1051893833+1051833331+1051756618+1051517268+1051228051
3488+1051146085+1051409882+1051923598+1052458714+1052801948+1052830675
3479+1052526349+1052047326+1051780287+1052023981+1052497427+1052588343
3471+1052227081+1051890915+1051676726+1051186290+1050457282+1050105488
3462+1050342179+1050683987+1050823278+1051024886+1051482899+1051920810
3454+1052055496+1052074367+1052361314+1052917764+1053254838+1052864979
3445+1051749549+1050492235+1049875671+1050275646+1051210089+1051757785
3437+1051580948+1051195952+1051139730+1051301847+1051311055+1051182399
3428+1051218000+1051464937+1051585098+1051221631+1050414418+1049677240
3420+1049594301+1050316565+1051554749+1052857392+1053662271+1053460273
3411+1052356645+1051195563+1050759209+1051040903+1051526671+1051892536
3403+1052125207+1052168849+1051831321+1051076180+1050142581+1049285436
3394+1048608759+1048213972+1048246460+1048670947+1049199384+1049479587
3386+1049321685+1048879949+1048649872+1049041352+1049851743+1050386145
3377+1050242899+1049759142+1049492686+1049565379+1049728404+1049767053
3369+1049600202+1049213261+1048601302+1047707648+1046662901+1046112547
3360+1046638389+1047711020+1048045241+1047238222+1046200738+1045729886
3352+1045612124+1045400075+1045159234+1045058851+1044881041+1044320635
3343+1043416022+1042458754+1041673848+1041039516+1040320171+1039353305
3335+1038308558+1037534936+1037188395+1037101889+1036948397+1036536619
3326+1035986394+1035531105+1035164721+1034629605+1033688029+1032330202
3318+1030848518+1029679459+1028970943+1028351591+1027190704+1025009258
3309+1021817952+1018293917+1015406289+1013604132+1012463477+1011068363
3301+1008630707+1004948446+1000466819+995809910+991268170+986819809+982401602
3291+977881521+972949014+967345602+961143070+954549188+947561167+940179137
3281+932807547+925889561+919213583+912252603+905176131+898820496+893612001
3271+889190227+885122258+881339873+877845150+874647619+872141744+870959457
3261+871241605+872487442+874246087+876592569+879797038+883778956+888111565
3251+892572377+897478621+903182675+909281387+914715744+918848041+922218908
3241+925923087+930306860+934627538+938126217+941079600+944446575+948801038
3231+953949355+959248247+964008131+967892585+971167737+974379340+977705008
3221+980811235+983360622+985426381+987270754+988945552+990374970+991641688
3211+992903023+994111962+995047053+995623930+996072216+996718609+997605907
3201+998522452+999471550+1000787745+1002662661+1004868555+1007031779+1008906695
3191+1010425407+1011684342+1012823960+1013955991+1015346436+1017361485
3183+1019915995+1022333160+1024095826+1025405990+1026687363+1027838134
3174+1028398930+1028294267+1027998241+1027984494+1028296537+1028654361
3166+1028828605+1028933851+1029320662+1030068151+1030770442+1031016082
3157+1030780882+1030205108+1029501260+1029198361+1029825559+1031171130
3149+1032406592+1032984701+1032962394+1032585115+1032042412+1031448415
3140+1030743920+1029861873+1029099275+1028870690+1029032613+1028990916
3132+1028588412+1028397827+1028975288+1030194213+1031390507+1031966217
3123+1031825435+1031359899+1031075806+1031181571+1031499125+1031779328
3115+1031948384+1031916285+1031422736+1030384474+1029181177+1028345820
3106+1028095836+1028176505+1028018084+1027225397+1026001803+1024811151
3098+1023784755+1022886627+1022279726+1021993233+1021647146+1020970210
3089+1020275311+1020174540+1020984411+1022386594+1023594495+1024000501
3081+1023714267+1023390098+1023518819+1023896746+1023814650+1022715756
3072+1020430101+1016881489+1012237097+1007455747+1003936576+1002365792
3064+1002276109+1002673296+1002879249+1003120804+1004413849+1007443816
3055+1011637912+1015803995+1019352606+1022388409+1025002967+1027022816
3047+1028265605+1028669341+1028138375+1026527256+1024040252+1021544039
3038+1020064495+1019913466+1020600648+1021528411+1022436072+1023289391
3030+1024094594+1024829502+1025462472+1026077803+1026840726+1027729840
3021+1028537767+1029145511+1029448410+1029162890+1028241028+1027287520
3013+1026998109+1027361575+1027830612+1027990719+1027761032+1027262554
3004+1026706752+1026224422+1025805122+1025451189+1025149846+1024695464
2996+1023881442+1022779436+1021495663+1019775991+1017114095+1013099040
2987+1007514174+1000212360+991040817+980113548+968299887+957115046+947733206
2978+940232182+933905922+928036768+922430697+917690980+914922021+914654269
2968+915997181+917141338+916818272+915270119+913747516+912981351+912076220
2958+908713978+900431420+886681304+870831579+859632277+858966949+869313062
2948+885508745+900718821+910422302+913848483+913371470+912667687+914329776
2938+918489503+923466884+927437389+929506391+929918233+929886069+931046373
2928+934576827+940568866+948039801+955502306+961809047+966675540+970346517
2918+972919703+974304117+974653707+974398340+973856804+973059837+971956144
2908+970729891+969894535+969949720+970865162+972030913+972833197+973241732
2898+973792411+975035589+977047461+979380909+981292852+981989566+980872061
2888+977705851+972584315+965803869+957884648+949700398+942390413+936897759
2878+933498360+931892883+931784654+933245004+936566587+941918912+949040647
2868+957144487+965258443+972751037+979453407+985418340+990753157+995548383
2859+999793125+1003432068+1006549578+1009378390+1012049754+1014408362
2850+1016211298+1017530930+1018756599+1020138874+1021533858+1022587878
2842+1023020536+1022890194+1022672633+1022810886+1023221172+1023597478
2833+1024021317+1024816727+1026017755+1027396528+1028827697+1030329030
2825+1031848196+1033190719+1034154407+1034677721+1034838282+1034798401
2816+1034834067+1035242602+1036056688+1036992687+1037793675+1038464126
2808+1039098328+1039651665+1039989452+1040086139+1040067463+1040050538
2799+1040067852+1040183798+1040518797+1041076479+1041647585+1041929215
2791+1041762364+1041326853+1041037441+1041123169+1041411154+1041602581
2782+1041593178+1041456027+1041282238+1041125828+1041014356+1040940301
2774+1040842058+1040680136+1040579688+1040757627+1041271733+1042020389
2765+1042950227+1043987906+1044851601+1045249111+1045216883+1045045233
2757+1044948546+1044926888+1044879550+1044778194+1044712115+1044749921
2748+1044821836+1044817686+1044749143+1044709197+1044668343+1044423417
2740+1043874878+1043303448+1043158840+1043548050+1044125252+1044505643
2731+1044544356+1044227320+1043619641+1042976426+1042603946+1042551290
2723+1042686236+1043037252+1043782601+1044907823+1046116243+1047051528
2714+1047491190+1047457923+1047248922+1047194515+1047330045+1047454746
2706+1047494043+1047568876+1047704017+1047705119+1047412919+1046932923
2697+1046569522+1046599870+1047056716+1047666730+1048106197+1048313447
2689+1048367010+1048170071+1047628341+1047057689+1046959122+1047349045
2680+1047675938+1047470114+1046819960+1046133492+1045679111+1045506229
2672+1045605315+1045934023+1046401634+1046950821+1047539046+1048031947
2663+1048295938+1048345611+1048242375+1047974622+1047581651+1047271359
2655+1047313963+1047821843+1048571667+1049092257+1049135510+1048997905
2646+1049166701+1049768609+1050555201+1051231099+1051587821+1051487568
2638+1050918019+1050033379+1049130582+1048663879+1049094656+1050419023
2629+1051956346+1052960434+1053372535+1053625567+1053884954+1053948115
2621+1053798514+1053723940+1053826981+1053875681+1053778865+1053758568
2612+1053842415+1053678093+1053159254+1052774907+1052995710+1053719336
2604+1054542371+1055175406+1055412745+1055091105+1054359049+1053775947
2595+1053834309+1054431224+1055093634+1055610463+1056048892+1056307566
2587+1056169702+1055703972+1055242133+1055077033+1055294659+1055726863
2578+1056132155+1056494001+1056883535+1057149991+1057191882+1057224954
2570+1057279684+1056963362+1056313662+1056211398+1057202452+1058449780
2561+1058624218+1057532392+1056146616+1055292778+1055037801+1055164771
2553+1055494452+1055737887+1055560142+1054888005+1054006348+1053430314
2544+1053635035+1054652351+1055937680+1056812528+1057009727+1056746190
2536+1056415017+1056283184+1056400945+1056753128+1057372415+1058151744
2527+1058723239+1058846383+1058758516+1058760007+1058687184+1058288895
2519+1057870050+1057964142+1058498350+1058768048+1058252386+1057262889
2510+1056749951+1057353545+1058595231+1059332410+1059085862+1058418654
2502+1057909217+1057441801+1056760326+1056092145+1055836454+1056029827
2493+1056381427+1056577458+1056436222+1056021203+1055690743+1055878410
2485+1056778094+1058198045+1059562422+1060180541+1059844829+1059097600
2476+1058591600+1058317817+1057791131+1056890215+1056152647+1056162569
2468+1056822450+1057434279+1057559304+1057579925+1058125092+1059100518
2459+1059743539+1059643026+1059206413+1058985415+1059048640+1059187412
2451+1059255372+1059128596+1058745676+1058265356+1057842814+1057363596
2442+1056703391+1055984175+1055296086+1054511115+1053674786+1053237394
2434+1053543212+1054320725+1055020292+1055493285+1055926397+1056279228
2425+1056284156+1055882755+1055232860+1054541269+1054188243+1054490170
2417+1055068084+1055076774+1054304384+1053466239+1053334016+1054009655
2408+1055020746+1055839178+1056339989+1056737954+1057097335+1057209585
2400+1057011219+1056724596+1056557226+1056617858+1057026458+1057759291
2391+1058548542+1059176778+1059529998+1059162965+1057379678+1054073205
2383+1049939027+1045574772+1040939263+1035901186+1030702223+1025646313
2374+1020838376+1016293718+1011899050+1007401017+1002574275+997134925+990970783
2364+985107530+981472477+980826992+981984897+983738484+986290465+990190222
2354+995236535+1000877688+1006398809+1010561650+1012014283+1010204474
2346+1006114651+1002143368+1000205940+1000134414+1000753377+1001435500
2337+1002372731+1003919457+1005797226+1007267886+1008158233+1009033665
2329+1010183593+1011225227+1011862088+1012298377+1012917729+1014152930
2320+1016585269+1020447220+1024919380+1028561436+1030621100+1031563259
2312+1032306338+1033377608+1034905528+1036929786+1039339752+1041715933
2303+1043589552+1044892649+1046019621+1047452606+1049362798+1051430762
2295+1053011338+1053714602+1053884241+1054214700+1054932749+1055752477
2286+1056519745+1057314961+1057917582+1057848585+1057118540+1056364502
2278+1056013940+1055773358+1055181112+1054295564+1053564417+1053307494
2269+1053589707+1054397050+1055603589+1056792166+1057346931+1056904935
2261+1055778481+1054828929+1054624532+1054788270+1054684775+1054544252
2252+1054918353+1055390567+1055363332+1055714477+1057732834+1060712609
2244+1062583050+1062729345+1062397005+1062473070+1062375022+1061225807
2235+1059231184+1057549317+1057027819+1057373518+1057732315+1057868818
2227+1058441545+1060031069+1062195656+1063938802+1064883620+1065265892
2218+1065111038+1064484488+1064134834+1064752565+1066050409+1067320433
2210+1068312979+1069180499+1070106187+1071018841+1071418103+1070921765
2201+1069956002+1069203844+1068595905+1067481902+1065608543+1063441363
2193+1061427675+1059317106+1056845405+1054766028+1054131178+1054804482
2184+1055885219+1057169769+1058982108+1061313350+1063895355+1066116812
2176+1066685129+1064759374+1061566382+1059634272+1060323334+1062888284
2167+1065802629+1068191974+1069774042+1070601746+1071350857+1072428157
2159+1072620103+1070807051+1068323678+1067121808+1067628131+1069232830
2150+1070994783+1072010024+1072159172+1071879747+1071031810+1069281725
2142+1067080565+1064922269+1062807291+1061462757+1062324766+1065371398
2133+1068754715+1071098797+1072443914+1072956723+1072330627+1070478408
2125+1068008847+1066061757+1065613860+1066408687+1066870461+1065888746
2116+1064287354+1063632012+1064122189+1064667551+1064622482+1064384754
2108+1064444737+1064744200+1065025181+1065269653+1065633768+1066087825
2099+1066223355+1065585587+1064297405+1063077831+1062501019+1062592129
2091+1063133211+1063807942+1064135418+1063888352+1063374311+1062789523
2082+1061876934+1060820579+1060586742+1061578184+1062798601+1063147023
2074+1062837444+1062773894+1063175880+1063622155+1063993403+1064608670
2065+1065538832+1066256946+1066024405+1064517560+1062215304+1060244091
2057+1059646333+1060611578+1062110252+1062298438+1060082039+1056702094
2048+1055107057+1057118281+1061814616+1066989909+1071131674+1073600846
2040+1073741823+1070951789+1066245598+1062678959+1062500176+1064609124
2031+1066526968+1067450257+1067632541+1066999896+1066137822+1066592917
2023+1068643114+1070103010+1068770927+1065378531+1062907025+1063342795
2014+1066157990+1069268366+1070390151+1068859118+1066779741+1066496879
2006+1067239829+1066641033+1064514447+1062744130+1062740628+1064263750
1997+1065665219+1065190605+1062865328+1060710988+1060558079+1062002153
1989+1062948462+1061621567+1057720059+1052459946+1047921967+1045965150
1980+1047214877+1050948043+1055798454+1060228268+1062925506+1063734016
1972+1063571705+1062857352+1061289486+1059618060+1059606453+1061303623
1963+1062552054+1061956047+1060573253+1060084827+1060350440+1059733423
1955+1057371702+1054394132+1052955311+1054282076+1057494522+1060228398
1946+1060695944+1059073801+1056789897+1055134487+1054741192+1055621811
1938+1057199534+1058573573+1059210109+1059264904+1059098443+1059010121
1929+1059480650+1060766432+1062157072+1062620013+1062195461+1061715789
1921+1061266012+1060432601+1059798529+1060316655+1061330923+1061290524
1912+1060000267+1058727908+1058368008+1058453995+1058373909+1058446667
1904+1059086641+1059860198+1060079964+1059727586+1059177361+1058554702
1895+1057809937+1056913495+1055724723+1054081570+1052218392+1050957835
1887+1051242512+1053289337+1056087995+1058033334+1058623051+1058889960
1878+1059788153+1061098123+1062126140+1062655419+1062932056+1063094497
1870+1062830765+1061842176+1060747691+1060570076+1061473068+1062804956
1861+1063768515+1063920580+1063396489+1062763454+1062574750+1062971483
1853+1063606592+1063943342+1063746597+1063243450+1062724352+1062230738
1844+1061822786+1061719032+1061825251+1061697567+1060948263+1059423066
1836+1057328773+1055203614+1053530307+1052567138+1052613179+1053905381
1827+1056084234+1058344728+1059961943+1060660343+1060683882+1060476437
1819+1060490509+1060948587+1061455364+1061289422+1060122179+1058138386
1810+1055813109+1053775039+1052462540+1051815239+1051508060+1051434718
1802+1051848052+1052978202+1054559102+1055964980+1056747746+1056798845
1793+1056259969+1055631149+1055561698+1056094609+1056742883+1057007587
1785+1056567796+1055496333+1054239148+1053172094+1052377137+1051829765
1776+1051478684+1051179092+1050870681+1050795977+1051218130+1052087336
1768+1053145895+1053894876+1053829251+1052878013+1051393475+1049892921
1759+1048687872+1047796877+1047234072+1047011583+1046853810+1046237701
1751+1044949390+1043702904+1043399356+1043860093+1044329843+1044412977
1742+1044226413+1044035633+1043945626+1043934602+1043909182+1043658938
1734+1043154171+1042877145+1043005931+1043223038+1043333148+1043159747
1725+1042493901+1041451294+1040361219+1039218813+1037928167+1037038988
1717+1037436434+1038802950+1040139119+1041245535+1042314080+1043312527
1708+1043910349+1043994261+1044076422+1044430485+1044428735+1043554794
1700+1042216940+1041045807+1039991722+1039019344+1038246694+1037508284
1691+1036536490+1035215366+1033694773+1032124378+1030316125+1028553070
1683+1028008552+1028237331+1027821145+1026311511+1023559932+1019279589
1674+1013934332+1008363214+1001969514+993377766+982605805+970694485+956307444
1664+934663268+900000448+852139165+797529793+741325320+686611804+635216500
1655+586337510+548208694+540206761+555719445+585988959+636573614+702087947
1645+757869944+796774198+827253686+853493944+875721352+896017623+918165594
1635+939829872+954424942+962240926+966254425+967721130+967321349+966378217
1625+966019809+966149243+965713797+964013773+960935690+955708065+946892078
1615+934991004+922805447+913436251+909896589+912499993+916235688+915038616
1605+908636032+903057067+905158882+916360648+931826804+945662193+954776606
1595+958176653+954825435+942129145+915238409+869189139+805433775+737427443
1585+685781117+663318639+665287128+677659250+694270665+723135403+775348361
1575+838458824+884421264+910195338+926757600+939181210+945584701+944436005
1565+936743424+924449702+909272438+887584880+845848182+783935180+734933046
1555+702108633+674095269+651633894+639066065+637262870+643977627+656599667
1545+674470149+697470855+724409967+757796602+799034563+833308107+853266915
1536+866900242+881735504+899000381+914248393+925337196+934330020+942937914
1526+950286873+955025358+957797494+960101306+962075048+962227827+958276906
1516+946504488+921473948+878931398+821273384+760368491+716536333+718426682
1506+766421940+812287758+839465765+856856510+870930146+886000219+906298045
1496+930081258+949720695+962178674+969608561+974479009+977732114+979045521
1486+978000580+974466818+968318952+959739591+949422141+937477879+922901031
1476+905062779+885045285+866415901+854851123+851367942+850045067+845001218
1466+834766836+825634267+827753460+842389902+863737015+888684617+917084014
1456+942440604+955780175+958765916+955971603+950090127+943407211+938644991
1446+937951520+941762955+949213010+958336306+966172847+970135376+968746747
1436+962070120+952503985+941577493+926975031+903434605+865957434+814563621
1426+753479231+689249902+632820540+594278714+575720533+576109224+593807667
1417+621457370+652185286+684853548+719572331+754795362+787848036+816851481
1407+842148218+864788181+883992172+898594505+909479235+918209235+925043116
1397+929085341+929172365+923833334+911891795+894445477+876845536+868923138
1387+877730565+896884495+913096778+919743446+917631904+911032121+904434997
1377+899309441+892983052+880974916+861184321+835487349+808720794+788864704
1367+783414849+792543333+809982389+828540765+843192316+852743991+859051769
1357+864839151+872409950+882495833+893894538+904929389+914841287+923551769
1347+930860976+936246762+939145933+939364402+937618596+935899248+936381449
1337+938966502+941242625+941316939+939654980+938616329+940280233+944257741
1327+947729574+947433224+941124020+927333699+904174377+868676785+818538211
1317+755659770+686732549+619898129+562140056+518113650+488974935+472606240
1307+465348749+463762336+466031131+472427555+484329926+502768044+527605795
1298+557308775+588970161+618861164+643564228+661067742+671315546+676188784
1288+678914813+682919428+690563309+702442919+717538411+734146131+751110313
1278+768214629+785363690+801826931+816578411+829099810+839588066+848450743
1268+855657168+860401166+861213242+856765141+847553458+837368684+832143848
1258+835903082+847868614+863831172+879577597+892830597+903013685+910367701
1248+915486642+919120268+922057439+925065812+928625966+932478190+935403429
1238+935304798+929314445+913957814+886052550+845245690+797367676+754703345
1228+730250524+729735251+748799108+777427739+806608280+831936338+853301997
1218+872551835+891108071+908942952+925096290+938592855+948853045+955725314
1208+959394995+960088013+957718446+951734188+940982459+923371170+895938380
1198+856742055+808805160+762579248+731776239+723712540+733486768+748587513
1188+758915404+762727099+765462077+774258222+792133048+815838055+838821318
1179+855818248+864899653+867087325+865583074+864517187+866635278+871496778
1169+875826598+875031382+864060406+838310195+796119894+741134346+682104887
1159+631315511+602253963+603926751+634001919+679122129+723908961+759367256
1149+783701731+798591984+806817541+812334512+819877038+832177893+846932550
1139+856957282+854134630+835468414+807944643+786459796+783294429+798480058
1129+821347893+840467324+850820829+853569426+852414374+850746320+850381297
1119+851306791+851857729+848977299+838523995+815768928+776313606+717608770
1109+640990588+553724174+469475015+405084963+374012970+380645890+419408940
1099+478368365+544100973+605019290+652157856+677986467+675817147+643457620
1089+589984170+536732496+506524619+509650721+540380777+584964768+630831364
1079+670499449+701195850+722005512+730246828+721154787+693064904+652685644
1069+612116383+578589355+549104034+517876246+487588056+469457312+472239208
1060+494349600+527052652+562169237+595494981+625727597+652981735+678080300
1050+701748020+723776608+742869906+757418026+766857321+772665390+778006432
1040+785986155+797703518+811718273+825438883+836829224+844532375+846848768
1030+841465511+826714290+803877646+779033151+761537290+758390923+769399899
1020+788355203+808504919+826439275+841912954+855797367+868645853+880340065
1010+890445078+898677249+904473905+906145785+902379418+895931506+893555779
1000+899640938+911394485+922415588+929181833+932206936+933295908+934137231
990+936131594+939678520+943961067+947856285+950658575+952081832+952193174
980+951443869+950544898+950108544+950063800+949200754+945777296+939567826
970+933497063+932081522+937417182+947311118+957714814+966071492+972032729
960+976183897+979068412+981155441+983005650+985031464+987179385+989119147
950+990629883+991596619+991783184+990506804+986236772+977374808+964827665
941+953354451+948554879+952094412+960712617+969686571+976199265+979771611
931+981079117+980757995+978459306+972464284+959607692+935243388+896103999
921+847462024+805849573+787089004+788680020+789714003+772745540+743110747
911+723319957+730514645+762848492+805680841+845326878+875790868+897053680
901+911158378+920124875+925805649+930167310+934911502+940666136+946630356
891+951042403+951318261+942407922+916814121+872715897+824565786+798110302
881+808267451+845509552+887751536+920544109+942402215+957172565+967764188
871+975504107+981170940+985422555+988772282+991559657+993988883+996000625
861+997216762+997287769+996139332+993844404+990637600+986988087+983257904
851+979287724+974456248+968291392+961402976+955790291+953694183+956028797
841+962046840+970122666+978599570+986349022+992887719+998040835+1001790212
832+1004523894+1006951174+1009434418+1011534028+1012392016+1011570536
823+1009357445+1006235071+1002440820+998175976+993533010+987474568+977011017
813+957950597+927231436+885904116+840586901+800423452+771016271+753034966
803+747886325+760169865+790403778+828535059+858324188+866589496+849181696
793+815015927+785842324+783544219+812382628+857126078+899214829+930312826
783+951384794+965637861+975025797+980331887+981720257+979064975+972504943
773+963248775+954016861+948257038+948270786+953815511+962588246+972008476
764+980312368+986345261+989402009+989614901+987773511+984286764+978565720
754+969370638+954298815+926905516+876092600+795663372+699112582+619050906
744+583811014+596254207+639042072+693944875+750341424+802117964+845262226
734+877785102+898439326+905417102+895720235+866034148+819241929+771655725
724+746293622+753829858+782789985+809786033+817432249+803101560+776192861
714+751148508+739490609+743657794+757675014+773503535+786471209+795667263
704+800850987+800587125+793552933+780150656+761580672+737157486+702697702
694+653246828+591062118+531585346+496300872+495011102+516844793+541243693
684+554838371+555943620+548569372+537101734+525014355+514946500+508651886
674+506776549+508043396+509405081+508719197+508305247+513721771+523877785
664+532540928+536285896+535716282+536353856+545524620+565244986+590606181
654+615600407+637809918+657427437+675054548+691306064+706760808+721447830
645+734971306+747391673+759184064+770236164+780153768+789523094+799390313
635+809490721+817403197+818892145+810631181+795365466+783009233+782686555
625+792452094+798435897+785541630+750058303+703892893+667452558+656455643
615+672833351+706658674+744803702+777942168+803047607+821725366+836528594
605+848627905+857545961+861569316+858929403+850368263+840714779+836124404
595+838547405+842567647+837690843+815790782+779006953+740517329+716926776
585+717710255+739431469+770603715+801006425+825914081+844879565+858962021
575+869430240+878064591+886625796+895202887+902215161+906706515+909471842
565+911015780+910036269+905715462+900752931+899820758+904523902+911792839
555+917921056+922219167+925615259+927730561+927290057+924626734+921905957
545+920572836+919738518+917206898+910449862+896247180+872710126+844415327
535+823085917+819340950+833972333+858695565+883934913+904573315+919883774
526+930783873+938127773+942458048+944073382+943388146+941651873+940716782
516+941333929+942062677+939943678+931961426+917335230+900170995+889034530
506+890812111+904330658+921301196+933231580+938165125+939583973+939362651
496+934930437+922531340+902245834+880648477+867969955+870377003+885386054
486+904761565+920966457+931853002+939621001+946232326+951186881+952993838
476+951629331+948828403+946303009+944323561+941577753+935998139+926462612
466+914891932+905909548+903138385+906550624+914094641+924855384+938181661
456+950657018+958996706+963686037+966366156+967224273+966352927+965450454
446+966429900+969185824+972050691+974015549+975323444+976197579+976392379
436+976189798+976674333+977923477+977972566+975324806+971784300+970719840
426+972796494+975204645+975194205+973105230+971365585+972738327+977820759
416+982620460+983103180+978334995+969385034+956609695+937406871+909812547
407+878808125+855173217+846612596+851821999+863573471+876205758+890623147
397+910211290+931299729+946796040+954090851+954062253+947135124+934208497
387+921355732+919073254+930963239+947058669+957578701+961701790+959544337
377+945870611+917552532+889155729
##END=
