##TITLE=X9283
##JCAMP-DX=5.0
##DATA TYPE=LINK
##BLOCKS=1


$$ === CHEMSPECTRA SPECTRUM ORIG ===
##TITLE=X9283
##JCAMP-DX=5.00
##DATA TYPE=INFRARED SPECTRUM
##DATA CLASS=XYDATA
##ORIGIN=ComPlat
##OWNER=
##XUNITS=1/CM
##YUNITS=TRANSMITTANCE
##XFACTOR=1
##YFACTOR=9.3496144e-010
##FIRSTX=3997.453
##LASTX=373.96442
##MAXX=3997.453
##MAXY=1.0039072010203052
##MINX=373.96442
##MINY=0.278771936292304
##NPOINTS=2559
##XYDATA= (X++(Y..Y))
2559I89934491I89093298I88336511I88177261I88567544I89135884I89743366I90436657
2551I91019086I91147990I90806349I90311387I89883682I89486577I89091959I88818978
2543I88722204I88707095I88831282I89351043I90272435I91185157I91622552I91335099
2535I90448196I89597058I89386106I89618351I89738394I89726982I89716208I89235781
2527I87764219I85779908I84631372I85054997I86072334I86207613I85508011I85388031
2519I86484866I87960699I89036624I89497160I89014757I87373490I85341429I84327917
2511I84709785I85375727I85205002I84349338I83964473I84478880I84912896I84457396
2503I83825305I84548241I86942215I89683185I91502828I92132495I91664882I89745916
2495I85847994I80338577I75073453I72162841I72123507I74423129I78326534I82316512
2487I84553213I84240515I82431073I81639031I82877457I84065901I83143553I80502608
2479I78268648I77281593I77186094I78703557I81907487I84412132I84013753I80786746
2471I76607363I73367542I72446979I74101124I76129869I76249338I75020858I75264705
2463I78082687I81346925I82774881I81615061I77838011I71954885I67858826I70299593
2455I76582500I82329199I85700411I86250071I84265633I80508537I75958953I71745846
2447I69354486I70012905I73073140I76647973I79635340I81880775I83447454I84191682
2439I83959310I82924632I81103205I77840051I73219066I69940803I70075062I72126694
2431I75135737I79580196I84542184I88158710I89445522I88294180I85605167I83207878
2423I81565144I79204129I76067202I74882837I76890800I80231284I83809113I87470391
2415I90443287I92001870I92398719I92259678I91710528I90692808I89697848I89134800
2407I88428567I87161645I86528216I87993722I90774856I92790469I92827763I90863725
2399I87917030I85728079I85191551I85699646I86607714I87440619I87226671I85407220
2391I83134309I82348133I82824288I82179448I78514280I71971907I66008838I64975563
2383I67370366I69274160I70197655I72203450I75807226I78772727I79286049I76555597
2375I71085387I66264543I66834603I72998552I80365607I85257342I86552824I85043458
2367I82821165I81921257I82675621I84280104I86218259I88180258I89386234I88720802
2359I85456436I80255445I76343116I77375817I82483667I88034077I91499831I91953865
2351I90154432I88609429I89285698I91305200I92836752I93089460I91746994I88221887
2343I82562081I77243661I76424016I80491706I85718516I89691473I91844405I91957308
2335I89843264I85286094I78283056I71376282I69778557I73010090I75979162I77626804
2327I80963527I86821407I92328402I95500839I96482411I96307288I95464564I93595388
2319I90756814I88302787I86982250I84977603I79897675I71739280I65570104I67478360
2311I74915414I82101608I86737256I89061295I90204859I91002638I91377685I90834081
2303I89273649I87000101I83894857I79486801I75434538I76189795I81626345I86905367
2295I89235845I88166679I84518533I80527534I78635343I78640507I78884291I79097474
2287I79758380I80324743I80273104I80911697I83580884I86921751I88579848I88045169
2279I86784686I86303239I86496532I86515402I86413465I86919009I87772762I87389236
2271I84553277I80515485I79099004I81791970I85697160I88151378I88744899I88382348
2263I88118419I88419961I89141940I89894775I90019663I88321211I83636093I76702798
2255I71752731I72704341I77572935I82250084I85199520I86952989I88249619I88990022
2247I88570732I86929656I85037911I83955867I83375160I82087264I79952246I78644842
2239I79758252I82631697I85210485I86178543I85750965I85004123I84611418I84288966
2231I83511268I82234337I80794013I79548193I78679395I78199988I78214269I78959772
2223I80322448I81691180I82583437I82987172I82953575I82321931I81070820I79673718
2215I78893280I79056673I79504013I79138019I77667541I76126426I75835403I76797213
2207I77838903I78134771I77953336I77999556I78388181I78587977I78173532I77231357
2199I76147655I75233276I74499121I73785557I73200132I73138804I73564150I73788489
2191I73378890I72701154I72243040I71968337I71660165I71304817I70918232I70482112
2183I70114907I69996776I70167884I70535153I70960116I71315336I71507609I71444177
2175I71015898I70139132I68795454I67199960I65922200I65415763I65423732I65426919
2167I65365336I65325556I65116261I64669049I64246253I63981368I63803630I63749442
2159I63763148I63500176I62866300I62265448I61870957I61226754I60035186I58898635
2151I58692528I59373579I59994449I59827932I59014916I58166456I57688260I57572106
2143I57630565I57684626I57476416I56632481I55050694I53199240I51687195I50701351
2135I50094060I49733995I49561995I49564418I49804886I50284867I50809154I51169729
2127I51393240I51665201I52077733I52549809I52945575I53201662I53356003I53533103
2119I53880673I54385325I54729261I54518501I53760566I52969736I52671637I52924027
2111I53392022I53716259I53770448I53774528I54130449I54907636I55611319I55715807
2103I55247429I54631850I54252405I54281666I54627897I54961952I55001095I54736529
2095I54307485I53845355I53524050I53543112I53960043I54627642I55305187I55809712
2087I56108449I56302188I56511673I56792050I57121578I57443457I57786054I58337181
2079I59249456I60319196I61043407I61114872I60744989I60425087I60458110I60738741
2071I60890660I60648534I60171294I59906537I60108818I60620356I61129215I61481886
2063I61728347I61997758I62395054I62988065I63803566I64732481I65526817I66062389
2055I66528472I67161391I67853853I68246814I68205630I67999269I67913078I67930928
2047I68025470I68420790I69174198I69896050I70369273I70982429I72038782I73161116
2039I73862376I74152762I74205420I73974387I73491282I73125543I73227417I73662390
2031I73908468I73670422I73308572I73465272I74309525I75432753I76397623I77004021
2023I77103282I76624448I75812963I75160026I75033736I75455193I76165633I76868806
2015I77432236I77848721I78063817I77985785I77676657I77398958I77406672I77731483
2007I78201009I78636873I79000891I79362423I79784836I80276101I80806572I81293055
1999I81581719I81560427I81357890I81313902I81612830I82043021I82286422I82364772
1991I82588920I83105557I83687285I84033069I84143614I84246316I84398426I84413599
1983I84229295I84093442I84289731I84842260I85554931I86200090I86649471I86943299
1975I87261416I87732344I88264728I88635184I88757076I88771165I88832557I88927992
1967I88959867I88871062I88636778I88305401I88096808I88262879I88775372I89370742
1959I89973698I90774792I91677696I92013281I91238261I89765041I88660876I88580103
1951I89291372I90121664I90570215I90555043I90319164I90177000I90273455I90451639
1943I90308900I89525466I88258289I87054480I86278249I85812740I85448340I85292787
1935I85545241I86024457I86237193I85917865I85285584I84742872I84467022I84310641
1927I83928263I82920807I80992852I78151857I74812520I71670110I69413519I68472747
1919I68844478I69996904I71091124I71546242I71349315I70727043I69730042I68337531
1911I66775060I65452484I64609952I64200033I64082030I64123341I64103642I63776663
1903I63144892I62514778I62166060I62055899I61920428I61603522I61240078I61188759
1895I61803318I63128954I64717499I65856027I66115111I65616642I64788199I64064180
1887I63800825I64149479I64938524I65826446I66513936I66743312I66353284I65461600
1879I64382807I63399832I62813706I62994695I64001895I65272834I65994494I65783733
1871I64847870I63555001I62118948I60700299I59501463I58628012I58027479I57618198
1863I57364342I57217460I56966153I56053304I53518313I48106944I38607102I25013495
1855I10247126H99836602H98145928I04683074I14897564I24275451I30844982I34428166
1847I35124645I32906240I27891020I20589755I12086531I03986532H97774452H93868306
1839H91430343H89426652H87798709H87297372H88301321H90214932H91981980H92842235
1831H92634152H91756174H90955335H90903569H91724872H92872899H93528896H93189103
1823H91854032H89684397H86615556H82364135H76748126H70050837H63143872H57113419
1815H52599408H49535475H47535864H46342383H45873686H46100385H46987351H48425317
1807H50192428H52083408H54016272H55845285H57143126H57400170H56494461H54828395
1799H53005246H51523866H50774283H51117773H52842426H56053751H60543855H65684984
1791H70619878H74790526H78288666H81620034H85246632H89346900H93705358H97767184
1783I01111047I03932853I06803939I09967897I13128667I15870403I18002998I19490243
1775I20320982I20622332I20781136I21284704I22509232I24698119I27843526I31426199
1767I34631276I37073638I39018104I40739825I42071327I42767232I42941208I42865918
1759I42576234I41919217I40868602I39566617I38088807I36341203I34219509I31771920
1751I29143534I26358958I23251420I19645987I15510147I10890373I05851182I00489157
1743H94838085H88798578H82325438H75699104H69741199H66027390H66631940H72977195
1735H84621873H99291213I14108646I26866415I36588238I43418830I48130787I51580094
1727I54384624I56874862I59203810I61447396I63620219I65693462I67653293I69496523
1719I71158318I72513343I73482995I74133637I74653398I75193750I75726899I76144787
1711I76479415I76870718I77316210I77643252I77786691I77914576I78196737I78599005
1703I79010773I79457730I80047044I80740972I81311926I81577002I81626154I81744412
1695I82113912I82674601I83286228I83903400I84540080I85184347I85827594I86496150
1687I87174714I87761095I88163810I88400836I88563783I88729025I88936025I89179999
1679I89384066I89458463I89449028I89546057I89883236I90397259I90918678I91319862
1671I91578436I91809661I92197649I92762036I93248774I93370984I93092648I92612412
1663I92194844I92060776I92305579I92858618I93562875I94276694I94873912I95231363
1655I95283575I95096977I94855743I94709307I94634336I94527298I94402155I94364224
1647I94422811I94496762I94563828I94659199I94765344I94831199I94870087I94957553
1639I95142303I95382899I95565099I95566502I95344139I94966670I94535968I94074922
1631I93576900I93159331I93027622I93226206I93573393I93893933I94159201I94370280
1623I94487582I94518883I94512572I94446781I94269936I94047509I93920453I93938941
1615I94055797I94252978I94565039I94977571I95382899I95673285I95842607I95951494
1607I96009635I95984708I95919746I95887615I95813091I95555983I95250552I95314686
1599I95934408I96745448I97262276I97457099I97623616I97819077I97851143I97770690
1591I97919548I98412853I98934208I99138721I99002421I98760741I98678822I98818627
1583I98897487I98559735I97889203I97387674I97364086I97672067I98099644I98648922
1575I99378360A000274889A001277117A002200294A002758242A002832512A002571133
1568A002176515A001780622A001452624A001163067A000878802A000739633A000912781
1561A001319066A001716552A001917623A001806505A001387853A000888173A000602250
1554A000647258A000966969A001432542A001894418A002299873A002761685A003378284
1547A004055828A004608804A004986146A005344808A005856218A006387327A006486842
1540A005913658A005067109A004580116A004549962A004573167A004485573A004555954
1533A004958159A005535678A006053272A006272384A005931954A005033959A003988380
1526A003248296A002926800A002812239A002619265A002262260A001923488A001805166
1519A001944908A002333024A002991124A003837482A004652282A005205704A005346274
1512A005075142A004629459A004373180A004488697A004868908A005380636A006060348
1505A006871515A007475746A007534206A007175161A006984163A007465482A008474404
1498A009268422A009301126A008753824A008016226A007122630A006089993A005249437
1491A004867123A004938842A005469250A006423537A007441767A008079404A008285128
1484A008378969A008650420A009112806A009618733A010146017A010835164A011693251
1477A012409939A012653149A012571803A012811889A013806275A015178578A016162254
1470A016450090A016315320A016166015A016280512A016659575A016921336A016680995
1463A016082566A015608896A015431987A015324312A015169206A015194643A015600226
1456A016248700A016899215A017473100A017881616A017914002A017550813A017140576
1449A017059995A017351272A017769478A018068980A018173085A018065028A017625975
1442A016760620A015616674A014484585A013562556A012934864A012634916A012647029
1435A012979936A013708800A014752020A015695661A016103986A016029461A015983242
1428A016306204A016782104A017010014A016943267A016831957A016806266A016785929
1421A016769035A017000260A017783886A019202535A021073369A023094465A024958988
1414A026528662A028110386A030341605A033490390A037062991A040270235A042628892
1407A044099816A044993477A045709208A046348502A046643924A046178797A044592037
1400A041886640A038581920A035406678A032998424A031821199A032091248A033732516
1393A036308116A038945810A040712539A041324739A041222546A040973599A040845651
1386A040888938A041040474A040974810A040265518A038944854A037569555A036582054
1379A035963351A035509126A035136948A034880669A034667295A034246922A033484078
1372A032550064A031652132A030763508A029781234A028732213A027665596A026601849
1365A025699837A025206660A025148264A025279846A025368523A025345701A025223681
1358A025078648A025071572A025266968A025514768A025710738A025999020A026480403
1351A026935521A027102229A027088459A027321596A028094640A029171967A029944691
1344A030114014A030059634A030364364A031200712A032217985A032814630A032646519
1337A032037889A031642314A031716520A031998108A032072569A031672150A030958522
1330A030481283A030511883A030739793A030925882A031284991A031929066A032510156
1323A032669533A032493517A032273385A032022716A031683370A031766182A032999125
1316A035125154A036895135A037532261A037431280A037250801A037138536A037131204
1309A037632733A038892897A040369304A041317790A041686589A041633995A040882882
1302A039637444A039165751A040294333A042228345A043657449A044135453A043999982
1295A043760853A043808985A044227063A044666052A044570872A043773730A042878349
1288A042714573A043458482A044725340A046172869A047474216A048135313A047950945
1281A047335430A046862207A046677776A046479064A045946043A045066918A044156618
1274A043824285A044639978A046362528A047961528A048851618A049350724A049675726
1267A049534645A049130337A049656792A052122932A055832152A058405394A058027351
1260A055608450A053334837A052000594A051151815A050246871A048898603A046980274
1253A044659039A042095615A039700685A038534808A039295994A041089626A042312942
1246A042462119A042194365A042084905A042184866A042427184A042740966A042808032
1239A042219738A041161919A040643306A041516247A043395751A045112882A046051296
1232A046424621A046470840A046030640A044865975A043108681A041423298A040599126
1225A040797583A041412970A041775904A041720314A041519116A041602693A042185440
1218A042958165A043344878A043157068A042753461A042522938A042494250A042504195
1211A042463777A042275202A041738419A040868410A040113599A039951035A040425724
1204A041281899A042269783A043173388A043879876A044618048A045766775A047143094
1197A047828288A047206845A046085785A046115174A047875783A050133394A051285245
1190A051122107A050727297A050841667A051040824A050601708A049323120A047417924
1183A045684409A045607908A047764410A050474908A051679481A051625102A052148815
1176A053958704A056312706A058782799A061571774A064134688A065067300A063976522
1169A062498585A062780109A065130286A067569077A067874890A065869414A063262257
1162A061445101A060224016A058956074A058163586A058990436A061337553A063713486
1155A065066599A065512537A064909198A062697105A059714009A058071594A058800075
1148A061042386A063498518A065452356A066609498A066990283A066798329A066007052
1141A064775767A064330595A066111859A069702183A072766817A073554265A072445257
1134A070732907A069146657A068218380A068638499A069976312A070311131A068450306
1127A065702450A064526565A065851118A068549502A071123953A072764649A073231178
1120A072711863A071781224A071131985A071001809A070724107A069442780A067489006
1113A066247776A066457389A067308655A067365712A066032361A064080627A062576871
1106A061528806A060228670A058232119A055602075A052993515A051616176A052309786
1099A054597105A056981262A058067386A057686220A057198716A057970804A059457092
1092A060250090A060459129A061400093A063244980A064696716A064709148A063512415
1085A062245685A061703228A061662173A061379820A060123544A057571468A054458192
1078A052333374A052222129A054037436A057058146A060210118A062406847A063401106
1071A064093569A065537081A067667572A069604771A070785690A071266375A071329998
1064A071266245A071342621A071483893A071175973A069931176A067489899A063780297
1057A059723380A057865551A059939687A064344939A068388978A070739917A071486571
1050A071457628A071490393A071965213A072771152A073517420A073741823A072989052
1043A070959730A067877759A064491693A061716106A060736764A062332322A065272004
1036A067489899A068259563A068384579A068887382A069552687A069022853A066380696
1029A062810390A060891488A061129151A062046846A063158598A064880574A066846779
1022A068252806A068856527A068865133A068364115A067053587A064678802A061878671
1015A060066169A059873768A060520203A060812564A059733899A056785674A052691399
1008A049066905A046606885A044361833A040867454A034960932A026456369A017452445
1001A010935827A006490667A001223630I93486628I84094653I74900560I66778566
994I60107033I55488089I52557905I49924546I46717684I43505913I42288462
987I44364957I48348815I52319859I55267574I56418724I55503963I53789892
980I53155188I53519779I53766431I53828971I53628347I52014493I47964206
973I42301531I38290132I38209360I40454603I42603455I43923227I44463580
966I44133987I43187733I41649423I38220771I31684964I24181609I20546469
959I20692522I20968181I18777190I12294487H99829781H80928783H58053234
952H33839746H06589609G72344787G34096280G02013251F77311748F53966164
945F28358315F00142034E70528779E41542578E16968387E00538119D91672439
938D87169138D85968773D90703999E04695954E28682521E57125979E83792730
931F09421808F36450219F62537028F83857373G02060235G22956573G46477089
924G66742165G83035369G96927904H09405296H21647766H33697198H43245810
917H49373867H55172841H64383955H75564399H85224319H92907516I00166258
910I08146597I15709496I20647896I21816706I18954672I12231947I05747141
903I05351502I06168853I02849598H95881687H90254394H88489960H86749369
896H81674669H72401206H58613031H37862237H06718896G71183437G42503622
889G20212606G00147261F82455236F69475359F60892063F53561027F45067621
882F35303531F24225981F08550142E82592301E46582534E11576048D83096093
875D57292688D31962028D09380180C92998522C83545760C78402910C74133289
868C69246271C65195124C65169910C71787319C85574251D04870153D26507181
861D47018814D64031892D76858289D86254313D93977130E01975670E11281423
854E21666701E32383070E43413795E57101753E77917255F04512478F27641883
847F44664524F60403731F79006503F98660654G15562806G29533946G40888876
840G48491108G52358748G57717140G73178521G92764140H08355765H21022880
833H31765163H40976214H49582778H57262468H62268126H63838885H63103263
826H62153056H64670452H75830559H91428239I02416155I07730750I10647036
819I14708479I19882694I23472635I24565581I24376368I24228339I23717248
812I21948925I19837431I18472333I16809836I14956151I15066695I16773371
805I16469725I11363532I00457982H81764366H52340898H18588424G88541535
798G57406801G21323338F83119010F48019161F15239143E78299059E37120879
791D98832272D73411915D75833589E15600133E77388122F37616733F86575011
784G23724452G49873355G64718584G67976256G60413357G42372296G11363916
777F64619962F11514559E69518009E40917182E16575872D89906348D63348451
770D45088628D36702100D33360914D33203800D41912493D63719991D88777829
763E10648727E31707343E55456151E84883891F20463530F56927394F87304258
756G08792650G21262010G24754858G18333803F99152811F69659025F45955480
749F39836603F46339834F52089593F43212852F17073065E84819375E60901117
742E54509068E64276409E81304086E96093086F02514843F03964603F10138305
735F27363993F55755397F89932134G22746003G50208813G72984591G93535909
728H12262867H27742481H39928085H50326688H60003502H68926845H76985917
721H83877581H88026937H87191609H79261824H62483923H37604492H09558936
714G84199524G65913977G58034747G60639418G68379098G73439390G69906314
707G55620883G32614772G04490675F73669213F43635202F20197434F07864246
700F08682361F23358268F48261924F75754059G00929868G23080441G42796558
693G60521543G76400684G90495309H03017008H14155121H23848448H31912555
686H38081349H42031355H44035620H45654893H48748279H53181581H56802824
679H57478201H53915545H45374071H31572954H13242527G93004991G75361990
672G64746698G62537347G65635258G68169867G65273217G56549351G46432910
665G40985139G43886635G54089841G66954392G77846172G84194041G85101918
658G80324935G69547397G52800797G32507989G14837958G07289722G13573140
651G30784292G51843450G69917726G79963212G78383401G65540461G49681656
644G44172621G57436891G86441516H20696220H51213782H74961060H92969928
637I07069207I18492860I27849646I35325970I40787192I43899129I44376496
630I42142536I37121833I28941444I17025569I00929612H80397610H55155692
623H24715779G88131362G43762384F89607259F24692001E51253181D76357430
616D11061260C66530036C49253603C58748472C88901825D30827134D74819822
609E11229370E31775397E32651972E18167414E00632056D93952777E05288869
602E32234371E67044856F02384983F33729840F58790387F76276944F84589616
595F80422793F58794467F16482923E57687433D96175517D49529421D29311265
588D35563445D59359907D89625525E17923216E38632285E47511704E43080760
581E30028909E18803871E19424199E35494593E64112696E99804919F37502109
574F73455456G05508649G32844275G55023090G70876986G77679654G72100748
567G54434733G31725256G12427345F96170479F72790661F34425171E86364315
560E43368787E15747780E00957058D89626704D77762436D69628362D68918400
553D71294141D67286759D50145828D20191570C83918352C49898188C24494884
546C10495024C08521870C18234385C38198876C65855169C98287330D33071007
539D68541377E03551752E37275156E69280664E99452249F27584507F53109543
532F75044766F91830827G01009429F98827936F80393149F41987304E85315612
525E19049408D53983824C96571665C49004273C14467471B98164100C02111971
518C21868761C49672829C79238398D07300051D32724298D55576450D76542435
511D96422870E15834896E35182532E54702297E74411019E94031509F13107950
504F31281295F48484670F64907160F80734280F95873846G09995566G22821102
497G34236787G44124107G52168133G57786501G60315691G59521737G56026466
490G51135177G46046261G40761501G33160990G18813656F91948575F48121481
483E88768808E24565774D71584622D40220162D27972560D25472759D28215706
476D38838552D59056229D83867383E04541135E15026183E15455291E11239889
469E08806230E10887123E15093217E16293743E09789938D93195544D67615395
462D38423119D14049169D02122935D05626749D22324675D47311590D75875537
455E04844748E32598676E58569108E82739119F05232481F25759446F42470919
448F50761470F44812745F23408440E94700575E72299142E64927688E71090744
441E83775900E97668308F11113248F24027971F36299384F47662920F57815189
434F66359342F72872199F77113356F79172446F79421967F78352418F76488278
427F74371110F72486569F71219074F70837843F71261149F71889542F72245463
420F72978535F75716446F81599890F90248084G00249008G10224751G19225232
413G26415825G30288629G27630662G14413632F90843326F66196777F54724991
406F63731848F87322108G13147985G32746609G43933747G46340790G38790132
399G22407104G04369994F94898458F98890731G12332037G27702063G40712349
392G51269373G60698069G69767146G78416296G86298459G93346250G99749073
385H05617344H10955591H15787336H20127753H23944010H27175416H29732402
378H31356074H31056636H26255809H12867608G88061554G55106604G25181798
371G11359453G18718412G40931142G66727312G88327396H03915832H14946971
364H23193152H29579272H34008175H35419047H32298057H24197293H13726843
357H06611093H08117209H18656892H33583212H47440493H57677614H64647693
350H69634608H73477194H76317807H77944730H78049856H75905721H70006148
343H59116536H44895110H32986376H29290098H34229901H41869555H44532176
336H37160339H19163584G95293203G73713073G59375620G47627028G25373051
329F81393464F18545966E54493767E06411873D76576988D56976483D43709791
322D39754270D46568286D60549116D77356375D95148936E13819506E33651490
315E54744946E76707135E98684880F19640888F38634580F55049229F68546699
308F78917761F86518591F93049872G01281454G13283328G28830518G45817267
301G62097274G76631908G89346581H00717130H11503593H22268700H32963617
294H43171349H52678331H61527914H69602477H76550817H82128639H86134810
287H87613831H83602241H68037265H33476110G78418464G15350451F67711435
280F53471075F71110251G02788589G28422703G35419685G20684490F88361503
273F43100076E83799169E08953208D29740787C70117204C48623712C64050253
266D01094219D44572628D85922713E21846670E52090294E78233141F02133039
259F24364831F44211191F61042771F75066314F86652532F94847903F95365433
252F81165427F50241262F14560833E95153270F03996797F34245585F69737120
245F99510326G21795095G38935739G52819413G64067560G72728121G78853309
238G82602946G84080310G83376181G80829715G77147143G73190634G69561996
231G66306938G62894734G58409029G51929195G43034604G32208551G20909658
224G11140851G04640362G02235678G03817911G08838806G16844773G27633977
217G40964102G56004344G71211869G85060098G96686160H05934314H13158886
210H18106467H18448937H13426193H08672607H08551097H12794486H19384099
203H26133408H31806601H36035709H38625654H39588357H39080580H36671242
196H30762043H18899464G99159122G72433464G44431131G24617667G20697177
189G32963745G54520478G77053748G95865750H10060655H20353304H27897395
182H33955645H39373516H44357626H48930351H53220278H57037937H59436565
175H58979280H54495169H45928066H35061404H25332569H20261311H21528616
168H28130596H37254754H46085913H52798183H56284529H55555792H49548480
161H38140063H24421122H14979229H15460103H25710420H40383267H53824381
154H63600010H70063779H74302513H77127189H79003059H80139292H80682067
147H80955240H81412270H82092110H82012612H79475963H73380356H63562652
140H49420150H29725963H05624676G83336337G71510096G74984266G91359134
133H13150343H32993707H47122184H54734298H55265853H46871452H27564042
126G98431851G66501633G43227004G37546033G49562378G71678399G95351535
119H15672648H31163100H42200104H49864302H54903493H57349679H56949451
112H53249667H44585153H26819304G94627962G47695050F95887298F53657992
105F30998305F30990463F50212064F80255766G12315079G41277820G65359727
98G84153496G98318630H09638560H19728864H28830836H36446393H42589558
91H47910974H52773448H56372888H56732953H51383678H38490120H18774321
84G97657979G83445287G80109967G82846475G81364712G66987606G38120620
77F99748372F58939501F22681743E97481645E87072715E91185350F07032169
70F29712194F53705869F76558723F97970742G16724730G31846000G44429282
63G55568161G64457907G70022405G72497470G72366653G70073661G68034269
56G70275496G78220135G88851619G98817991H07675542H16606153H26192441
49H36049671H45552509H54325081H62013122H67799219H70715823H71001045
42H70548668H71355181H73678137H76279811H78261700H79371539H78728102
35H74858357H67451840H59818433H57784397H60125713H59663646H52055485
28H38334759H24392880H16566117H17529393H25834161H36952001H45827276
21H50611080H54121014H60743013H70156281H76632673H80650128H88584566
14I01017333I11217989I11996324I02945352H90898469H83265636H79616152
7H72170874H57052345H37125468H16599905G99775784G94302960H04474354
##END=


$$ === CHEMSPECTRA PEAK TABLE EDIT ===
##TITLE=X9283
##JCAMP-DX=5.00
##DATA TYPE=INFRAREDPEAKTABLE
##DATA CLASS=PEAKTABLE
##$CSTHRESHOLD=0.93
##MAXX=3997.453
##MAXY=1.0039072010203052
##MINX=373.96442
##MINY=0.278771936292304
##$CSSOLVENTNAME=- - -
##$CSSOLVENTVALUE=0
##$CSSOLVENTX=0
##NPOINTS=42
##PEAKTABLE= (XY..XY)
375.380951892103, 0.7426426392778624
409.37771730257964, 0.7634578326055286
475.95471623143067, 0.5488903510011096
519.8672048866297, 0.5899517519127467
546.7813108365908, 0.6895771010799675
565.1962254339323, 0.7213321903306983
597.7764589523063, 0.7619741535159298
613.3583097654414, 0.7669126965088479
641.6889476075057, 0.6738240704118549
664.3534578811568, 0.7559640979646998
687.0179681548084, 0.6565632807222563
725.2643292415946, 0.5564453583399088
752.1784351915558, 0.3259497277896653
769.1768178967941, 0.610970257280348
828.6711573651287, 0.4111532855253488
878.2497735887409, 0.7541502690312539
898.0812200781857, 0.6650936585344923
934.9110492728691, 0.6497032629454595
949.0763681939011, 0.6121426203893471
1000.0715163096165, 0.5281856046683507
1024.1525584753713, 0.37596943836462643
1049.6501325332288, 0.397800623435413
1109.1444720015634, 0.278771936292304
1144.5577693041437, 0.2884560518466928
1194.136385527756, 0.48506161430773426
1206.8851725566847, 0.40138947853262164
1228.1331509382326, 0.4618267996759189
1242.298469859265, 0.3265386515860683
1284.7944266223608, 0.6957727053387343
1297.54321365129, 0.6612886169783198
1314.5415963565283, 0.6927925325780402
1323.0407877091475, 0.7129430160048997
1365.5367444722438, 0.5683296307646742
1381.118595285379, 0.7087332586251557
1423.6145520484752, 0.5184445967103379
1459.0278493510555, 0.40502884866147204
1491.608082869429, 0.44262188576155764
1599.2645066692726, 0.3414197848982704
1699.8382710086003, 0.45436206379911315
2835.896848475381, 0.8131744838443666
2918.0556982173575, 0.7954411487486476
2937.8871447068022, 0.7908592795206679
##END=


$$ === CHEMSPECTRA PEAK TABLE AUTO ===
##TITLE=X9283
##JCAMP-DX=5.00
##DATA TYPE=INFRAREDPEAKTABLE
##DATA CLASS=PEAKTABLE
##$CSTHRESHOLD=0.93
##MAXX=3997.453
##MAXY=1.0039072010203052
##MINX=373.96442
##MINY=0.278771936292304
##NPOINTS=138
##PEAKTABLE= (XY..XY)
3993.2034043236904, 0.9239076349198159
3973.3719578342457, 0.9244030092794169
3960.6231708053165, 0.9250378583817527
3949.290915668491, 0.9205923654342957
3942.208256207975, 0.9212998124225247
3930.8760010711494, 0.9203086467105205
3923.7933416106334, 0.9199688405849211
3918.1272140422207, 0.9198387238712392
3901.128831336982, 0.9088979939625701
3891.2131080922595, 0.9177946419839647
3881.297384847537, 0.9136313175942155
3869.9651297107116, 0.9092004278094898
3864.299002142299, 0.9116069054257155
3852.966747005473, 0.9049106816736695
3838.801428084441, 0.9063090661010199
3820.3865134870994, 0.9068572498876364
3800.555066997654, 0.9114778611128054
3779.3070886161063, 0.9223658414319911
3767.9748334792807, 0.9211161111987934
3758.0591102345584, 0.9184576250109916
3749.5599188819388, 0.9022149419472908
3735.394599960907, 0.903420088544222
3724.0623448240813, 0.9180585124113302
3711.3135577951525, 0.9128431656694471
3701.39783455043, 0.9243116953354178
3688.649047521501, 0.9129188040499431
3674.483728600469, 0.9067055561338422
3648.9861545426115, 0.9027708148567898
3629.1547080531664, 0.9119936802742148
3617.822452916341, 0.914986309526174
3609.3232615637216, 0.9165175529091099
3599.4075383189993, 0.9221554966121042
3595.1579426426897, 0.9222585536717897
3586.6587512900705, 0.9154198146824059
3578.159559937451, 0.9238526199187634
3566.8273048006254, 0.9085513326996927
3545.5793264190775, 0.9149951907248925
3525.7478799296323, 0.9145792693884628
3510.166029116497, 0.9152274706751232
3501.666837763878, 0.9123684735918604
3496.000710195465, 0.9143486592793639
3480.41885938233, 0.9098472575077178
3463.4204766770913, 0.9069095824843175
3446.422093971853, 0.9026265119731788
3432.256775050821, 0.9010685660915165
3419.507988021892, 0.8963405464961204
3409.5922647771695, 0.8952929951295927
3394.0104139640343, 0.8878038502144728
3365.6797761219705, 0.8907112455766774
3348.6813934167317, 0.8921892027022632
3337.349138279906, 0.8915082188626321
3310.435032329945, 0.8979604223536454
3301.935840977326, 0.8974755980989333
3275.021735027365, 0.9049614052017124
3253.7737566458172, 0.909834858984062
3246.691097185301, 0.9100059840414637
3232.525778264269, 0.9116189458591399
3219.77699123534, 0.9138303372261796
3199.945544745895, 0.917490658905939
3180.1140982564502, 0.9200894216268766
3153.1999923064895, 0.9238324144670835
3137.618141493354, 0.9242842766562284
3129.118950140735, 0.92577731377488
3114.953631219703, 0.9212107629551334
3092.2891209460513, 0.9054846741358757
3073.87420634871, 0.9013795230469233
3058.2923555355746, 0.898674426226453
3045.543568506646, 0.901116607215188
3031.3782495856135, 0.9001936890134967
2997.381484175137, 0.8397318101730163
2973.300442009382, 0.8295888286333357
2961.9681868725565, 0.8329604837733794
2937.8871447068022, 0.7908592795206679
2918.0556982173575, 0.7954411487486476
2834.480316583268, 0.8097022156338416
2748.0718711649724, 0.9250966880254804
2726.8238927834245, 0.9275385716964775
2706.99244629398, 0.9296922067555227
2680.0783403440187, 0.9284425354248957
2663.07995763878, 0.9292772979823324
2640.415447365129, 0.9305208892587149
2627.6666603362, 0.9328771211121937
2609.2517457388585, 0.9324969620508439
1772.0813975058636, 0.8810033773269054
1760.749142369038, 0.8911633471159508
1748.0003553401093, 0.8771895742470784
1732.4185045269742, 0.8606754522431554
1699.8382710086003, 0.45436206379911315
1651.6761866770912, 0.846468744016083
1599.2645066692726, 0.3414197848982704
1542.6032309851444, 0.8060798627381607
1517.1056569272869, 0.8554487204758174
1491.608082869429, 0.44262188576155764
1459.0278493510555, 0.40502884866147204
1433.5302752931975, 0.5982225517055884
1423.6145520484752, 0.5184445967103379
1381.118595285379, 0.7087332586251557
1365.5367444722438, 0.5683296307646742
1323.0407877091475, 0.7129430160048997
1314.5415963565283, 0.6927925325780402
1297.54321365129, 0.6612886169783198
1284.7944266223608, 0.6957727053387343
1242.298469859265, 0.3265386515860683
1228.1331509382326, 0.4618267996759189
1206.8851725566847, 0.40138947853262164
1194.136385527756, 0.48506161430773426
1157.3065563330724, 0.43842062250649605
1144.5577693041437, 0.2884560518466928
1109.1444720015634, 0.278771936292304
1049.6501325332288, 0.397800623435413
1036.9013455043, 0.47571420548177124
1024.1525584753713, 0.37596943836462643
1000.0715163096165, 0.5281856046683507
973.1574103596558, 0.627207515697774
949.0763681939011, 0.6121426203893471
934.9110492728691, 0.6497032629454595
898.0812200781857, 0.6650936585344923
878.2497735887409, 0.7541502690312539
854.1687314229866, 0.7753542642038211
828.6711573651287, 0.4111532855253488
769.1768178967941, 0.610970257280348
752.1784351915558, 0.3259497277896653
725.2643292415946, 0.5564453583399088
687.0179681548084, 0.6565632807222563
664.3534578811568, 0.7559640979646998
641.6889476075057, 0.6738240704118549
613.3583097654414, 0.7669126965088479
597.7764589523063, 0.7619741535159298
565.1962254339323, 0.7213321903306983
546.7813108365908, 0.6895771010799675
519.8672048866297, 0.5899517519127467
488.7035032603594, 0.7293727381046725
475.95471623143067, 0.5488903510011096
453.2902059577791, 0.7180824261135874
432.0422275762312, 0.813929436223362
417.87690865519926, 0.8019953350286517
409.37771730257964, 0.7634578326055286
375.380951892103, 0.7426426392778624
##END=

##END=

