##TITLE=J. Busch JMB052
##JCAMP-DX=4.24
##DATA TYPE=INFRARED SPECTRUM
##DATE=15/8/2018
##SAMPLING PROCEDURE=Diamant-ATR 
##ORIGIN=Angelika Moesle
##XUNITS=1/CM
##YUNITS=TRANSMITTANCE
##RESOLUTION=4
##FIRSTX=3997.453
##LASTX=373.96442
##DELTAX=-1.4165319
##MAXY=0.96870506
##MINY=0.57753605
##XFACTOR=1
##YFACTOR=9.0217689e-010
##NPOINTS=2559
##FIRSTY=0.93991089
##XYDATA=(X++(Y..Y))
3997+1041825500+1041692241+1041087657+1040265974+1039467019+1038744702
3989+1038170443+1037928635+1038020403+1038184581+1038300199+1038537712
3980+1038985452+1039475211+1039831646+1039976598+1039884830+1039703607
3972+1039694886+1039874326+1039995956+1039974088+1040005272+1040220520
3963+1040464441+1040420771+1039912579+1039180352+1038770733+1038979837
3955+1039512143+1039839310+1039779981+1039609791+1039700634+1040062486
3946+1040319489+1040261548+1040104968+1040075568+1040022581+1039736377
3938+1039337064+1039146988+1039406303+1040065129+1040695017+1040815458
3929+1040448255+1039997806+1039761284+1039810901+1040000317+1040144938
3921+1040384500+1041031301+1042002891+1042762602+1042971376+1042713316
3912+1042062220+1040990934+1039665288+1038565659+1038270337+1039046036
3904+1040383310+1041274232+1041462987+1041485582+1041491132+1041119766
3895+1040222700+1039196604+1038818632+1039426321+1040071405+1039850343
3887+1039202617+1039004546+1039239218+1039350542+1039570679+1040213054
3878+1040554756+1040088451+1039449115+1039349419+1039687685+1040085412
3870+1040593802+1041103711+1041344660+1041645003+1042407423+1043196402
3861+1043207699+1042264651+1040525290+1038284079+1036522321+1037297756
3853+1041354834+1044453272+1044348951+1042895200+1041366924+1040030575
3844+1038968936+1038350807+1038220258+1038586008+1039660927+1041193629
3836+1042123464+1042099482+1041889915+1042053301+1042205322+1041840629
3827+1041184248+1040636019+1040058456+1039410135+1039481950+1040605099
3819+1041270928+1040769872+1040344595+1040904848+1041699046+1041780706
3810+1041002430+1039810042+1039063346+1039117654+1039096446+1038577221
3802+1038643553+1040109130+1041752297+1042500512+1042619500+1042447922
3793+1042011282+1041388661+1040759103+1040279188+1040091358+1040315987
3785+1040879015+1041429689+1041726134+1041927178+1042213713+1042362299
3776+1042147315+1041774165+1041529913+1041478380+1041501504+1041430812
3768+1041307001+1041446668+1041869434+1042042862+1041668589+1041203936
3759+1041290550+1041904582+1042369830+1042199112+1041299469+1039941649
3751+1039058721+1039434910+1040290485+1040951293+1041761810+1042637867
3742+1042499455+1041217215+1039789297+1039208563+1040013993+1041802904
3734+1043309774+1043772379+1043347631+1042408942+1041379609+1040730429
3725+1040753421+1041326689+1042094461+1042734259+1042996944+1042844724
3717+1042434511+1041868708+1041238885+1040921563+1041317902+1041907357
3708+1041856221+1041283019+1040650488+1040231487+1040250647+1040782953
3700+1041439202+1041809908+1041913766+1041815589+1041327614+1040315327
3691+1039242852+1039278264+1040899430+1042419579+1042445742+1041527601
3683+1040779518+1040788701+1041279187+1041604966+1041808917+1042691579
3674+1043867979+1043789292+1042699706+1042034471+1042318232+1042572195
3666+1042271984+1041852521+1041723557+1041859392+1041921892+1041731419
3657+1041582305+1041756723+1041789889+1041128354+1040068168+1039583298
3649+1040459090+1041839968+1042369566+1042116858+1041732014+1041717743
3640+1042170042+1042685898+1042778723+1042425922+1041959022+1041436494
3632+1040586402+1039651810+1039786390+1041245030+1042359326+1042673675
3623+1042904185+1043383902+1044012535+1044500047+1044328470+1043329462
3615+1042081842+1041190326+1040694819+1040432795+1040633773+1041495162
3606+1042483004+1042871944+1042615800+1042250380+1042326556+1042768680
3598+1042955189+1042741659+1042778128+1043425062+1044029910+1043988288
3589+1043595384+1043441843+1043383505+1042845715+1042089440+1041688872
3581+1041644673+1041596906+1041519276+1041777799+1042432396+1042908678
3572+1042532753+1041237234+1039736971+1039245759+1040421497+1041955653
3564+1042227851+1041472897+1040729571+1040655443+1041307001+1042288369
3555+1042991394+1042994499+1042453009+1041871945+1041438079+1041067969
3547+1040939401+1041333560+1041979966+1042225671+1041856353+1041213053
3538+1040778527+1040808786+1041151478+1041410992+1041407490+1041397910
3530+1041809709+1042735514+1043723423+1044242252+1044225867+1043918653
3521+1043460144+1042927176+1042513593+1042302309+1042079133+1041728909
3513+1041585014+1042014981+1042849349+1043497670+1043555743+1043114016
3504+1042586003+1042336929+1042285660+1042059643+1041646456+1041447791
3496+1041668325+1041969659+1041878420+1041367255+1040814203+1040495229
3488+1040333826+1040211138+1040224616+1040471312+1040820876+1041012934
3479+1040870955+1040500712+1040360319+1040889124+1041914228+1042741262
3471+1042894077+1042446865+1041727786+1041000910+1040411389+1040118842
3462+1040363886+1041207503+1042246218+1042869235+1042855890+1042596376
3454+1042655044+1043083096+1043323186+1042975472+1042410330+1042260422
3445+1042487034+1042547618+1042272579+1042003684+1042027798+1042231551
3437+1042337920+1042268681+1042179291+1042210938+1042351464+1042502428
3428+1042547420+1042410132+1042164294+1042021588+1042118972+1042316580
3420+1042239413+1041677508+1040981156+1040828738+1041472963+1042376701
3411+1042768482+1042459748+1041954067+1041809445+1042066580+1042376107
3403+1042529251+1042640972+1042870292+1043162311+1043257514+1042935831
3394+1042321997+1041859458+1041846443+1042126041+1042333427+1042290087
3386+1042070875+1041846575+1041747936+1041805547+1041925856+1041940589
3377+1041795769+1041670835+1041748002+1041935502+1042033018+1042077812
3369+1042278855+1042663236+1042978379+1042964042+1042686228+1042556075
3360+1042922221+1043638394+1044159667+1044110975+1043635487+1043095451
3352+1042602256+1042107344+1041806274+1041998861+1042544579+1042898833
3343+1042759695+1042337854+1041996747+1041902468+1042013396+1042197856
3335+1042315589+1042288567+1042173940+1042126834+1042222301+1042391170
3326+1042577283+1042789227+1042964637+1043021851+1043016434+1043007911
3318+1042961598+1042992715+1043337192+1043810632+1043778193+1043027071
3309+1042247275+1042253750+1043014121+1043772511+1043937812+1043584615
3301+1043178960+1043031101+1043061756+1042987430+1042665813+1042268681
3292+1042126305+1042383044+1042851265+1043259430+1043537641+1043721375
3284+1043726264+1043508769+1043318693+1043412575+1043634364+1043697326
3275+1043713975+1043952347+1044242053+1044196467+1043876237+1043677638
3267+1043672353+1043557461+1043213249+1042888263+1042839637+1043091487
3258+1043496415+1043855096+1044028787+1043994498+1043771850+1043403986
3250+1043034734+1042833823+1042827679+1042948252+1043140443+1043331246
3241+1043437681+1043463777+1043470252+1043505202+1043586597+1043645727
3233+1043579594+1043448714+1043399295+1043395397+1043352784+1043376106
3224+1043514848+1043612628+1043684245+1043949308+1044293322+1044300920
3216+1043951819+1043742715+1044054818+1044719590+1045156693+1044856812
3207+1043894274+1042924534+1042528260+1042707832+1043095781+1043403524
3199+1043534139+1043509826+1043453603+1043484126+1043541076+1043420437
3190+1043037840+1042588250+1042398372+1042622605+1043101265+1043535064
3182+1043796097+1043976264+1044185103+1044447986+1044774228+1045132314
3173+1045360776+1045245488+1044716749+1043971110+1043387073+1043205057
3165+1043280506+1043294182+1043136412+1042916275+1042759365+1042768020
3156+1042975075+1043254475+1043444816+1043514715+1043486637+1043386478
3148+1043318363+1043341222+1043308915+1043094922+1042844658+1042773239
3139+1042855823+1042898900+1042810171+1042686162+1042663567+1042725538
3131+1042715496+1042553895+1042362365+1042353380+1042587721+1042821138
3122+1042702877+1042224217+1041771324+1041632516+1041715035+1041827878
3114+1041937022+1042068034+1042235581+1042502164+1042888461+1043267424
3105+1043505268+1043583095+1043469195+1043060567+1042401411+1041775288
3097+1041419911+1041248069+1040979438+1040472568+1039819424+1039190724
3088+1038713386+1038436959+1038306146+1038186563+1037960348+1037591030
3080+1037101734+1036516375+1035818173+1035018094+1034282828+1033836872
3071+1033634375+1033356032+1032851606+1032296044+1031799546+1031216962
3063+1030461942+1029657503+1028899377+1028198400+1027672568+1027499273
3054+1027669331+1028024907+1028485794+1029015524+1029444303+1029590246
3046+1029526689+1029522064+1029754226+1030180692+1030574917+1030676067
3037+1030481233+1030358282+1030677190+1031416222+1032250986+1032887150
3029+1033277610+1033685974+1034463589+1035622745+1036791811+1037669452
3020+1038234859+1038497874+1038429296+1038181278+1038037449+1038105366
3012+1038278331+1038466293+1038666412+1038854176+1038988954+1039110981
3003+1039306937+1039582373+1039852061+1040022780+1040010293+1039724881
2995+1039163703+1038546433+1038229507+1038372081+1038750252+1039019279
2986+1039104242+1039191781+1039411192+1039697925+1039924339+1040047158
2978+1040126175+1040203408+1040153924+1039771194+1039055947+1038277010
2969+1037684251+1037289498+1036948193+1036525690+1035961804+1035304431
2961+1034746755+1034527344+1034687228+1034983144+1035154854+1035231162
2952+1035422031+1035775823+1036147586+1036493846+1036963388+1037619373
2944+1038229111+1038452353+1038197597+1037707111+1037266903+1036913309
2935+1036481227+1035876642+1035211144+1034702225+1034509638+1034633052
2927+1034913707+1035158818+1035308065+1035479907+1035819560+1036306412
2918+1036774501+1037161723+1037608009+1038201825+1038777604+1039103119
2910+1039160465+1039147847+1039262738+1039522648+1039779915+1039939733
2901+1040095586+1040350739+1040639190+1040854570+1041001967+1041115075
2893+1041167004+1041131327+1041032887+1040929755+1040888397+1040910067
2884+1040891370+1040758046+1040606817+1040587129+1040692903+1040819224
2876+1040984591+1041308124+1041741263+1042019144+1041954662+1041633970
2867+1041272316+1041018022+1040938807+1041050130+1041296629+1041570082
2859+1041765642+1041811625+1041713977+1041603380+1041623135+1041728843
2850+1041729834+1041585938+1041497738+1041638198+1041943893+1042220914
2842+1042318958+1042222566+1042076688+1042070412+1042245755+1042501569
2833+1042764914+1043032554+1043279911+1043433651+1043434377+1043319486
2825+1043237760+1043317570+1043529713+1043745952+1043882712+1043918388
2816+1043859720+1043743309+1043616922+1043520662+1043531761+1043774691
2808+1044310830+1045000707+1045552702+1045782683+1045787903+1045769073
2799+1045764251+1045695937+1045605754+1045658807+1045903719+1046148566
2791+1046156163+1045925125+1045668981+1045541140+1045514845+1045506257
2782+1045477385+1045441510+1045457367+1045548870+1045624253+1045586793
2774+1045508305+1045563207+1045791470+1046018346+1046059176+1045947456
2765+1045851262+1045828270+1045826420+1045832168+1045810167+1045648302
2757+1045377359+1045248857+1045411648+1045709348+1045926182+1046048804
2748+1046170963+1046258436+1046159533+1045869100+1045617316+1045584216
2740+1045691708+1045789356+1045849808+1045868836+1045776803+1045569814
2731+1045388128+1045355623+1045401539+1045360842+1045239013+1045201090
2723+1045307856+1045487361+1045717409+1045960075+1046020923+1045769140
2714+1045375707+1045142489+1045223884+1045558516+1045915876+1046060828
2706+1045998857+1045938669+1045979565+1046018148+1045958820+1045835604
2697+1045718664+1045618638+1045539356+1045555939+1045724544+1045940387
2689+1046053759+1046097033+1046189065+1046286449+1046279908+1046221636
2680+1046220778+1046241060+1046214831+1046216747+1046353705+1046576617
2672+1046720711+1046685299+1046520923+1046380463+1046424662+1046728375
2663+1047187544+1047525084+1047525877+1047321199+1047308052+1047709082
2655+1048317895+1048725994+1048689723+1048279113+1047812015+1047632906
2646+1047816706+1048121410+1048296423+1048329060+1048326483+1048331769
2638+1048372599+1048542392+1048871541+1049176245+1049218462+1049050188
2629+1049020788+1049322122+1049709080+1049834146+1049699566+1049587714
2621+1049637925+1049686286+1049551839+1049335005+1049282151+1049420695
2612+1049569677+1049661115+1049748258+1049757507+1049614669+1049531292
2604+1049761405+1050126759+1050171222+1049803292+1049455116+1049522505
2595+1049891624+1050164814+1050139642+1049858128+1049436287+1049098417
2587+1049109649+1049386802+1049468792+1049144664+1048821858+1049031623
2578+1049774619+1050514972+1050723085+1050358788+1049851455+1049656292
2570+1049882309+1050300649+1050591610+1050593460+1050381317+1050122266
2561+1049905499+1049795166+1049944743+1050435691+1050994028+1051130920
2553+1050753674+1050375702+1050433643+1050714496+1050853568+1050995085
2544+1051421882+1051931329+1052128210+1051961390+1051561483+1050952009
2536+1050240990+1049720311+1049566638+1049701152+1049997663+1050390501
2527+1050764708+1050923468+1050748125+1050378080+1050151072+1050263585
2519+1050555934+1050746209+1050760611+1050642945+1050302234+1049632177
2510+1048799792+1048209213+1048217208+1048902196+1049939788+1050715751
2502+1050811946+1050414549+1050073773+1050067430+1050145390+1049908207
2493+1049310494+1048719850+1048571726+1049052897+1049985837+1050872596
2485+1051234712+1051076811+1050817958+1050723085+1050720971+1050773362
2476+1050991518+1051337447+1051556527+1051484778+1051227709+1051014113
2468+1050940778+1050849869+1050490329+1049857203+1049281424+1049113480
2459+1049398034+1049883895+1050234449+1050237158+1049978834+1049835335
2451+1050130062+1050758761+1051263716+1051278383+1050841412+1050327935
2442+1050112224+1050243104+1050445799+1050461523+1050284330+1050062409
2434+1049943686+1050023363+1050258432+1050425450+1050349275+1050204917
2425+1050396645+1051028714+1051715486+1052049193+1051997793+1051670032
2417+1051094979+1050476455+1050219320+1050419174+1050708154+1050776666
2408+1050683841+1050582163+1050501560+1050462514+1050531093+1050710070
2400+1050910254+1051045495+1051103106+1051132770+1051191768+1051312738
2391+1051486826+1051647635+1051707888+1051635743+1051463504+1051241980
2383+1051057915+1051037633+1051211655+1051417984+1051489535+1051512593
2374+1051724736+1052204717+1052865194+1053698505+1054733519+1055714425
2366+1056114067+1055715548+1055071917+1055062668+1055892477+1056832552
2357+1057115388+1056714754+1056028642+1055258889+1054388646+1053489731
2349+1052807319+1052647237+1053174589+1054157938+1055069671+1055607924
2340+1055791988+1055658796+1055234179+1054680996+1054235634+1053939849
2332+1053533798+1052726122+1051560161+1050406027+1049662634+1049556794
2323+1050032547+1050717535+1051175384+1051237817+1051021710+1050775146
2315+1050732797+1050890831+1050972688+1050820799+1050653185+1050728635
2306+1050980550+1051169702+1051191834+1051089430+1050889972+1050561550
2298+1050122266+1049735903+1049638453+1049924262+1050457361+1051016293
2289+1051444345+1051647172+1051643803+1051691173+1052066437+1052548070
2281+1052497792+1051777391+1051181264+1051525806+1052634684+1053635872
2272+1054047209+1054156485+1054332819+1054377415+1053916131+1053195400
2264+1052852906+1053033402+1053430270+1053969910+1054716408+1055434628
2255+1055907276+1056248383+1056455703+1056309429+1056092728+1056635737
2247+1058183106+1059797203+1060404628+1060039737+1059448234+1058793835
2238+1057691497+1056411900+1055940111+1056639767+1057744615+1058363470
2230+1058401327+1058411964+1058835325+1059432840+1059570129+1059050837
2221+1058359837+1058118558+1058624834+1059683567+1060621264+1060808235
2213+1060274872+1059554405+1059120407+1059200877+1059817089+1060743687
2204+1061571778+1061859635+1061360890+1060329708+1059344838+1058608581
2196+1057884150+1057202002+1057000827+1057488471+1058364594+1059199622
2187+1059867763+1060620867+1061514035+1061848800+1060968383+1059514698
2179+1058781017+1059120869+1060099594+1061449619+1062656872+1062515818
2170+1060401391+1057386661+1055219116+1054666791+1055219380+1055958875
2162+1056573237+1057840149+1060718185+1064444793+1066726107+1066417901
2153+1064646497+1063211708+1062750622+1062576864+1061878992+1060795748
2145+1060371859+1061339815+1062900794+1063278964+1061897623+1060268925
2136+1060018199+1060869744+1061553015+1061741836+1061867695+1061912885
2128+1061588031+1061121329+1060948497+1060981200+1060815436+1060373180
2119+1059867763+1059354748+1058705238+1057962440+1057419893+1057253535
2111+1057237613+1057016022+1056555069+1056139834+1056027122+1056276329
2102+1056796810+1057409587+1057950019+1058390426+1058818544+1059269719
2094+1059607919+1059615055+1059291654+1059028176+1059246596+1059829246
2085+1060183566+1060003994+1059717063+1059959993+1060790727+1061706027
2077+1062260731+1062303741+1061852433+1061243224+1061130843+1061711445
2068+1062168038+1061437661+1059469838+1057402385+1056499572+1057128601
2060+1058716734+1060343185+1061271765+1061178676+1060194401+1058808700
2051+1057633358+1057158992+1057515295+1058339290+1059164474+1059958144
2043+1060999699+1062380776+1063811007+1064795744+1065200408+1065815827
2034+1067696441+1070595024+1072962292+1073741823+1073205486+1072143120
2026+1071096940+1070128455+1068906006+1067348727+1066044950+1065562062
2017+1065700275+1065905811+1066007556+1066078842+1066219699+1066908255
2009+1068620264+1070505767+1070695777+1068796070+1066490047+1065103949
2000+1064239851+1063104678+1061824619+1060989591+1060715741+1060482984
1992+1059711778+1058668967+1058358119+1059126221+1060107655+1060458209
1983+1060426695+1060718515+1061445787+1062198892+1062759079+1063302485
1975+1063939178+1064337896+1063846221+1061908194+1058754921+1055912033
1966+1055231008+1056812864+1058947706+1060224264+1060564710+1060353294
1958+1059644455+1058538880+1057526196+1056996995+1056910512+1057156680
1949+1057760472+1058555859+1059146635+1059361025+1059272098+1058720632
1941+1057459071+1055795159+1054404040+1053617638+1053240260+1052976650
1932+1052780562+1052759222+1052990326+1053465748+1054063660+1054578723
1924+1054828392+1054801305+1054733784+1054889505+1055206299+1055313394
1915+1055058175+1054720108+1054636664+1054941170+1055518600+1056051105
1907+1056276594+1056257698+1056244485+1056364067+1056552954+1056659654
1898+1056583015+1056417978+1056347682+1056385077+1056552228+1057134019
1890+1058154565+1058881110+1058713496+1058009348+1057418506+1057222021
1881+1057459071+1058049848+1058658660+1058943874+1058970896+1058981334
1873+1058906744+1058487479+1057765228+1057170092+1056942687+1056896506
1864+1056938128+1057150866+1057517211+1057925905+1058319007+1058645447
1856+1058844178+1058937466+1058972019+1058954115+1058918438+1058855145
1847+1058557643+1057817422+1056841273+1056179408+1056049916+1056313856
1839+1056849532+1057437137+1057662824+1057306984+1056645581+1056167582
1830+1056074361+1056085130+1055962971+1055830505+1055703127+1055356470
1822+1054795292+1054314387+1054067624+1053911044+1053719514+1053635608
1813+1053848610+1054284524+1054601913+1054534854+1054153116+1053723808
1805+1053461917+1053425513+1053559895+1053813925+1054108652+1054239334
1796+1054066435+1053802231+1053983454+1054904238+1055974797+1056469577
1788+1056388182+1056088697+1055919961+1056100325+1056650008+1057329843
1779+1057689251+1057444735+1056756971+1056062337+1055861954+1056383557
1771+1057144986+1057581230+1057686806+1057580503+1057288485+1056955372
1762+1056843454+1056989463+1057167977+1057305200+1057418109+1057376685
1754+1057105411+1056758226+1056565375+1056604487+1056737217+1056829183
1745+1056868757+1056918110+1057054738+1057259349+1057334732+1057133028
1737+1056850655+1056941300+1057652187+1058408661+1058671081+1058598737
1728+1058357128+1058080371+1058045025+1058357194+1058649807+1058515954
1720+1058073896+1057917184+1058485497+1059245208+1059572111+1059548326
1711+1059363866+1059090808+1058851974+1058904960+1059338165+1059748643
1703+1059757100+1059487412+1059294230+1059235695+1059133488+1058894257
1694+1058448830+1057932512+1057636661+1057615519+1057525535+1057163749
1686+1056976381+1057380054+1057479090+1056656086+1055651330+1054963501
1677+1054587246+1054391686+1054268470+1054125830+1054035581+1054247064
1669+1054729093+1055025009+1055024217+1055016883+1055235236+1055582223
1660+1055771903+1055694406+1055410844+1055162364+1055639636+1057407142
1652+1058709202+1058598737+1058249900+1058532273+1059311408+1059681056
1643+1059540663+1059302159+1059148155+1059119217+1059401722+1060255448
1635+1061215079+1061485097+1061193343+1060776126+1060516216+1060464684
1626+1060426563+1060212372+1059755052+1058981533+1057803944+1056046216
1618+1053109842+1048073511+1040734658+1031193904+1018901701+1004043366
1609+989320602+979332967+977277341+983085936+994325089+1007456351+1019222393
1599+1028171643+1034637215+1039429294+1043025155+1045601262+1047260483
1591+1048052765+1047920300+1046796226+1044784997+1042255599+1039906765
1582+1038637078+1038927842+1040404716+1042227389+1043425326+1043261743
1574+1042270200+1041646258+1042391633+1044823845+1047410919+1048366983
1565+1047694217+1046177966+1044530240+1043625643+1045465097+1050868500
1557+1054988210+1056748713+1057912163+1058863470+1059474397+1059833672
1548+1060092393+1060350453+1060714948+1061160706+1061523615+1062020245
1540+1063013703+1063752207+1063765816+1063463689+1063307902+1063485558
1531+1063683761+1063626612+1063484435+1063561073+1063903898+1064366767
1523+1064995532+1065774535+1066259207+1066238264+1066003459+1065842188
1514+1065787683+1065729015+1065591330+1065403500+1065342123+1065605336
1506+1065716594+1065166317+1064338821+1063700740+1063598533+1064211508
1497+1065325738+1066239783+1066443403+1066076596+1065414995+1064329571
1489+1062098997+1058281282+1053526266+1048957627+1045740466+1044830583
1480+1046342078+1049416334+1053033799+1056509944+1059500824+1061994346
1472+1063882690+1064890088+1065192480+1065180852+1065024800+1064459262
1463+1062949816+1060324158+1056700748+1052069807+1047028388+1044088843
1455+1044322722+1046203005+1048767220+1051670164+1054808043+1058112546
1446+1061108116+1062980934+1062822437+1059736156+1053636996+1045673011
1438+1037816056+1032980768+1033206455+1037305684+1043279118+1049248192
1429+1052798334+1052799391+1050574367+1048226325+1047277528+1048144467
1421+1050694874+1054931260+1059766482+1063187857+1064960318+1065929001
1412+1066480864+1066517267+1065763568+1063717125+1058901062+1048586129
1404+1031225815+1008124559+980756790+951292036+926938733+917548151+927083421
1394+949489713+973491206+993051174+1008827518+1022492275+1033683727+1041338119
1384+1045985379+1049045761+1051418843+1053360833+1054972552+1056428153
1375+1057819800+1059038285+1059885271+1060327461+1060572440+1060851774
1367+1061180394+1061429006+1061555922+1061612938+1061646699+1061650266
1358+1061556847+1061321250+1060996726+1060617366+1060064645+1059165861
1350+1057805464+1055827202+1052883627+1048459874+1042060964+1033084759
1341+1020240494+1001788942+977704534+950741627+923553166+896764546+870027920
1332+842943450+815193017+786682940+757673722+728757594+701008747+676157823
1322+656375934+643863527+640158325+645059549+656743600+673276946+693026066
1312+714080549+734770404+754442820+772950199+789984601+805346503+819307376
1302+832354930+844855379+857154190+869747596+883009341+896790312+910450973
1292+923104963+933745874+941524275+946168429+948088551+948135525+947346282
1282+946744208+947147815+949072562+952713480+957968496+964551337+972091300
1272+980101201+987963838+995076740+1001060613+1005867029+1009719826+1012924963
1262+1015734619+1018360475+1020980055+1023618992+1026083709+1028115618
1254+1029644487+1030844077+1031912786+1032879354+1033664832+1034241800
1245+1034694627+1035178242+1035790953+1036446079+1036934649+1037181609
1237+1037393026+1037870033+1038675265+1039579730+1040373004+1041125646
1228+1042070346+1043295239+1044628879+1045811819+1046767487+1047670300
1220+1048711591+1049860308+1050902987+1051648692+1052035253+1052111495
1211+1051943684+1051472225+1050436153+1048471898+1045291273+1040796299
1203+1035138073+1028741212+1022173830+1015885716+1010101697+1004935410
1194+1000380447+996108583+991476321+985853706+978859593+970300208+960087481
1184+948308292+935260738+921310304+906746234+891799303+876706626+861677639
1174+846915697+832773931+819791717+808534066+799536652+793417803+790789106
1164+791863365+796252697+803307988+812577732+823812128+836594025+850033360
1154+862732210+873087642+879851311+882510531+881185414+876346294+868685493
1145+858985187+847876319+835767123+822999629+809939323+796872675+783891651
1135+770934411+757972282+745162637+732818966+721282708+710850306+701803606
1125+694491445+689372727+687018937+688109515+693231007+702245731+713589667
1115+724301666+731100284+731959031+727280521+719989369+714333257+713835438
1105+719493135+729557210+741172816+752351186+762535041+771915581+780872891
1095+789981034+799960278+811290141+823903037+837332198+851117066+864997799
1085+878797533+892348721+905577234+918449511+930757968+942110823+952143713
1075+960551672+966817059+969887219+967760174+956938304+932821324+892344757
1065+837600564+776837153+721409227+681253021+661696555+662230315+677391371
1055+699816095+723746038+746486036+767473989+786782372+804454261+820545813
1045+835219290+848686308+861152798+872829252+883916449+894515869+904568316
1035+913904260+922306603+929500834+935335196+940286565+945643588+952658644
1026+961027094+967618194+966179242+948975905+911105307+855906239+797137078
1016+753952796+739858930+753851515+782451179+811056394+833106383+849526688
1006+862923211+874344644+883780746+891228347+897076186+902268371+907947607
996+914483012+921060040+926509029+930398890+933278248+936105213+939520709
986+943477563+947454633+950963416+953782652+955858693+957252059+958174494
976+958918547+959738512+960779010+962034030+963403677+964828689+966236193
966+967302986+967449920+966205669+963595141+960199532+956932093+954744464
956+954402828+956285688+960233292+965591175+971461015+977005010+981693034
946+985392554+988220973+990337646+991946722+993362418+994814914+996181456
936+997136529+997611951+997945064+998508026+999347150+1000262054+1001104812
926+1001883815+1002644913+1003381963+1004061601+1004642269+1005074747
918+1005374099+1005686335+1006185145+1006919222+1007860420+1009013960
909+1010339805+1011644904+1012698417+1013433155+1013980459+1014540976
901+1015218103+1015946630+1016587750+1017077905+1017475764+1017942531
892+1018663791+1019668745+1020758464+1021739171+1022669535+1023734346
884+1024928187+1025980181+1026604190+1026801864+1026908695+1027313491
875+1028137023+1029206856+1030273451+1031154000+1031730307+1031975286
867+1032039569+1032169260+1032415692+1032493718+1032003695+1030714188
858+1028582319+1025639537+1021898196+1017213145+1011295736+1004127866+996254527
849+988304813+980248664+971424083+961253442+949630701+936588894+921881986
839+904972782+885236479+862258703+836536216+810393868+788060383+774258403
829+772174301+782264274+802409403+828841523+857226336+883762974+906143631
819+923875443+937685418+948576592+957352019+964593885+970638209+975569031
809+979451757+982545966+985228772+987793714+990376692+992982596+995518666
799+997829446+999782403+1001396831+1002871922+1004407596+1005993020+1007448225
789+1008669286+1009638761+1010138166+1009820513+1008856059+1008178404
781+1008709257+1010466456+1012560600+1013844293+1013490039+1011118213
772+1006589478+999980210+991942362+983798277+977072069+973103852+972938617
762+976893158+983978972+992041199+998581295+1001510996+999599066+992774020
752+982257383+970221125+958674824+948155346+937824028+927471172+919178633
742+916319162+920902534+932123122+947068930+962293345+975081915+984402069
732+991273956+997728362+1004847276+1011839803+1017098716+1019871837+1020709376
722+1020708385+1020932288+1022308079+1025258327+1029255416+1033036265
714+1035135827+1033919787+1026713135+1008672325+973959361+920994170+858120891
704+802551382+770614380+766694986+779774980+790613565+786469278+771547320
694+761323758+766936463+787602997+815818083+844887752+871348942+894044345
684+913028534+928628147+940928808+950186990+957246773+963169930+968674813
674+973933594+978737434+983010884+987145789+991509685+995518270+998538813
664+1000973866+1003181250+1005222342+1007329633+1009708661+1012000149
656+1013650980+1014762038+1016030073+1017863779+1019908174+1021545329
647+1022638219+1023527488+1024466243+1025334569+1025448800+1023002119
639+1015350238+1001530287+985305741+974515716+975193173+986097165+1000297797
629+1011534637+1018111136+1021602609+1023687504+1024819968+1024888547
620+1024076114+1023006942+1022308409+1021980582+1021183939+1018695702
612+1013449936+1004755508+992343524+976269876+956766660+934373780+910127573
602+885414135+862050260+842756412+830822889+828819324+837634325+855959754
592+879804535+903388349+922532157+937120408+949299834+960339595+969950644
582+977600147+983288367+987343794+990260479+992721232+995378735+998401921
572+1001385533+1003926757+1006181907+1008675562+1011629444+1014738848
564+1017448280+1019227810+1019967899+1020342304+1021337150+1023230713
555+1025399579+1027183602+1028522528+1029646800+1030535475+1030893363
547+1030539769+1029754028+1029183996+1029220334+1029440008+1028861521
538+1026723772+1022810193+1016970545+1008436199+995819273+978265381+956489176
528+931857332+904995047+876445197+847594541+819484569+792481494+768640677
518+753347749+751890629+762935807+778636041+791657961+799827878+805829523
509+814051502+826834654+843114498+860689004+878118490+893454956+903902619
499+908199787+907325581+903237253+898080414+893881621+892197888+893560268
489+897465390+903481438+911979909+923148898+935391882+945857581+953001337
479+957640866+961671980+966563756+972908622+980136878+986128745+989093462
469+989936352+990809501+992538622+994619684+996836450+999432311+1002112673
459+1004340934+1006567676+1009644047+1012918026+1014775186+1014556634
450+1013105922+1011296529+1008886516+1005735026+1003184686+1002923653
442+1004697765+1006536558+1007386518+1007645899+1007319459+1005731128
433+1003318803+1001340739+999518794+996410578+992197118+988808908+987438006
424+987454787+986750243+979925395+957560396+921643350+890751471+871419172
414+859192309+851198197+847928116+850709562+858904716+869764971+880956754
404+891422057+899757539+904749011+907998215+912815334+917416545+917662052
394+916017299+916482812+919484196+923676514+928190449+932050580+933872261
384+934557911+937381837+942875753+948623104+953189761+958157581+966986060
374+979625581
##END=
