##TITLE=X8162
##JCAMP-DX=4.24
##DATA TYPE=INFRARED SPECTRUM
##DATE=31/10/2018
##SAMPLING PROCEDURE=Diamant-ATR
##ORIGIN=ComPlat
##XUNITS=1/CM
##YUNITS=TRANSMITTANCE
##RESOLUTION=4
##FIRSTX=3997.453
##LASTX=373.96442
##DELTAX=-1.4165319
##MAXY=0.92538172
##MINY=0.52958572
##XFACTOR=1
##YFACTOR=8.6182889e-010
##NPOINTS=2559
##FIRSTY=0.8624469
##XYDATA=(X++(Y..Y))
3997+1000717100+1001155509+1001627046+1001627116+1001189190+1000500489
3989+999767801+999411969+999807706+1000749674+1001615842+1002101765+1002382696
3979+1002571781+1002492869+1002028801+1001390517+1000993881+1001093956
3971+1001495226+1001714535+1001554013+1001340721+1001424890+1001651599
3962+1001576213+1001119476+1000697527+1000598005+1000569926+1000282909
3954+999968159+1000211121+1001147417+1002225424+1002870347+1003080250
3945+1003155981+1003251699+1003324456+1003227701+1002937157+1002741086
3937+1002948983+1003472253+1003988399+1004331159+1004413252+1004164827
3928+1003824488+1003774346+1004021526+1004255013+1004377496+1004509662
3920+1004520659+1003986739+1002728361+1001246248+1000343701+1000466185
3911+1001523997+1003035987+1004453089+1005551567+1006491461+1007378861
3903+1007828474+1007364683+1006168273+1004973730+1004425909+1004663337
3894+1005301206+1005611668+1005141307+1004506758+1004619074+1005367946
3886+1005844186+1005635529+1005280389+1004872894+1004002369+1003219194
3877+1003543419+1004784922+1005792039+1005914799+1005626745+1005610631
3869+1006178094+1007361847+1008694850+1009056698+1007622791+1005310819
3860+1003896899+1004235786+1006137289+1008897629+1011062634+1010309059
3852+1007059615+1004443891+1003624890+1004299483+1005829109+1007456528
3843+1008635441+1009326494+1009569317+1009011536+1007607368+1006213297
3835+1005363589+1004614095+1003634227+1002975264+1003335315+1004581659
3826+1006032718+1007406318+1008864501+1010047701+1010086639+1009234095
3818+1008426022+1007577006+1006263161+1004848549+1003922073+1003688864
3809+1004104243+1005018270+1006357151+1008037132+1009438050+1009406928
3801+1007790159+1006446091+1006429839+1006751574+1006241445+1004975183
3792+1003736170+1003036955+1003140489+1004152655+1005532272+1006091021
3784+1005349688+1004237239+1003613686+1003215874+1002564657+1001953416
3775+1001946707+1002791020+1004340634+1005900206+1006522030+1006132171
3767+1005566160+1005373755+1005638987+1006391662+1007405280+1007920527
3758+1007405419+1006668719+1007023721+1008846242+1011183181+1012012832
3750+1010552159+1008807443+1008018874+1007236252+1005306462+1003124029
3741+1002033296+1001918351+1002454484+1003693013+1004892052+1004154868
3733+1001630020+1000002255+1000635490+1002618049+1004456824+1005371750
3724+1005446443+1004950146+1004015095+1002995321+1002458496+1002777603
3716+1004021941+1005996893+1008009260+1008801980+1007858767+1006286261
3707+1005116201+1004523564+1004267462+1003808788+1002629115+1001106198
3699+1000291900+1000630649+1001854032+1003840602+1006840584+1010502225
3690+1012864545+1011822640+1008614762+1006056440+1004862866+1004473076
3682+1004561533+1005367116+1007256723+1009904954+1011692687+1011197013
3673+1009710405+1008658748+1007576384+1006163086+1005406745+1005570725
3665+1005723985+1005156868+1004205632+1003807751+1004379571+1005491813
3656+1006558685+1007595334+1009008493+1010877352+1012489418+1012025696
3648+1008729292+1005155139+1003558773+1003853397+1004783746+1005279005
3639+1005172221+1004786720+1004228732+1003566864+1003281646+1003859414
3631+1004919577+1005095315+1003764180+1002420042+1002141671+1002829681
3622+1004373278+1006548657+1008409908+1009092454+1009078761+1009063891
3614+1008896591+1008348562+1007751084+1007536271+1007687317+1007723558
3605+1007241231+1006373888+1005437591+1004482413+1003551372+1003026166
3597+1003044771+1003054591+1002679118+1002475440+1003093252+1004354673
3588+1005315661+1005135290+1004264903+1003651586+1003364639+1003079005
3580+1002913504+1003096572+1003211724+1002763978+1002220445+1002543494
3571+1004071737+1006487173+1009031524+1010221294+1009082634+1006915761
3563+1005511385+1005183979+1005208254+1005084664+1005004576+1005149053
3554+1005177408+1004739137+1004207292+1004409310+1005634284+1007092605
3546+1007308386+1005697220+1003617974+1002884387+1003800074+1005135843
3537+1005624878+1005107210+1004255981+1003762727+1004012605+1004913215
3529+1005793284+1005978565+1005561527+1005168141+1005124293+1005185362
3520+1004951253+1004345475+1003729392+1003550404+1003824695+1004088681
3512+1003901049+1003297138+1002785971+1002921526+1003761275+1004723853
3503+1005038188+1004508625+1003687895+1003146713+1002945940+1002840470
3495+1002696270+1002622130+1002776151+1003186896+1003746751+1004263935
3486+1004584287+1004752624+1004916880+1005005890+1004736025+1004050297
3478+1003314013+1003002444+1003269543+1003771234+1004054309+1004092347
3469+1004044834+1003689210+1002794132+1001852372+1001605123+1002012963
3461+1002440998+1002628147+1002863431+1003376534+1003911769+1003956377
3452+1003483318+1003234409+1003799659+1004640998+1004699370+1003858376
3444+1003000439+1002784242+1003077553+1003334277+1003135440+1002495843
3435+1001808870+1001430354+1001382287+1001520677+1001778508+1002116842
3427+1002443004+1002657609+1002641633+1002284557+1001715918+1001349505
3418+1001499168+1002109442+1002874912+1003403438+1003396660+1002942759
3410+1002512441+1002507669+1002921803+1003460495+1003855610+1004019659
3401+1003942268+1003556974+1002877955+1002178395+1001737427+1001509335
3393+1001311812+1001161042+1001186770+1001440036+1001853271+1002150593
3384+1001973541+1001473095+1001421155+1002227223+1003242293+1003572397
3376+1003221684+1002891856+1003019873+1003446248+1003755465+1003700898
3367+1003460910+1003367128+1003280124+1002800426+1002298389+1002771448
3359+1004250794+1005380187+1005138955+1004086261+1003348455+1003240080
3350+1003373975+1003415333+1003307512+1003157433+1003094497+1003122507
3342+1003207436+1003407449+1003573020+1003182469+1002071680+1001027493
3333+1000992705+1001947399+1003082809+1003788248+1004070216+1004178729
3325+1004212341+1004183362+1004158188+1004072913+1003708298+1003165387
3316+1002964475+1003363048+1004016409+1004473491+1004551435+1004273133
3308+1003884658+1003794057+1004184261+1004843293+1005384130+1005495202
3299+1005100917+1004388769+1003622193+1003055975+1002984393+1003473497
3291+1004093246+1004343054+1004229700+1004057974+1003895101+1003642941
3282+1003487952+1003863978+1004852353+1005883539+1006344010+1006296428
3274+1006181275+1006041432+1005627644+1005068550+1004764104+1004724475
3265+1004633806+1004540162+1004855120+1005563947+1006019785+1005777100
3257+1005192278+1004884029+1004894956+1004731875+1004156113+1003625513
3248+1003796685+1004704073+1005662225+1006070549+1006158867+1006599766
3240+1007385777+1007621338+1006785601+1005700194+1005584142+1006529153
3231+1007541250+1007773837+1007212115+1006416352+1005968745+1005975522
3223+1005948273+1005399207+1004544381+1004087782+1004294988+1004681803
3214+1004754353+1004668732+1004859754+1005311303+1005620797+1005656692
3206+1005707179+1005935547+1006108311+1006045651+1005999037+1006297050
3197+1006894529+1007519672+1007955315+1007985469+1007484123+1006700602
3189+1006044960+1005579923+1005124431+1004755528+1004799860+1005383991
3180+1006238817+1006932152+1007214328+1007147311+1006972750+1006926205
3172+1007111901+1007465243+1007907940+1008473190+1009109260+1009554862
3163+1009648921+1009506035+1009256711+1008934284+1008581772+1008171788
3155+1007642847+1007187701+1007118679+1007418767+1007847009+1008302363
3146+1008715736+1008938157+1008965406+1008862495+1008529832+1008056428
3138+1007996258+1008660754+1009455271+1009519037+1008807651+1008057949
3129+1007816302+1007904205+1007784696+1007175390+1006127261+1004561394
3121+1002042494+998281054+993815351+990049139+988437143+989434370+992183852
3111+995268555+997772585+999656452+1001293485+1002831825+1003995591+1004414566
3101+1004093177+1003438502+1002865921+1002576968+1002629599+1002919797
3092+1003142010+1003049474+1002760244+1002697653+1003214283+1004194428
3084+1004906299+1004339942+1001918213+998009115+993728693+990237256+988251861
3074+988022870+989333810+991423776+993326593+994537803+995229133+995923783
3064+997089624+998722368+1000178546+1000765236+1000373579+999056829+996365650
3054+991921940+986448981+981584567+978750087+978379248+979962750+982596595
3044+985415375+987663926+988894779+989345844+989702091+990301299+990899400
3034+991153842+990942072+990353238+989692616+989302135+989183939+988951421
3024+988194250+986908416+985707510+985465794+986468346+988120248+989759079
3014+991401022+993388699+995731032+998148335+1000418464+1002390857+1003908795
3004+1004932026+1005633661+1006319666+1007209625+1008212800+1009025369
2996+1009576994+1010169493+1011057654+1012151499+1013190984+1013968211
2987+1014440509+1014786174+1015147331+1015287381+1014766532+1013363885
2979+1011113467+1008158440+1004547217+999646424+991846970+979654985+963406313
2969+945763570+930594703+921170666+918703775+922081719+928817275+936227769
2959+942063614+944573661+942449115+935407731+925341745+916242001+911855556
2949+913161102+918315783+924681606+930398771+934445153+936214628+935445493
2939+932289070+927343046+921715168+916745837+913286006+911423095+911102051
2929+912604220+916168207+921499456+927785951+934027146+939509788+944127022
2919+948073121+951312191+953628726+954992713+955578642+955596693+955218315
2910+954531204+953679490+953110921+953363288+954530166+956201641+957850223
2900+959094700+959875247+960601088+961829381+963665735+965765037+967905006
2890+970158882+972477770+974500165+975850942+976346755+975874387+974245862
2880+971095802+965765037+957556291+946651454+935010196+926028164+922549591
2870+924566523+928874194+931398281+930171163+926406819+923221763+923332074
2860+927364901+933898507+940947776+947331926+952878403+957821452+962184867
2850+965639856+967933500+969345691+970518310+971867565+973292759+974414199
2840+975082360+975625063+976474909+977649465+978837299+979850018+980677733
2830+981271823+981613338+981901876+982416501+983186604+983935683+984372710
2820+984436891+984226504+983887478+983681518+983906567+984582128+985427202
2810+986233615+987049572+987978469+988975973+989862958+990442525+990583059
2800+990255307+989604574+988994854+988780871+988970579+989294181+989591780
2791+989947611+990495502+991248592+992071396+992752698+993146983+993255911
2781+993194496+993142695+993267046+993601299+994009416+994288963+994352038
2771+994348718+994515395+994897923+995399061+996023512+996763393+997353541
2761+997499193+997250561+996914993+996746034+996796244+996904965+996879237
2751+996802261+996949366+997321105+997549058+997356930+996832969+996168058
2741+995412340+994645279+994176301+994317250+994993295+995755307+996186455
2731+996164393+995801991+995355697+995154993+995371881+995824468+996194132
2721+996437301+996793962+997400155+998121155+998757640+999186021+999315283
2711+999155867+998939256+998962356+999274755+999647669+999846298+999835302
2701+999703827+999492818+999191347+998907511+998909171+999346612+999998382
2691+1000479464+1000665437+1000667719+1000460306+999911517+999201444+998768429
2681+998715798+998651340+998260721+997697062+997264462+997041004+996991347
2672+997175452+997645191+998296615+998927914+999356641+999509555+999495792
2662+999498074+999551950+999596905+999677892+999860545+1000072453+1000265550
2652+1000539634+1000941042+1001399508+1001908876+1002448675+1002790329
2643+1002725733+1002384356+1002060753+1001865374+1001700979+1001439137
2635+1001098797+1000982054+1001501866+1002670335+1003923042+1004686852
2626+1004953950+1004991712+1004698609+1003766669+1002451580+1001554289
2618+1001459401+1001751397+1001972919+1002176320+1002519841+1002908040
2609+1003273070+1003730083+1004303633+1004880018+1005390561+1005695007
2601+1005457232+1004549706+1003454409+1002904720+1003147267+1003782438
2592+1004320785+1004648606+1004861413+1004944614+1004878704+1004857056
2584+1005108109+1005582275+1005972203+1006069996+1006096415+1006489386
2575+1007184727+1007500515+1007140741+1006748669+1006919288+1007382872
2567+1007813259+1008573680+1009879018+1010975699+1010938006+1009758333
2558+1008093083+1006521061+1005513737+1005440495+1006061212+1006560829
2550+1006473479+1006100496+1005871159+1005890109+1006206657+1006895151
2541+1007717126+1008143778+1007858628+1007099798+1006491807+1006553774
2533+1007320628+1008461848+1009633567+1010509210+1010694907+1010065061
2524+1009083533+1008330719+1007820936+1007290750+1007002627+1007556466
2516+1008848871+1009895479+1009914360+1009147160+1008494491+1008646921
2507+1009562816+1010571801+1011015328+1010798440+1010211612+1009422558
2499+1008455416+1007523476+1007018949+1007134586+1007653913+1008138383
2490+1008284935+1008127802+1007976962+1008201596+1009019075+1010347305
2482+1011736604+1012552285+1012492184+1011952939+1011592128+1011533756
2473+1011397164+1011102470+1011149915+1011963590+1013278333+1014335869
2465+1014616938+1014322244+1014024369+1013907350+1013681540+1013225564
2456+1012781276+1012426205+1011966909+1011498761+1011421716+1011724639
2448+1011890210+1011716617+1011620345+1011907293+1012300056+1012369009
2439+1012019056+1011448827+1010952599+1010805633+1011122319+1011785985
2431+1012547029+1013137661+1013334354+1013099761+1012684313+1012423231
2422+1012421433+1012648280+1013251637+1014314222+1015331990+1015553857
2414+1014938189+1014204879+1013944489+1014157849+1014556007+1014907067
2405+1015202106+1015559252+1015837831+1015617554+1014832442+1013998019
2397+1013539484+1013364715+1013268513+1013264570+1013413197+1013666601
2388+1013780094+1013154467+1011173982+1008004350+1004556484+1001335119
2380+997829574+993374590+988117482+982725372+977509691+972227339+966613915
2370+960881604+955470336+950376309+945387129+941066110+938389869+937367536
2360+937358891+938547279+941627279+946485676+952540553+959498598+966573871
2350+971995858+974045434+972036663+966881497+961182937+957474473+956166991
2340+956296322+957095404+958293681+959833889+961570167+963245791+964839322
2330+966507407+968025829+968946704+969396801+970038335+971341875+973478939
2320+976678587+980857274+985056363+988084769+989642336+990387058+991162695
2310+992482626+994491742+997061821+999848719+1002332208+1004066896+1005155415
2300+1006254309+1007820244+1009595598+1011000735+1011667029+1011569858
2292+1011114158+1010985381+1011503533+1012367764+1013281100+1014314982
2283+1015443892+1016367463+1016984998+1017475486+1017798881+1017616297
2275+1016777862+1015613681+1014768676+1014840119+1015948211+1017510066
2266+1018637592+1018899227+1018495398+1017707935+1016663401+1015675234
2258+1015095875+1014662722+1013809072+1012789990+1012535479+1013286010
2249+1014471700+1015889494+1017698391+1019277466+1019579214+1018860151
2241+1018662767+1019674725+1020770368+1020639655+1019429136+1018218202
2232+1017671833+1017719277+1017939692+1017945502+1017855039+1018297253
2224+1019514065+1020949148+1022095140+1022956744+1023360434+1022807011
2215+1021416121+1020247306+1020306093+1021475668+1022767520+1023732934
2207+1025024647+1026993997+1028568854+1028551494+1027219599+1025599096
2198+1024070853+1022535901+1021174474+1020340120+1020000679+1019698586
2190+1019179327+1018645200+1018052839+1016894744+1015360276+1014789978
2181+1016198434+1019278158+1023059309+1026333858+1027536216+1025755537
2173+1022120522+1019124414+1018436058+1019690840+1021110569+1021118315
2164+1019788633+1019185621+1021500221+1025829954+1028180309+1026748338
2156+1024428482+1024256480+1026561881+1030006496+1032631558+1033044032
2147+1031742567+1030142259+1028582824+1026776348+1024894487+1022889796
2139+1020596153+1019294134+1020903572+1024959014+1028554053+1029793620
2130+1029392488+1028727508+1028088049+1027079618+1025623025+1024201635
2122+1023514248+1023855279+1024684100+1025168363+1025200938+1025283515
2113+1025477027+1025289602+1024639146+1024136417+1024251224+1024743786
2105+1025083641+1025108539+1025060265+1025190218+1025591695+1026211306
2096+1026770539+1026974009+1026952984+1027111708+1027532136+1027940322
2088+1028142202+1028225056+1028442290+1028867628+1029150426+1029032783
2079+1028998826+1029574588+1030201944+1029883044+1028769420+1028085352
2071+1028717549+1030568565+1032924384+1034943737+1035985227+1035726635
2062+1034125151+1031505277+1028692513+1026769570+1026556071+1028067923
2054+1029978348+1029925025+1026566791+1021676580+1019224835+1021519101
2045+1027033695+1032760819+1037197060+1040047308+1040565322+1038021455
2037+1033644554+1030450369+1030127389+1031121297+1031224484+1030631985
2028+1030479486+1030514412+1030567942+1032062988+1035611967+1038942951
2020+1039244561+1036414853+1033076537+1032305119+1035302335+1040182794
2011+1043214105+1042317368+1039121109+1036679531+1035995117+1035882869
2003+1035289955+1034445987+1034228546+1035129848+1036701109+1038049257
1994+1038914803+1039701436+1040446365+1040548792+1039505711+1037065447
1986+1033109458+1028273538+1024160900+1022290450+1023139051+1026236065
1977+1030410049+1033886616+1035370665+1035169408+1034286434+1032849898
1969+1030538272+1028057826+1026665622+1026312211+1025949048+1025436845
1960+1025633607+1026864320+1028382120+1029164050+1028634003+1027049256
1952+1025496807+1025045257+1025743572+1026747785+1027524666+1028520718
1943+1030262114+1032212444+1033487282+1034355041+1035637902+1037208471
1935+1038187163+1038270571+1037996488+1037929609+1038259851+1038951596
1926+1039830213+1040575212+1040719550+1039780072+1037643215+1034779964
1918+1032002957+1029855657+1028153752+1026572117+1025493556+1025672821
1909+1027034525+1028435581+1029032161+1029155129+1029529979+1030387295
1901+1031549954+1032814004+1033983303+1034870080+1035497506+1036140354
1892+1036985082+1037757053+1037870477+1037268433+1036765221+1036866264
1884+1036925535+1036133023+1034930873+1034616468+1035726428+1037584636
1875+1039323404+1040799223+1042488057+1044686605+1046702983+1047079978
1867+1045528566+1043612678+1042664347+1042669673+1042816086+1042338808
1858+1041134859+1039837267+1039269597+1039755105+1040955941+1042330163
1850+1043625334+1044927076+1046351440+1047649170+1048105700+1047379859
1841+1046278268+1045728371+1045772911+1045636734+1044538877+1042743882
1833+1041294413+1040668578+1040374784+1040057060+1040120411+1040542429
1824+1040443668+1039406327+1038173055+1037663133+1038244567+1039712778
1816+1041467730+1043040927+1044377249+1045386787+1045740682+1045517293
1807+1045359953+1045658312+1046247076+1046816199+1047045536+1046568742
1799+1045437205+1044347510+1043971345+1044406573+1045091540+1045002323
1790+1043823618+1042624303+1042366541+1042967063+1043798582+1044587636
1782+1045443360+1046100179+1046149283+1045999205+1046608717+1048438639
1773+1050956432+1052774113+1053049510+1052502726+1051978627+1051650252
1765+1051611107+1052007813+1052566423+1052707165+1052343587+1051704889
1756+1050823160+1050007341+1049945926+1050905945+1052258036+1053015552
1748+1053064656+1053007115+1053148825+1053490824+1053965751+1054327046
1740+1054289768+1054160369+1054696848+1056097973+1057233660+1056763437
1731+1055179520+1053214666+1050997099+1048924285+1047569428+1047115596
1723+1047413125+1048451226+1050525700+1053647266+1056352070+1056729272
1714+1055312170+1053732679+1052777156+1052361846+1051927310+1050828416
1706+1048980513+1047304750+1046809906+1047597369+1048537746+1047790604
1697+1044371370+1038911068+1034222875+1032842152+1034895601+1039253552
1689+1044332433+1049187303+1054061400+1058432975+1060195465+1059634572
1680+1058746065+1058486298+1059126449+1060620596+1062557785+1064636547
1672+1067038635+1069633473+1071360622+1071768047+1071892606+1072594655
1663+1073579710+1073741823+1072744457+1071482621+1070945450+1071631178
1655+1073022137+1072511317+1069394454+1067332706+1067195560+1066997346
1646+1064180156+1059411183+1055350139+1052973987+1052237495+1052706197
1638+1052960708+1050013842+1042415784+1033519511+1025343201+1016183703
1629+1003241464+984993910+961291726+930151176+890763426+852472909+826627713
1619+812043047+800224875+787661359+780761132+783960434+794611935+809003367
1609+824881684+841635436+859438839+877834880+894367595+904030236+902465753
1599+891610091+880150724+877034553+884506255+897494209+910150470+921180832
1589+932301450+944615572+957591839+969609539+978417424+982055690+980159789
1579+973201052+959289526+935079218+907046125+889563350+886269436+894263024
1570+909982409+926717557+939593610+949372649+957591424+964738624+972109489
1560+981937079+991831340+996027316+996845971+997433560+998545110+1000187468
1550+1002091944+1004195258+1007182791+1011764545+1017451003+1022571726
1541+1025032739+1022948583+1018272631+1014466583+1011664124+1008708336
1533+1005157974+1001545714+997855025+992421557+982543272+966879215+944748983
1523+911386786+864524498+817209762+782639743+760470366+749041707+749618853
1513+761144198+779849526+802161512+827647211+857405447+883442287+898333958
1503+907638624+916543611+926694112+938277760+950652813+962063075+971169250
1493+978706447+986101657+993092830+995906700+989834672+974095230+952120402
1483+931060293+920257123+924978651+941630115+962166678+979554840+985986366
1473+970416022+932248265+892486494+866770214+851662831+836795919+818314050
1463+804346227+800506359+801972081+803689409+808267774+820151441+832465218
1453+839367382+843152682+847341950+852258581+854505887+852058845+848803522
1443+850017015+856047616+862809383+867647447+872767134+881984242+894326790
1434+906421328+918423881+931558941+944706519+955703062+964427055+972043648
1424+978939518+985022405+991019463+997840847+1004648883+1009844991+1013640804
1414+1016877177+1019599478+1021260510+1021311481+1019408249+1014857548
1405+1006336887+993302663+976663925+957122792+935888328+917309565+906839265
1395+905958574+910884195+915296714+914058876+902927954+877415490+837660566
1385+792650470+752461701+721958397+703435931+697539570+701693359+711280270
1375+722498749+733597374+744545089+755939029+767913642+779756850+790526270
1366+800185384+809402009+818234930+826092617+833083445+839967903+847116625
1356+854408094+861537242+868127076+873810353+878317898+881560772+883637597
1346+884584268+884307694+883062319+881791353+881799929+883988103+888303727
1336+894117510+900853757+907982353+914815770+920727484+925552408+929548994
1326+933041953+936315810+939625839+942995830+945969738+947576824+946810247
1316+943709637+940056433+938529643+940593673+945167405+949628544+951839195
1306+951379691+949575843+948507104+949629789+953020666+957788186+962945565
1296+967768206+971784918+974873149+977197085+978732797+978822913+976338870
1286+970703384+963209759+957103219+955607551+959459453+966493506+973483850
1276+977811715+977764271+972871225+964789042+956453731+948722885+939028844
1266+925702141+912853890+908040655+914720882+929206442+945218930+959237517
1256+970894613+980613759+988510107+994624116+999073220+1001903758+1002802639
1247+1000682796+993418231+977984617+951362470+912983221+867952031+827237019
1237+802226661+797642278+809800098+831125853+855281593+878727744+899779001
1227+917697764+932397445+944120590+952967689+958660648+960622459+957941999
1217+949019169+931634326+904434688+869428196+833112008+804066957+788294387
1207+786392123+794666295+808310239+823728430+838993361+853249030+865972653
1197+876547040+884440898+889805966+893702200+897470764+901725181+905769488
1187+907801428+905981535+900234631+893241383+888389763+885883036+882390215
1177+876133459+870840249+872381701+882269945+896643810+911014494+923650974
1167+934616741+943646978+949038811+947189939+934035100+909421931+880108606
1157+856308905+844928105+846904094+859281015+877329662+895810217+911102950
1147+922588597+931221506+937197332+938973654+933277791+916154859+886269021
1137+848812098+815206455+796765183+797502712+812731333+833136076+849228168
1128+854641580+849502529+841132154+838500868+844806867+856489345+868662034
1118+879313258+888686462+897227803+904971375+911679404+916987069+920686265
1108+922714885+922644963+919552514+912811080+903227904+893489324+887180489
1098+886726242+891909072+900281591+908951985+916136393+921496412+925556212
1088+929032018+932372616+935285801+936333170+933251786+924605806+912065113
1078+900782314+896241157+900228199+910166861+921925485+932646146+941410668
1068+948288210+953249104+955928871+956020233+953438811+948415673+942072190
1058+936677866+934602355+936693497+941600168+946455868+947907343+942675824
1048+928710352+907720026+886303463+872512484+870336898+877811780+890016214
1038+902931758+914669703+924661757+932956194+939980357+946182545+951433152
1028+953806608+948915705+933524832+912022718+896127733+894573348+904345540
1018+913552413+911530363+896616837+876928322+863573470+861084171+864827837
1009+868338086+870762996+875230636+882231353+888522759+892745432+898226137
999+908198618+921084768+932763097+941276012+947304746+951836152+955159321
989+957359044+958869928+960534694+962685590+963687175+960173399+950249399
979+936872830+926780563+925069044+931435904+941877157+952539170+961383572
969+967833978+972225472+975312595+977752099+979845868+981581524+982908233
959+984025523+985270761+986718985+988070038+988937036+989081651+988122462
949+985213911+979984605+974164183+970978782+972010866+975655909+979249081
939+981460009+982278871+982158462+981170157+977381675+967130614+950096830
929+933608240+927910993+936312214+952703357+968811771+980770339+988643103
919+993315527+995432466+995530259+993842186+990439274+986096400+982700613
909+982225617+985159896+990256413+995909743+1001443771+1006965211+1012460509
899+1017485652+1021701132+1025331582+1028817348+1032099228+1034575733
891+1035882108+1036372665+1036520669+1036065453+1033949898+1028520234
882+1017093373+995426379+958508218+903937354+837365181+774768569+735251005
873+728149105+747279286+777719239+806850050+829590486+846503861+859282813
863+867480424+868641839+861873847+851328992+845123276+849629024+864085052
853+880161168+886980477+879093120+862251879+850330589+853812275+871328039
843+893361307+912154676+925913081+935900362+943389907+949262476+954079723
833+957951059+960985760+963646785+966137329+967755619+967541705+965728036
823+964044943+964219227+966534933+970113098+973998059+977582448+980559261
813+982945649+984983467+986967755+989091886+991070849+992043801+991419073
803+989806316+988423380+986526718+979339267+961446923+935340714+913946421
793+909887244+923370459+943925418+961870532+974433840+982901732+988371025
783+990301230+986246133+972125119+945251090+910023145+879909215+869762587
773+883859672+912014142+937869781+951640081+956173354+960728828+968218649
764+969575720+951765884+911185874+858869232+811489623+776226683+746218362
754+713019245+680858783+664103371+671817757+698881079+731322680+756379790
744+767553730+764897477+754436929+746287592+749428661+766343557+792782359
734+822108618+849230520+871340626+886496629+891536365+880827046+848585735
724+794754268+728892029+667544251+626714640+614490564+628510258+659173323
714+695594980+730926597+763712548+794440763+821964902+843252481+853348967
704+844353864+810017608+756909077+707747751+686477255+699209523+732848986
694+769960314+800841511+824116144+842133254+857313532+870665272+882360269
684+892535045+900654574+904417467+898784955+876286027+832567161+775162024
674+723740944+695407348+691205769+703365802+728300014+761491938+791053551
664+812507530+829245721+843890488+856672690+867294382+875926115+882956849
654+888796843+893673637+897645671+901082955+904773644+909296751+914448873
645+919387704+923343486+926103687+927700953+927892251+926065787+921025498
635+910676160+893162263+869720953+846260208+830781848+828331970+838222911
625+855533821+874472981+890290090+899974034+903727728+905574386+910193488
615+918443592+927313169+933846360+937400319+938690925+938203481+935104946
605+927002707+912546333+895897221+886397383+890483533+904678064+919010986
595+925373420+920434451+904279976+881080728+859716312+849174154+852565931
585+866004052+882549976+896622163+905278033+908461083+909241007+911572344
575+916898059+923808245+930490893+935788599+938653717+938790863+937793428
565+938069517+940442281+943636188+946182753+947909348+949098911+949534485
555+949442363+950042332+951743131+952834831+951432945+948148437+945500967
545+945140087+946843099+949763269+953343646+956983018+959983345+962246005
535+964356304+966756386+969224176+971259021+972859260+974755852+977532099
526+980495287+982241386+982396790+981588025+980297972+978969880+978627742
516+980014482+982358198+984163360+984943838+985372773+985966033+986695470
506+987766976+989014150+988545379+984622449+979192715+976115689+976366120
496+977434306+975730326+967652155+950225677+924924083+900275159+887083526
486+890412090+906014041+924995526+941626103+954737302+964086301+969252601
476+971418713+973277682+976376425+979697173+981800902+983075602+984576388
466+986526995+988654445+990670824+992125480+992818677+993237791+993613056
456+993117520+991051692+987176067+980382832+969020498+953161270+936184820
446+924171546+922383052+930793678+943189134+951245243+948033008+927125951
436+886365085+837301553+800963649+789977134+802143599+828015837+858867780
426+888681414+912902510+929259764+939428662+947319200+956193065+965054826
416+968066634+961424446+946964061+932321990+925914464+928423197+933852723
407+938103337+942010706+947445488+953824520+958157158+957469425+954024256
397+955609003+962736561+968766748+972120486+975593457+978315689+975463988
387+966423031+958528551+958012612+959663685+954196190+939239646+917855934
377+894629783+877449240+873874810
##END=
