##TITLE=X7348
##JCAMP-DX=5.0
##DATA TYPE=LINK
##BLOCKS=1


$$ === CHEMSPECTRA SPECTRUM ORIG ===
##TITLE=X7348
##JCAMP-DX=5.00
##DATA TYPE=INFRARED SPECTRUM
##DATA CLASS=XYDATA
##ORIGIN=ComPlat
##OWNER=
##XUNITS=1/CM
##YUNITS=TRANSMITTANCE
##XFACTOR=1
##YFACTOR=9.0539937e-010
##FIRSTX=3997.453
##LASTX=373.96442
##MAXX=3997.453
##MAXY=0.9721651700868514
##MINX=373.96442
##MINY=0.5237308160865253
##NPOINTS=2559
##XYDATA= (X++(Y..Y))
2559A050265318A050206991A049782569A049388694A049010486A048649264A048707986
2552A049366574A050018644A049856565A048840178A047802725A047554931A047936233
2545A047988833A047173235A045988448A045086017A044468904A044084245A044398134
2538A045624658A046825113A046573238A044732035A043030268A043148306A044729601
2531A046375082A047593575A048390411A047914640A044956657A039748653A034837027
2524A033182262A034428734A035111745A033703195A033061921A036149594A041568525
2517A045740721A046355266A042685635A035485344A028074719A025282699A028375771
2510A033153691A034869482A033124264A031433358A031761599A031886746A029570563
2503A026607380A027366559A033249412A040893084A046451382A048670396A047582910
2496A042270825A031551725A017013224A004305523I98824117A000693890A007608863
2489A017982804A028766552A035302199A034526758A028031138A022844003A023878625
2482A026774133A025242542A019503270A014809352A012585729A011360785A014075452
2475A022526361A030281225A030604857A023855255A015152997A008004911A004622572
2468A006997477A011625103A012607652A010265334A011186593A018098669A025837535
2461A028955688A025344253A013769594I94867127I81526777I89092240A008205437
2454A024851234A033981468A035114049A029717896A020391284A009664086I99464996
2447I92975893I94222891A002167747A010979484A017410194A022115172A025810544
2440A027381108A026291318A024239519A021848024A016135150A006070688I99314898
2433A001905404A008314455A014391645A022838144A033858493A042182939A043449686
2426A036990932A026615280A019283916A016618888A012867953A005820130A002146878
2419A006058114A013226937A021163498A030732440A040491769A047303451A050318906
2412A050683420A048914503A045100369A041262535A039858330A039645888A037518842
2405A034399373A034898777A039836868A044987532A046322285A042482476A035376260
2398A029714407A028273664A029181099A030612823A032271799A032043230A027184862
2391A019480821A015103952A015833112A016188607A010080739I95572982I79332779
2384I73919707I79167408I84852105I87095411I90574852I98960390A007392735
2377A009879292A003317576I88710083I75196593I75781119I91246080A009820175
2370A021703127A024112462A019202152A012476316A009557240A011774213A017172670
2363A023985866A030671084A034861450A033932950A026174861A012969730A002533117
2356A004788733A017580107A031332042A040057275A041990379A038610542A035085741
2349A036047356A040087624A043134942A043173124A039651616A031680493A019103799
2342A006388791A003089927A012342676A026281838A037562358A043144685A042156211
2335A035385872A024160915A009030317I94482205I90848913I96923535A001004882
2328A000865318A005837444A019608339A034187260A043409858A047134130A047826688
2321A046937357A043681877A037539711A031291489A027473076A022178437A008689371
2314I86472307I69864363I75953074I97407272A018131256A031798267A038836018
2307A041855817A043117957A043313479A042144690A039509813A035308518A027913693
2300A015211785A001828446A001152610A014285128A028289728A035133470A033070018
2293A023825959A013655836A009851313A011414110A012550180A012327732A013510543
2286A015933572A017380108A019473053A025505608A033377390A037697972A036412923
2279A032307086A029246865A027937129A027051024A026992565A029486232A033149346
2272A032787136A024650774A012709034A008501354A016480245A028401050A036863744
2265A040847133A042398672A043369963A044392999A045380815A045995295A045095102
2258A040030811A027942725A010399039I97952035A001008108A014881899A028504999
2251A037255315A042335012A045533349A046529723A044385758A040077815A036683231
2244A036189949A036400415A033516625A027676959A023981521A026677952A034158031
2237A041765364A046205630A046882190A045736376A045650465A047483306A049136358
2230A048041894A043814727A038430951A034112936A031659361A031383128A034047893
2223A039365640A045098394A049119307A051194477A052042201A051699083A049599884
2216A045973570A042744554A042172603A043780231A044192606A041388868A037919564
2209A038101459A042393273A047371917A050292968A051237269A051542797A051647734
2202A051046354A049681187A048412004A047922408A047667966A046501810A044402940
2195A043139879A044608403A048394097A051906258A053068134A052174920A051042536
2188A050833189A051309026A051838778A052222846A052366097A051913565A050771438
2181A049569865A049066312A049399819A050239249A051188948A051890129A052132721
2174A051740228A050250835A047487980A044691945A043863641A045332297A047364083
2167A048544459A049012198A049342348A049599950A049769929A050084806A050533586
2160A050700404A050397642A050007255A049950969A050112719A049895867A048783365
2153A047054407A045973965A046737161A049084087A051482626A052629032A052346874
2146A051267354A050099223A049244126A048856702A048970394A049478555A050144713
2139A050653664A050579471A049614038A048101340A046920307A046551250A046744139
2132A047197790A047858353A048522471A048847354A048856570A049047155A049891061
2125A051256031A052349837A052460172A051779596A051230817A051407840A051984796
2118A052246809A051883085A051049185A049979803A048937807A048299364A048233795
2111A048493768A048814372A049149525A049330300A049019769A048228331A047491930
2104A047413523A048175928A049387772A050341750A050672031A050677166A050723578
2097A050584869A049792378A048417534A047088377A046389368A046510631A047305756
2090A048402656A049300610A049548798A049011869A048082907A047550257A048024975
2083A049398305A050892109A051700861A051655502A051236215A050891517A050548332
2076A049910547A048973357A048111479A047881460A048605354A049857355A050702380
2069A050690267A050203568A049792378A049705809A049932930A050153008A049932667
2062A049360649A049095475A049543202A050366700A050897244A050761366A050161369
2055A049709100A049894287A050629833A051341350A051447801A050784276A049747349
2048A049079545A049311406A050291191A051390592A052162543A052553325A052528177
2041A051979595A051112714A050486120A050492111A050951622A051275451A051061167
2034A050543526A050242935A050194944A049991982A049530628A049134646A049007656
2027A049105483A049425889A050003832A050756823A051542402A052174064A052369916
2020A051969128A051193358A050497773A050228386A050506726A051239968A052063663
2013A052479856A052310666A051892433A051585654A051282166A050757679A050266898
2006A050256431A050678680A051170119A051698030A052369521A052839169A052621198
1999A051827259A051034307A050593493A050450571A050473744A050646225A050918903
1992A050999087A050565975A049868744A049656960A050158407A050668015A050580063
1985A050178551A049986189A050035695A050174667A050405739A050576048A050279143
1978A049401926A048439522A047991729A048079155A048200023A048050255A047877313
1971A048000814A048301866A048428857A048262301A047979353A047856641A048112071
1964A048684945A049108050A048893239A048148213A047562305A047664016A048305948
1957A048958676A049250709A049107984A048681522A048311214A048261840A048364144
1950A048248213A047968491A047972836A048442747A049091526A049526020A049443071
1943A048729579A047719973A047026165A046875080A046991274A047222412A047743212
1936A048516611A049085667A049077109A048517467A047582449A046429592A045321829
1929A044506758A043831054A042831125A041425866A040246609A040009218A040739694
1922A041866416A042918550A043748697A044067656A043341063A041478400A039193488
1915A037283821A035915362A034980080A034709838A035472573A037192643A039226602
1908A040685383A040982353A040341408A039524493A038841087A037912914A036642415
1901A035737285A035833795A036557162A036811341A035780537A033626829A031443233
1894A030438103A030946988A032270747A033444802A034015964A034229656A034693446
1887A035720827A036815357A036997450A035767634A033507146A030910978A028503025
1880A026738123A026010938A026441021A027961421A030469703A033528739A036236558
1873A037876049A038545499A038855833A039232000A039741609A040307834A040794072
1866A040984328A040750096A040308163A040145952A040540288A041243773A041817305
1859A042131721A042308350A042309930A041892157A040941142A039675447A038540233
1852A037930361A037929505A038330425A038939111A039656553A040230480A040289071
1845A039740160A038805801A037646821A036289883A034834459A033351913A031632830
1838A029246536A025755442A020766463A013981970A005369836I95225980I83882722
1831I71168965I56350874I39243196I21682394I07397875H99848936H99990278I05912300
1823I14241091I21886738I27154386I29936070I30962003I30539556I27906324I22045065
1815I13109958I02671106H92444038H83132566H74652822H67039367H60527749H54684265
1807H48054675H39188560H27835560H14886319H01603704G89392380G79898224G74523269
1799G73608001G76279744G81156282G87110891G93437454G99605492H05221987H10331900
1791H15497508H21318280H27939246H35134599H42651281H50245052H57571478H64340764
1783H70525063H76200477H81262135H85528406H89068743H92146541H94808739H96827819
1775H98177582H99400551I01428190I05087420I10643414I17621060I25130829I32489974
1767I39499153I46158828I52266233I57235596I60182980I60300096I57210382I50786848
1759I40728771I26688490I08836116H88134054H66246547H45269437H27058078H12530374
1751H01957027G96062720G96325194H03728973H17090521H32528359H45069174H52158669
1743H56261017H62971515H75720690H92781363I09536771I22580480I31208150I36166188
1735I38087771I36871780I31919930I22886140I10383376H96207810H83007156H73266984
1727H67794070H64969003H62064344H57904853H54378341H55157995H62776058H76746557
1719H94122172I11497261I26648859I38861500I48310232I55540937I61399168I66771819
1711I72002798I76814886I80938959I84484891I87636487I90409152I92882740I95354090
1703I98034721A000768742A003237129A005291561A006882468A007909717A008486870
1696A009084234A010007073A010980471A011550251A011569606A011028200A009799240
1689A007836314A005365623A002773142A000532469I99187183I99088764A000108706
1682A001804615A003852399A006115323A008306490A009853815A010230640A009314647
1675A007428021A005195973A003355231A002476369A002725084A003884130A005604595
1668A007622754A009771919A011883297A013781312A015390652A016771290A018011573
1661A019144681A020121173A020817812A021159812A021275677A021352503A021320706
1654A020962709A020388387A020059752A020229402A020659880A021038482A021373240
1647A021798320A022218134A022363689A022057108A021284959A020172786A019025722
1640A018233757A017969440A018075562A018326384A018671675A019134608A019565218
1633A019658437A019251066A018476482A017531720A016471752A015401778A014681439
1626A014676831A015395721A016524747A017717631A018736256A019422428A019706956
1619A019690629A019629273A019731906A020047836A020643488A021685023A023123461
1612A024518846A025457485A025988094A026451883A027046614A027700527A028207437
1605A028339892A027929361A027055238A026198560A025981050A026636938A027948057
1598A029681623A031683982A033521958A034596804A034784031A034578173A034485152
1591A034551972A034552170A034414777A034364875A034682189A035367175A036095150
1584A036529447A036646760A036656306A036643271A036507195A036278362A036159995
1577A036174412A036187316A036364471A037059859A038069333A038571042A038070979
1570A037017265A036252424A036158415A036515885A037018450A037676906A038611332
1563A039600530A040192100A040301843A040332455A040606844A041046539A041454964
1556A041744297A041862861A041801308A041614542A041260956A040648846A039980251
1549A039692037A039888086A040248124A040627647A041241667A042058581A042590244
1542A042582805A042372536A042299528A042378593A042725596A043543761A044480688
1535A044826769A044581346A044544612A045145398A045823670A045772385A044826572
1528A043468120A042328626A041851407A042102228A042715655A043209201A043431846
1521A043581483A043867657A044302480A044692866A044797540A044674696A044750009
1514A045276273A045922484A046124524A045656456A044819462A044261400A044445073
1507A045113404A045532822A045374627A045058236A045137235A045591347A045896151
1500A045771004A045586673A045755665A046028277A045855269A045164819A044282072
1493A043400378A042622107A042251470A042542845A043210978A043569897A043342577
1486A043133230A043790567A045303462A046611684A046626562A045309058A043645669
1479A042695313A042801632A043594584A044449813A044866335A044644611A043959032
1472A043311899A043244158A043883720A044859225A045824131A046776199A047577183
1465A047718393A047116158A046504706A046364813A046129791A045187597A044077465
1458A043902745A044892404A046157901A046776726A046715173A046615832A046926561
1451A047492917A047990742A048372702A048623655A048466513A047788439A047024454
1444A046592395A046305037A045868107A045526436A045676534A046254938A046962110
1437A047686004A048338140A048681193A048646236A048469673A048260127A047790809
1430A046967772A046166196A045854479A046149080A046843019A047567242A047917273
1423A047746569A047275078A046725443A046077783A045367451A044920449A045106228
1416A046050594A047717011A050187702A053657993A057877128A061744059A064178015
1409A065524882A067236723A069922159A072542093A073741823A073204565A071524850
1402A069477790A067684120A066232975A064219754A060681524A056537833A054193342
1395A055154957A059058491A064233315A068766339A071527747A072175999A070875676
1388A068597216A066560689A065101118A063799743A062409889A061103312A060131230
1381A059486863A058730448A057243886A054807164A051880055A049331551A047836431
1374A047354274A047172906A046520243A045137564A043343565A041767404A040966685
1367A041071095A041757793A042543766A043016904A043056799A043132440A044037965
1360A045912544A047754404A048334190A047533404A046450658A046118599A046367446
1353A046244207A045473046A044931970A045483250A046919122A048440180A049707191
1346A050980325A052516327A054309537A056214859A057872322A058693187A058340852
1339A057142306A055744947A054526059A053566223A053050162A053376625A054713550
1332A056471013A057437565A056769958A054846071A052818695A051320612A050057354
1325A048838335A048254730A048688105A049385665A049507982A049438397A050055050
1318A051392304A052900262A054388075A056048500A057905502A059260399A058761916
1311A056057651A053254177A052959379A055006307A056973973A057590757A057549612
1304A057464885A057222622A057004256A057221898A057736312A058133018A058330187
1297A058374820A058139733A057728939A057788452A058802469A060219446A060950647
1290A060819706A060692649A061007658A061073095A060009375A057635852A054518160
1283A051783283A050556298A051105209A052802040A054774577A056113345A056174240
1276A055494191A055601959A057164228A059083310A059864872A059046773A057131181
1269A055283067A055203409A057825449A061592513A063372359A061935829A059264086
1262A057802803A058151649A060225502A064271169A069024929A071228011A068571475
1255A062187770A055886618A053535018A056358044A061515028A064205995A062398170
1248A058603589A056610644A057817352A060736823A062712125A062013116A059037490
1241A055611505A053221787A052220937A052345558A053273597A054526718A055303606
1234A054931982A053473267A051580782A049879409A048892515A049229906A051065709
1227A053555097A055352191A055657456A054670627A053447000A053233505A054336857
1220A055762722A056406365A056175754A055472862A054281426A052547466A051025749
1213A050851227A052146085A053704668A054481952A054750746A055221579A055834742
1206A056107750A055893004A055271414A054531655A054448114A055582275A057295696
1199A058312873A057961064A056317294A053833173A051429828A050267425A050882432
1192A052884659A055472137A057924922A059811877A061093766A061979871A062606925
1185A062826739A062327927A061175004A060128465A059852233A060063884A060113653
1178A059768955A058855069A057345399A056358505A057124531A058391608A057630125
1171A055391558A054849626A056870023A059179556A060358484A061406800A063092308
1164A064261887A063338652A060562565A058266131A058353623A060005951A061292449
1157A062201200A064173474A067216051A069506362A069646519A067504068A063579270
1150A059163362A056249158A055930265A057063307A057020977A054158780A049810219
1143A047271457A047908846A049568021A049791193A048437744A046554937A044691550
1136A042936193A041263984A039504612A037896721A037563872A039433710A042557394
1129A044073383A041584259A036131029A032271339A033851317A039687034A045224463
1122A047900025A048879282A049879540A050379735A049006471A046254412A044390300
1115A044867915A046652104A047391535A045690030A041787220A037071643A034109512
1108A035491928A040697430A046361389A050193824A051977159A051929036A050358866
1101A048259865A046826035A046546510A046676990A045277063A041017177A035582645
1094A032388455A032189773A033008662A034207537A037037607A041009607A043235007
1087A041861874A038366698A036173952A036974013A039297964A040921918A041164314
1080A040588938A039732919A038638850A037273352A036222273A036536030A038002053
1073A038433123A036504891A034434132A035485608A039269656A042878919A044890100
1066A045681735A045915967A046174425A046750064A047198975A046975672A045791478
1059A042535669A035646041A026505603A021373833A025027072A034032423A041993275
1052A045967448A046735317A046589301A047218988A048819507A050554718A051658925
1045A051814092A050453928A046710959A040483145A032679763A025092378A021512805
1038A025249652A033338154A039873800A042535274A042969834A043359035A043101038
1031A039544309A031866470A023876124A020704449A021793185A023514704A025785198
1024A030313351A035771650A039182231A039883478A039755960A040087361A039715802
1017A037173815A033505895A031756793A033412544A036775463A038928710A037629112
1010A032500173A026044578A022285875A022614313A024460057A024436292A020644673
1003A014303693A011632805A017848638A028513690A035956507A037419435A034879620
996A031085631A027225349A024542875A024281651A024898370A022769349A015654772
989A005127902I97592458I98625962A006051136A015095525A022767835A026434306
982A024606930A019733815A016659506A016228501A016256414A016751013A017490114
975A014685521A004805850I90501318I81005186I81410714I87025892I92086365
968I94956988I96165672I96339075I96362643I95978049I91896965I81024739
961I68359236I65466559I72376924I81892871I90110075I94480625I93663776
954I89353463I84082128I76838520I63690005I44528224I30934485I35029657
947I50630957I66301973I76721141I80503214I77930153I71350531I65618106
940I63399157I61060855I53719815I43349363I38490797I42885507I55368851
933I70896682I81447712I83382330I78821459I72008460I63503502I50422531
926I37491856I38562686I51824301I65725742I74996199I78153918I76053863
919I72216622I68418025I63246426I59255006I63885264I75920421I85410298
912I87327273I84884428I85300884I89904547I92982410I89607642I77451156
905I57014596I41674191I46346384I54960756I54895055I51008440I56404198
898I72147498I86495611I93694256I93542381I86547619I74655845I66753320
891I74327276I90873139A002801515A006104658A003081368I98270335I94102747
884I90118699I88039777I90891770I95654944I96063566I91207700I88856231
877I94966797A003561683A007938091A007350471A004832249A003280973A002464124
870A000069667I94292344I84577715I71780087I59057838I51587765I53645885
863I65011525I80554497I94449815A004291567A010800815A015281304A018308740
856A020161989A021356256A022004705A020771729A015107770A003075246I87512459
849I77653196I76058142I75923910I74302062I75309759I82303270I91125212
842I97124126I98908778I94353173I78575179I51741813I38562028I52960701
835I71939336I84558755I90742988I92776421I94025854I94849747I90682028
828I77721662I58176407I38234841I25847678I33778643I58273576I77698555
821I84090094I82463374I83190362I89533976I93777403I90394735I81774898
814I73475404I66162803I58087928I53143715I55040545I59622153I64871105
807I73563093I83705567I88056169I81681944I64288290I40671365I29076957
800I49192979I79532054I97250655A000986318I94033623I79649499I61945446
793I44271412I24787579H98453486H65172162H38569275H41784070H76421213
786I19139748I52977356I75199424I89385392I98469610A001939111I98088176
779I87332671I73880537I66692754I73570400I88501526I98805026I98597851
772I89784929I80451009I76521208I73291534I62178492I37253082I00683889
765H70453634H55616847H44454759H28951353H09266073G90750898G81819346
758G86473567G98930315H12023465H25021618H40062618H57264435H76767294
751I00229711I24800153I43828030I55350352I62472763I69394517I76632201
744I81252585I82219136I81688790I80418093I76005608I69676938I70320780
737I81368450I94779307A003647857A007344743A008780022A009914183A009673566
730A006945931A004006512A003724420A003974847A000074275I91186370I81093204
723I73286728I68654758I67570564I69061669I70170550I69318086I68809201
716I72846375I81379312I89179073I91891764I89036678I82854485I76039051
709I70526045I68453179I72270012I80949821I89000601I92464112I92169709
702I90189272I86187911I80192287I76826473I81213743I91037852I99734317
695A003987816A004589919A003534955A001579007I98336431I93945539I89307775
688I84545655I78429163I69821375I59250332I49496071I45003403I48627939
681I57967587I67780964I75056304I79532581I81388594I79874909I73197525
674I58753692I35089499I05957330H81097620H69889648H74444002H89805605
667I09068110I27339376I42704468I55381030I65909348I73922143I79029292
660I81931120I83584435I84200956I84028146I84092991I85201543I86833858
653I87491985I85445189I78763724I65464058I45081217I21127559I01479210
646H94194983I01257618I16877417I32588261I43205453I47953749I47989496
639I44644550I39639376I35205101I32768840I31427833I28113038I19674176
632I05167209H86715036H68641465H55268198H48427155H46207549H43893341
625H37470400H28098099H22984697H29865963H49692389H75677372H99455982
618I16734824I27576965I33976865I38268152I42360428I47121759I52390921
611I57667522I62700280I67519017I72126826I76314033I79807826I82498595
604I84458493I85835970I86625828I86160656I82939343I75947478I66844498
597I60005627I59078838I63579736I69219601I70488389I63104426I47331435
590I30729878I24399826I33405900I52242140I71056194I84192793I91737256
583I95823672I97736302I97467903I94738754I90427914I86804300I85960657
576I88239118I92341861I96560469I99659004A001025751A000691257I99347946
569I97922410I96966655I96637295I96976332I97818790I98754927I99537478
562A000210878A000717524A000855904A000771046A000909096A001002249I99604166
555I95775220I91302630I89785061I92859962I98456838A003188413A005271680
548A004771880A002259122I97958816I91657005I82657383I69516900I50439121
541I25247682H97244539H72055733H54388480H46570615H49301410H61443412
534H78613499H93934155I01363674H97781995H81837182H51881251H06183469
527G46418152F81491703F25822479E90880861E78452817E83304470F00469487
520F27587381F62072122F99690355G36412609G70039685G99808125H25459667
513H47010573H64881380H79816718H92515071I03187825I11426754I16631664
506I18707032I18424347I17334294I17456018I20491815I26278157I31668780
499I31968910I24433532I09744736H89888291H67083079H46402018H36196805
492H42090520H61489627H86227810I09373638I28139042I42325932I52373015
485I58670809I61761576I62850905I63740433I65943449I69898135I74956436
478I79997818I84129265I86969671I88561170I89295662I89737793I90064190
471I89576833I86917992I80787742I70604452I57010515I42255425I29920139
464I23529784I24774412I32668972I44169898I55706440I64648196I69882533
457I71518601I70367718I67380901I62916079I56032047I43830927I21113536
450H82422893H28011200G69582479G27233593G15557881G31323696G57745083
443G81442982H01598635H22771202H45628552H67735940H87956241I06018422
436I20564625I30074055I33909189I31306965I21198592I04660563H86966252
429H75615818H75386459H85404905I01010812I17588012I32473845I44738164
422I54501443I62428524I69242839I75309759I80553510I84792460I88107189
415I90793482I93027111I94715515I95704450I95995627I95591942I94145867
408I90787820I84247039I73748477I60977380I50928849I48930637I55948506
401I67677672I78423567I84954935I86946959I85449666I81551266I75412523
394I65891244I51717653I33329337I13172631H94898073H83186220H82677467
387H94334548I12748406I28410140I33248758I25481848I11556378I03023639
380I08383848I26604291I49301668I68611440I81775689I89713237I94022234
373I95725121I95203136I91960493I83720182I66471426I38755246I08111828
366H89846356H94751596I18871020I48084953I70919328I84497136I91130478
359I93589715I93669306I92675500I91675571I91035614I90066494I87259663
352I80475564I66765104I42308486I03295856H49511415G90000211G43568068
345G28275523G47910112G89866374H35915964H73909113I01037804I19741325
338I32719860I41356352I46810437I50616803I53753389I56178393I58053498
331I60749534I65687954I72599438I79847260I86148806I91210267I95111695
324I97906347I99714633A000823118A001660705A002589272A003658654A004729484
317A005704002A006360087A006248502A005221713A003894597A003168400A003323435
310A003855164A004193937A004269776A004270698A004163523A003641472A002382031
303A000397842I98328202I96944470I95592864I91532714I82511630I70502214
296I61008517I57504785I58519592I61410294I66260433I73945382I83008994
289I91056482I97339793A002155436A005415063A007000374A007270418A006280694
282A002103033I89936212I65739040I33023940I01391061H72923141H34925844
275G74738080F99903916F36309718F06269983F12096680F39266121F71339881
268G01739653G33750411G71552251H13309501H52791846H84854216I08178516
261I24510885I36520169I46088519I53991900I60447758I65538975I69441917
254I72497463I74889353I76342538I76423183I75101465I72827547I70003006
247I66586040I62420097I57654093I52504548I47129856I42203747I39036878
240I38752942I41633243I46921167I52591776I55723754I53919879I46463632
233I33204058I10824585H71266797H09281017G35046784F74563629F50898910
226F66164398G05134369G51285736G94730206H29855364H52433059H60321496
219H55487354H44852915H37906079H41404348H55516782H74967501H93346271
212I06801960I15510604I22308395I29700982I36855783I41881695I45885952
205I50269866I54823166I58677853I61549464I63317723I63326939I61216220
198I58014591I55802687I56255153I59501285I64219430I68816640I72421295
191I74783100I75870322I76027333I76082829I76786776I78373206I80760355
184I83657246I86405882I88199026I88511335I87304758I85239989I83619261
177I83440262I84528736I85992257I87178030I87933655I88405608I88858798
170I89426537I89906785I89841347I88670452I85515301I78823829I67341664
163I52878871I41602170I40132198I49096139I62039191I71620312I75303966
156I75395407I75915747I79199929I84060206I87646362I88850174I88633651
149I87866243I86626025I85043019I83294970I81315981I79092754I75981250
142I68537576I49038668I08600370H48040192G87806477G57729415G70958772
135H13687116H61294039H98253158I22028805I35883965I43635141I48619973
128I53091773I57504785I61050256I63140765I64393096I66177089I69109331
121I72067380I73261317I72396740I70704978I68241528I61700417I45064627
114I13712522H71473445H33804389H18491633H30941402H61307929H94214930
107I19280564I34249345I40971890I41360894I36871122I29694333I22812408
100I18692285I18632839I22487723I28420278I34043027I37718254I38161438
93I34888117I30712695I31031390I37751697I46866461I53418236I54987286
86I50608640I40068867I25607851I11479815H99572835H88053936H76331681
79H69289585H73162442H87458152I05196439I20207090I30599332I36552559
72I38646096I39225817I41949107I47536503I53319422I57441717I60157108
65I61990278I62628194I60961975I55884319I48812204I44778453I46598918
58I50729376I53612310I55166614I54706248I49662101I40407114I31846922
51I28348455I30432052I36575798I43904067I48299435I47872051I45836315
44I47312673I53167085I59949472I64329765I64574793I59838939I51105872
37I42045222I35617278I29786104I21498656I16732454I27020154I46566396
30I60122414I63269533I60869085I59489962I61323658I63739906I62887639
23I56839482I46558036I33896878I19161736I03056753H92412767H96829070
16I13894352I32852249I47549011I57927099I65049313I66704143I60679290
9I53441607I57054096I70743752I81735466I83082134I74648143I56104924
2I31798535I16524028
##END=


$$ === CHEMSPECTRA PEAK TABLE EDIT ===
##TITLE=X7348
##JCAMP-DX=5.00
##DATA TYPE=INFRAREDPEAKTABLE
##DATA CLASS=PEAKTABLE
##$CSTHRESHOLD=0.93
##MAXX=3997.453
##MAXY=0.9721651700868514
##MINX=373.96442
##MINY=0.5237308160865253
##$CSSOLVENTNAME=- - -
##$CSSOLVENTVALUE=0
##$CSSOLVENTX=0
##NPOINTS=21
##PEAKTABLE= (XY..XY)
484.45390758404983, 0.7870542426065614
529.7829281313525, 0.7410618088684712
566.6127573260355, 0.6860477349714685
679.935308694292, 0.7586396360457702
694.1006276153244, 0.5893234630476867
757.8445627599685, 0.5489164606581107
861.2513908835026, 0.6593801997106205
890.9985606176697, 0.8056663301191958
922.1622622439404, 0.7991756225349957
978.8235379280686, 0.7925743484851309
1004.3211119859261, 0.6478656546559349
1070.8981109147771, 0.7570920604430128
1113.394067677873, 0.5237308160865253
1133.2255141673181, 0.7664845014815125
1255.0472568881937, 0.7451298261834409
1321.6242558170443, 0.7875975392687218
1447.6955942142295, 0.707858743322212
1490.1915509773257, 0.7592400932863568
2813.2323382017203, 0.7735536116830452
2851.4786992885065, 0.7207546851684864
2920.888762001564, 0.7004241967323593
##END=


$$ === CHEMSPECTRA PEAK TABLE AUTO ===
##TITLE=X7348
##JCAMP-DX=5.00
##DATA TYPE=INFRAREDPEAKTABLE
##DATA CLASS=PEAKTABLE
##$CSTHRESHOLD=0.93
##MAXX=3997.453
##MAXY=0.9721651700868514
##MINX=373.96442
##MINY=0.5237308160865253
##NPOINTS=81
##PEAKTABLE= (XY..XY)
3852.966747005473, 0.8886737255339304
3838.801428084441, 0.8990397479473874
3749.5599188819388, 0.8817862891483845
3735.394599960907, 0.8829423809283464
3674.483728600469, 0.8971139815953848
3648.9861545426115, 0.8781145832456513
3566.8273048006254, 0.9035451437792179
2959.13512308835, 0.8147226597495703
2920.888762001564, 0.7004241967323593
2851.4786992885065, 0.7207546851684864
2813.2323382017203, 0.7735536116830452
1772.0813975058636, 0.9032195829899514
1749.4168872322125, 0.8882014773711328
1732.4185045269742, 0.8741328142746678
1716.8366537138386, 0.8428674962302745
1698.421739116497, 0.8497089763545979
1684.2564201954651, 0.8488045358025307
1670.0911012744327, 0.8685088781017462
1663.0084418139168, 0.8917137406340103
1653.0927185691944, 0.8525912192766597
1647.4265910007816, 0.8610424424406827
1636.094335863956, 0.8752978468734084
1623.3455488350273, 0.8945705916307405
1616.262889374511, 0.8953098085679745
1597.8479747771694, 0.861566962930708
1570.9338688272087, 0.8821324731245009
1558.1850817982795, 0.8497734688571223
1541.1866990930412, 0.8382619043771629
1534.1040396325252, 0.8895217198676744
1521.3552526035965, 0.8629757190804596
1507.1899336825645, 0.8411856915493171
1490.1915509773257, 0.7592400932863568
1473.1931682720874, 0.875243010455165
1447.6955942142295, 0.707858743322212
1419.3649563721656, 0.877944888768729
1393.8673823143076, 0.8760377790761447
1388.2012547458949, 0.8771592402356033
1375.452467716966, 0.8768368981410972
1362.7036806880374, 0.884418073253522
1340.0391704143858, 0.8556054857240561
1321.6242558170443, 0.7875975392687218
1303.2093412197028, 0.890938463450668
1287.6274904065672, 0.8096035742653607
1255.0472568881937, 0.7451298261834409
1216.800895801407, 0.8683493757055321
1206.8851725566847, 0.8369510200885096
1189.8867898514463, 0.892688157692586
1175.721470930414, 0.9023547790115042
1155.8900244409692, 0.8961507706648115
1133.2255141673181, 0.7664845014815125
1113.394067677873, 0.5237308160865253
1086.4799617279123, 0.8305538918669948
1070.8981109147771, 0.7570920604430128
1029.818686043784, 0.836163284609836
1004.3211119859261, 0.6478656546559349
978.8235379280686, 0.7925743484851309
943.4102406254883, 0.8591612009134987
922.1622622439404, 0.7991756225349957
912.246538999218, 0.8175970338457074
890.9985606176697, 0.8056663301191958
861.2513908835026, 0.6593801997106205
790.424796278342, 0.8669242291109854
757.8445627599685, 0.5489164606581107
712.5155422126659, 0.8499463222724465
694.1006276153244, 0.5893234630476867
679.935308694292, 0.7586396360457702
651.6046708522281, 0.8653831506541072
623.2740330101637, 0.8904061936474349
600.6095227365126, 0.8511950997859152
566.6127573260355, 0.6860477349714685
529.7829281313525, 0.7410618088684712
512.7845454261137, 0.8317295936919115
502.86882218139135, 0.8426666877040021
484.45390758404983, 0.7870542426065614
457.5398016340887, 0.8554018161357746
444.79101460515994, 0.8405261062974734
436.2918232525408, 0.8563596037241216
419.29344054730245, 0.830008986310154
410.79424919468283, 0.8687216071161239
398.0454621657541, 0.8079899570217568
385.29667513682534, 0.8632454303095876
##END=

##END=

