##TITLE=X8802
##JCAMP-DX=5.0
##DATA TYPE=LINK
##BLOCKS=1


$$ === CHEMSPECTRA SPECTRUM ORIG ===
##TITLE=X8802
##JCAMP-DX=5.00
##DATA TYPE=INFRARED SPECTRUM
##DATA CLASS=XYDATA
##ORIGIN=ComPlat
##OWNER=
##XUNITS=1/CM
##YUNITS=TRANSMITTANCE
##XFACTOR=1
##YFACTOR=9.6564501e-010
##FIRSTX=3997.453
##LASTX=373.96442
##MAXX=3997.453
##MAXY=1.0368534324426082
##MINX=373.96442
##MINY=0.24291557099108838
##NPOINTS=2559
##XYDATA= (X++(Y..Y))
2559I71489253I71467526I70961935I70239194I69820265I69957727I70328634I70442208
2551I70204196I69867547I69630398I69548057I69689716I70087967I70577757I70858360
2543I70719848I70244564I69852054I69990812I70671271I71474933I72073421I72480499
2535I72778816I72918562I72825172I72544075I72274336I72242918I72362295I72121134
2527I71174455I70000626I69629843I70522513I71995770I73058000I73357367I73164661
2519I72841282I72505621I72202118I72136195I72567531I73454646I74247506I74267814
2511I73492113I72588456I72231993I72679501I73665623I74595883I74986913I74675447
2503I73847403I73054111I72833690I73220213I73914128I74660324I75260355I75486825
2495I75173508I74341390I73311629I72623948I72518953I72668575I72652527I72370134
2487I71900652I71365309I71092422I71560916I72741596I73929313I74347933I73565072
2479I72102802I71185997I71422467I72544631I73874501I74809699I74909139I73931905
2471I72289027I70893975I70363262I70644667I71231859I71662269I71748314I71724179
2463I72107863I73061086I74230223I75182273I75628423I75159743I73569578I72038608
2455I71615111I72124961I73167870I74327811I74943458I74378734I72850912I71457403
2447I71054276I71497031I72186501I72934549I73786789I74638721I75314427I75679284
2439I75598486I75038391I74208743I73330825I72471919I71851704I71817446I72439019
2431I73592725I74882412I75734775I75975936I75867361I75775329I75900446I76098892
2423I76041488I75528860I74638844I73997334I74307503I75472813I76866754I77759794
2415I77795163I77205070I76468503I75978960I75930444I76346781I77044831I77567891
2407I77446601I76607261I75534539I75011541I75379547I76287278I77191490I77727389
2399I77733931I77237290I76609854I76500044I77242475I78354455I79032383I79051888
2391I78744744I78303285I77538448I76484490I75694283I75915507I77291917I78435006
2383I77962747I76239009I74459532I74044492I75322574I77080879I78408773I78966584
2375I78474449I76854594I74967654I74303738I75296897I77059522I78422229I78581172
2367I77505610I76185061I75847485I76817065I78445253I79888944I80750504I81076352
2359I80981295I80379042I79308542I78592838I79046086I80345710I81590831I82027105
2351I81325969I79924004I78894551I78868379I79707410I81024811I82287709I82727686
2343I81735145I79623772I77844234I77463266I78171501I79394401I80682792I81470035
2335I81324364I80294540I78748447I77390678I77278646I78313469I79280518I79499766
2327I79509457I80229297I81490343I82565719I83081495I83119271I82853359I82336102
2319I81743169I81461332I81539229I81479788I80895003I79905733I79146266I79130094
2311I79674264I80531997I81580770I82575225I83175194I83202230I82760833I82087226
2303I81413680I80916051I80618783I80435768I80455149I80969073I81889952I82838915
2295I83561039I83739301I83046991I81772921I80981912I81156348I81677802I81933036
2287I81903223I81784525I81555957I81248935I81150113I81307451I81410162I81388867
2279I81564845I81993774I82207281I82019019I81893285I82233267I82875457I83462587
2271I83719179I83428082I82782684I82429430I82651641I83216550I83746338I83895404
2263I83573137I83072669I82785708I82816386I82955514I82944342I82678924I82263204
2255I81996675I82134507I82567880I82991932I83251919I83451106I83704365I83853986
2247I83691649I83322162I83011314I82808114I82569423I82235243I81918654I81873409
2239I82236415I82727872I82960699I82991191I83253894I83914539I84517471I84504632
2231I83910774I83299817I83232352I83850098I84755236I85328355I85288110I84907451
2223I84687524I84860231I85265087I85593835I85660251I85464397I85078121I84582529
2215I84126565I83928118I84142675I84700548I85205213I85139167I84513459I84058976
2207I84335567I85098305I85784751I86187755I86386572I86391510I86183743I85827156
2199I85397549I85009482I84849738I85000594I85382179I85909930I86462062I86787601
2191I86777416I86616251I86382251I85863080I85112008I84692832I85049110I86049614
2183I87296525I88425356I89087050I89187600I89147479I89456599I90044964I90436795
2175I90359639I89884416I89171799I88381716I87651322I86985924I86394720I86140350
2167I86452988I87023947I87203197I86730875I85964310I85408598I85249470I85348416
2159I85493470I85512790I85249655I84645489I83843555I83052238I82353014I81745206
2151I81213690I80678718I80073255I79512235I79248545I79476928I80221211I81356955
2143I82711329I84025583I84780605I84415316I83089334I81892729I81873595I83066126
2135I84610861I85544578I85468718I84806098I84487102I85095836I86297256I87280106
2127I87661136I87722923I87829214I87940381I87836003I87566820I87478676I87849213
2119I88589668I89316483I89699179I89686032I89420737I89089766I88880888I88884221
2111I88921071I88656949I88080682I87733540I88194318I89349567I90405748I90636785
2103I89972004I88930391I88201046I88194195I88799164I89540792I89940216I89740597
2095I89044645I88327892I88075868I88311781I88687935I88988722I89254264I89477771
2087I89546224I89500300I89544989I89753250I90012928I90292729I90667401I91049912
2079I91213422I91136389I91048122I91062010I91001643I90674252I90145205I89652144
2071I89350246I89254511I89357160I89633812I89966141I90205387I90302111I90288778
2063I90205511I90152366I90365935I91052072I92042700I92795377I92947715I92725319
2055I92557180I92504034I92367930I92137202I92001159I92069180I92248492I92364412
2047I92414533I92651187I93241157I93957787I94472019I94789349I95157601I95677389
2039I96183474I96398463I96163475I95585049I94943106I94495537I94395357I94591828
2031I94716328I94380913I93746131I93458738I93843472I94499919I94881196I94889220
2023I94679231I94270795I93648050I93060611I92931173I93435962I94259438I94846074
2015I94914651I94657319I94405788I94207465I93820572I93099930I92328056I92033997
2007I92422495I93151285I93767982I94157406I94446095I94714723I94938477I95055261
1999I95039768I94996499I95083099I95278521I95365554I95198217I94880208I94686329
1991I94858358I95386170I95934166I96145081I96062431I96079653I96448523I97012691
1983I97416744I97423966I97128302I96976705I97367364I98115103I98613041I98589462
1975I98369041I98301390I98295526I98080414I97674015I97399585I97524578I98020293
1967I98620324I98960245I98728775I97950112I97133117I96865600I97222248I97816909
1959I98381324I98954258I99448430I99387754I98372065I96743075I95521533I95536162
1951I96674622I98045848I98806055I98762909I98258800I97701606I97356377I97382425
1943I97716050I97945112I97638399I96853995I96077986I95648872I95507028I95484375
1935I95541532I95661896I95741028I95681957I95514188I95375615I95358394I95329691
1927I94920885I93799153I92009122I90037186I88515783I87843966I88060621I88987117
1919I90294457I91416745I91761974I91233606I90279519I89212723I87691566I85064541
1911I81060056I76039081I70780277I66213414I63237703I62481693I64001800I67144786
1903I70827682I74147264I76794968I78910476I80734332I82516092I84508829I86801736
1895I89184514I91205706I92378424I92546378I92150349I91888511I92029491I92252875
1887I92117635I91401499I90046013I88019266I85254285I81733478I77833618I74578600
1879I73199968I74181152I76768673I79587108I81714837I82974155I83297595I82159753
1871I78561790I71318213I59641469I44162822I27755273I14955685I09667069I12760181
1863I21825023I33246965I44377996I54020586I61775618I67555876I71457835I73681424
1855I74549034I74459039I73506804I71241673I67132935I61245275I54239834I46876571
1847I39769098I33478681I28531405I25221823I23375930I22208213I20272325I15524236
1839I05805663H90123015H70227250H50887444H37730838H33777647H37442581H43538440
1831H45887825H39573089H22910429G99347631G76991685G64143334G64128829G74415583
1823G90073973H07170870H23272756H36313257H44213467H45789806H41735570H34476129
1815H26919790H21086511H17515707H15568647H14101994H12004386H08446607H02914855
1807G95287840G86171458G77146923G70371532G67671671G69810265G76393752G86315402
1799G98229109H10722971H22405640H32186000H39577595H44764982H48468618H51659873
1791H55119201H59086589H63328161H67529796H71651806H75933252H80528756H85238143
1783H89777724H94174781H98560049I02615642I05581847I06910298I06725924I05585551
1775I03888848I01475207H97588988H91271042H82217743H71645448H62232970H56871086
1767H57089717H62340681H70476620H78796932H84989822H87824306H87510742H85470723
1759H83526009H83002270H84279921H86935092H90171222H93171253H95308365H96295659
1751H96099065H94551613H91277461H86271917H80334815H74663750H70222250H67668061
1743H67598867H70544024H76649265H85371716H95546254I05926336I15737620I24675925
1735I32544532I39157031I44508298I48785670I52202778I54934242I57166905I59111620
1727I60931094I62631130I64020009I64895457I65341052I65714674I66284768I67032569
1719I67838392I68636746I69324982I69751256I69918285I70062413I70438382I71084336
1711I71818681I72420995I72805235I73062012I73359342I73788332I74294603I74764825
1703I75149065I75473739I75780761I76083091I76327152I76439554I76521340I76881938
1695I77690477I78726164I79671918I80478296I81278070I82175246I83252289I84533519
1687I85810552I86743899I87216838I87407630I87495897I87509292I87485342I87541019
1679I87685394I87775513I87774587I87812980I87896309I87829893I87528427I87117275
1671I86713222I86404225I86350833I86612671I86998577I87297883I87510588I87737860
1663I88018031I88319127I88567818I88699601I88769597I88990080I89606776I90679993
1655I91950730I92974874I93443060I93367817I93031600I92826981I93055302I93740452
1647I94625654I95376170I95788618I95871021I95788124I95717326I95755904I95944351
1639I96268717I96583269I96640488I96289025I95604060I94766634I93856249I92838647
1631I91746481I90757581I90019780I89451908I88845643I88168887I87650890I87562190
1623I88035499I89066989I90469571I91826353I92747787I93229244I93567004I93948466
1615I94351347I94799225I95412959I96137613I96651290I96693942I96387476I96090455
1607I95991386I96013483I96111194I96411734I96933189I97400264I97560317I97498839
1599I97438286I97441558I97518776I97769874I98165039I98400829I98237813I97833821
1591I97524146I97374277I97140524I96620798I95905526I95316112I95190192I95648255
1583I96474694I97314157I97997949I98544587I98920803I99049623I98994811I98931049
1575I99013329I99362693I99988402A000637751A000913539A000599852I99784523
1568I98739516I97836167I97480259I97891411I98864077I99862668A000448131
1561A000591457A000551891A000532818A000521769A000389122A000049880I99566078
1554I99131656I98921852I98961171I99227824I99823781A000844037A002106873
1547A003235210A003929310A003972950A003269652A002188844A001535915A001786272
1540A002634623A003502357A004089795A004275773A004013565A003627844A003779997
1533A004769020A006065434A006815149A006687131A006005190A005228070A004648841
1526A004519588A005032154A006008153A006871812A007095998A006572260A005575027
1519A004577301A004097820A004400644A005162580A005593236A005068078A003633646
1512A001928240A000734721A000523004A001137725A001922129A002388957A002752272
1505A003558712A004898643A006304928A007398020A008265691A009061268A009526614
1498A009255085A008369328A007557271A007339566A007639798A008132920A008617834
1491A008956458A009075588A009173916A009579080A010242626A010606188A010140533
1484A008961273A007791580A007321728A007733496A008857513A010535327A012615035
1477A014674188A016020168A016230404A015711666A015461925A016094979A017263808
1470A018154317A018354677A018103332A017867789A017872480A018028768A018199624
1463A018407391A018748670A019187412A019541468A019668992A019580911A019328393
1456A018906871A018360541A017854086A017528918A017380345A017305287A017148196
1449A016770562A016233120A015810796A015689444A015753207A015716048A015347734
1442A014591106A013559122A012402268A011232699A010256144A009836475A010246515
1435A011434170A013110935A014894609A016309104A016923764A016723712A016244848
1428A016130718A016523661A017009500A017210909A017228316A017349668A017584285
1421A017785694A018030373A018523187A019263581A020098847A020939421A021633829
1414A021890421A021740305A021851966A022886790A024640897A026160633A026607647
1407A025834107A024318568A022819633A022053808A022360335A023334544A023868714
1400A022981044A020732271A018193081A016469096A015882521A016144174A016926356
1393A018046175A019287592A020344698A021109350A021755675A022423665A023088137
1386A023692118A024084691A023913342A023014684A021901840A021354461A021548772
1379A022131458A022954317A024169007A025613501A026563143A026405374A025376229
1372A024329370A023763843A023277078A022184604A020544379A019193708A018840764
1365A019431659A020365932A021143731A021745614A022329843A022687541A022409469
1358A021688950A021434642A022282068A023851802A025229076A025830835A025613871
1351A024882304A024266040A024581208A026221494A028652171A030702313A031441349
1344A030804777A029538731A028708403A029127949A030822430A032849609A033959367
1337A033656420A032487406A031347712A030810332A031032604A031972494A033568461
1330A035585641A037288023A037777380A036943719A035600331A034500944A033747526
1323A033252675A033152927A033451307A033774191A034022450A034948884A037339502
1316A040651800A043195496A043767072A042532690A040329965A037862560A035764398
1309A034762165A035185292A036456090A037510604A037766763A037434065A037047293
1302A037098897A037901818A039293598A040597976A041314235A041712979A042315911
1295A042987482A043269813A043605228A045158605A048058208A050800536A051894183
1288A051352607A050267601A049687383A050059956A051043734A051575064A050513267
1281A047589097A043844228A041088938A040681675A042577997A045426738A047745262
1274A049058898A049691703A049761454A049200495A048549665A048589662A049272589
1267A050005392A050711528A051662837A052691179A053378922A053502990A052876354
1260A051400999A049420607A047403427A045535498A044086314A043768922A044966639
1253A046513349A046183490A043019332A038603017A035458240A034722970A035822790
1246A037774046A039938256A041711252A042488988A042257767A041623478A041042891
1239A040505881A040044670A040020968A040552052A040977586A040500079A039403716
1232A038968183A039846533A041099061A041305347A040272683A039109781A038792019
1225A039257674A040007389A040935241A042076912A043060935A043495727A043569550
1218A043683496A043828673A043829291A043825834A043992986A044033971A043376598
1211A041775693A039497291A037043713A034922774A033517847A032940099A033104288
1204A033990724A035565766A037485914A039285451A040761918A041763224A041877044
1197A040906231A039482106A038884113A040181701A043367339A047123936A049696025
1190A050264020A049320983A047897846A046981226A047230720A048376340A049229999
1183A049003715A048234124A047953646A048875943A051501857A055530538A059240348
1176A060846562A060201533A058401009A056677641A056282476A058081766A061427519
1169A064358973A065309787A063997387A060890633A056923431A053732237A053053013
1162A055347708A059007767A061204938A060327452A057658700A056170630A057822767
1155A062041438A066290726A067894593A065975927A062088595A058769138A057768201
1148A059585639A063610122A068181616A071164671A071028876A067635101A062550671
1141A058683833A058890983A063757399A070273607A073741822A071761678A065907412
1134A059766124A056383458A057023795A060813477A065238187A067615349A066742678
1127A063469143A060103266A059123564A061425915A065409907A068074955A067376471
1120A063755177A059279235A055913235A054816995A055971010A057990906A059107886
1113A058521866A056629125A054425164A053021409A053281026A055186977A057367851
1106A057987450A056370249A053550765A051278659A050541167A051202491A052677475
1099A054386524A055708183A056001132A055037849A053421142A052287126A052369838
1092A053611379A055380053A056760475A057275141A057233785A057133172A057285139
1085A057914614A058999496A060113143A060825451A060988035A060591143A059803405
1078A059082949A058853208A059100479A059442190A059606626A059748717A060169436
1071A060969765A062168838A063790978A065562245A066895509A067340054A066886497
1064A065949631A065166462A064824381A064550939A063968006A063238537A062599064
1057A061953171A061295674A061048897A061448258A062164272A062731032A062937564
1050A062770165A062108965A060701507A058426933A055523503A052721918A051002500
1043A050937813A052376875A054760826A057413035A059532802A060615833A060987542
1036A061210123A061536031A062000576A062504254A062856088A062769919A061886384
1029A060199188A058407057A057066016A056020883A055135745A054568243A054332700
1022A054246160A054137771A053967657A053918646A054180361A054627376A054913040
1015A054746259A054060368A053084245A052167256A051490623A051115952A051202613
1008A051864802A052895737A053894204A054513307A054570218A054170485A053722484
1001A053600392A053699645A053512866A052535261A050730292A048592255A046557915
994A044748749A043105993A041398552A039434579A037175189A034504648A031462891
987A028580879A025951200A023050115A019802936A016525019A013323764A010461134
980A008523703A007516841A006889898A006313817A005649777A004722479A003245888
973A000843296I97706050I94616518I91375080I86818710I80147819I70470293
966I55697413I34939717I10448757H80676526H34084668G62133870F86053902
959F30143635E92612730E68729455E56655262E50080663E39662681E19796359
952D90199181D49924374C97004786C43069850C12219712C07654114C16621491
945C30447106C44988301C59003473C74927930C95153709D17561875D42428557
938D78228378E28800772E80778463F28119727F76077132G18172926G47308832
931G67569145G83410181G94563063H00503930H02354266H01301172G99564287
924G99021907G99575891H01372033H05583544H13898178H26379510H40565692
917H55696394H73668986H92992249I08129000I17836339I24422235I29292107
910I32766866I35108659I36482971I37041708I36916591I35172977I29979479
903I23468765I18241195I12694320I05681534H98734731H93313529H87386180
896H78003763H63424823H42136228H08427534G54123666F91702747F48698420
889F28298175F22331692F26254330F34317803F36530528F23278125E90122797
882E44238556D98704453D55669016D08209549C56986448C15301158B87854115
875B69249426B56847473B51557838B53460873B59956572B68130777B77625198
868B90344759C07849381C30027467C55870147C84177052D13470450D41985678
861D68414717D92506068E14114245E31775186E43048001E46405297E42896650
854E36564384E32594157E34418754E43952707E62568353E85822092F05257449
847F20881397F38686528F61964032F86422155G07163987G24676541G39618179
840G51331958G61586306G76662627G98819078H16832224H28762411H39004291
833H48063145H54864153H59334478H62485550H65875128H71084181H78788846
826H88427670I00290762I14715451I27094443I34845339I40256727I45686262
819I51585217I56579713I60095828I62956792I65878061I68726062I70960392
812I72417292I73536000I74908028I76505415I78070334I79296320I79121453
805I76159630I69831808I59659801I41107609I03201229H49149139G99094373
798G52675962G02584840F50498327F08038108E90407288F00886316F24935200
791F49032230F68957870F81725236F82442545F72739218F62184577F58930547
784F66195851F81716903F96624715F97622318F73222465F21387111E56442989
777E08598788E02612801E29094460E64644850E99240043F30234433F52671672
770F61760524F59518047F50014833F33433774F09376187E87900133E79550132
763E79174657E78236002E71051928E57026478E45295971E50462865E76938168
756F13761393F43371287F52551123F38062425F04070411E63658482E35094765
749E21067652E12506241E04286480D96521540D90798224D90182299E00510162
742E25571370E62111956F05804951F55300117G03457635G40212963G66926895
735G90129649H12728114H34355518H53697114H70116083H84401272H97544052
728I09022781I17707272I23329328I25820187I24568153I18243602I04876946
721H83702296H56425986H24033828G84529691G36265512F84380470F40686549
714F14261676F08921951F25457457F58050284F92749236G14710450G14408675
707F88919557F44322596E93010796E46203270E13030103D99278497E03471306
700E19974560E43842219E70932613E98843582F28204229F60254800F94310637
693G27734532G57493801G81351336G97867769H06425600H07782629H03873879
686G96634808G87611199G79636054G78573702G90154031H13144636H40158985
679H64994063H85524980I02188751I16134946I28280431I39054197I48354767
672I55599085I60129530I61790803I61125590I59164148I56963088I54842087
665I51693360I44735509I29695481I01939072H59770937H09520502G66991336
658G49286754G62422929G97707284H39965785H77903706I07305586I28250556
651I42329768I51664596I58358016I63774281I67911228I69331031I66112185
644I57709593I46724974I38841553I39654474I50408673I67147070I84166378
637I97742283A006975079A012496091A015058551A014926583A012029016A006510041
630I99119990I90922758I82489736I73388229I62132945I46010319I20629220
623H79691453H16306202G28079452F25014208E32057209D78401517D79300977
616E26909882E97873940F68312471G22838117G54645861G62582180G49185834
609G18541117F73763054F17401946E55683831E01303670D69246094D68022947
602D94594232E37469399E84700669F30112032F73778238G17853498G61972767
595H01889599H31585229H45758758H39740056H08074712G46790216F60623361
588E67496555D91980478D51830911D50203711D78610673E24140086E73450076
581F13086490F30525653F18974026E83716337E43062197E19381134E25879441
574E60670179F12268569F68775595G22210063G67953632H03240332H26084648
567H34128246H23312507G87800510G24127866F39490314E56049553E02218500
560D95207812E30996276E90437163F53140290G06251071G44765938G68098686
553G77050200G71746955G50270593G09360294F48361153E73346686D96211309
546D29051808C79831999C52176387C46254470C58774565C83938670D15965476
539D50928797D86669579E21849217E55220028E85133301F08915717F21916405
532F16906787E85993071E26559653D47752233C69910411C14475892B92451008
525C01160498C29446910C64057812C92477767D04170343C94156476C66978309
518C34433628C07516158B92130438B91966681C10109265C45355195C90600641
511D37296074D80091801E17205474E48771841E75736810E99184861F19878671
504F38193406F54288008F68393886F81064962F93086317G05180077G17825536
497G31152257G44882722G58450912G71218155G82678058G92628842H01104948
490H08033356H13071060H15753329H15436432H10835187G99600149G78228164
483G42586606F89959380F22887343E51805018D91396774D50756522D26672980
476D08932783C92842501C84402689C92570972D19148337D57750452E00053704
469E40335239E75123693F01214200F14556908F10125346E83701708E36561792
462D79738393D31683184D08584313D15234372D44559064D84777238E26496446
455E65002857E99051287F28943450F55053771F77007023F93284517G00689382
448F94034108F67931811F21646789E63848842E11442438D80864107D78604316
441D99425527E32469407E68224419F01361785F30037098F54227024F74599739
434F92010447G07175406G20513176G32276458G42654195G51781070G59922811
427G67519518G74872596G82060065G89141923G96095083H02726099H08928681
420H14776589H20311921H25516591H30436276H35196154H39983500H44894173
413H49686333H53892536H57228167H59797417H61979095H64103491H66155484
406H67744909H68014648H65288060H56798559H38669679H07523630G65415306
399G23712146F97971745F95696615G08503794G15776938F99159585F60946677
392F28343666F30944150F72369052G30063362G80399780H15625187H39217490
385H55724726H67561955H75697338H79805151H77712913H65283801H39130272
378H02384450G67203238G48177861G51698112G72470560G99871431H25742999
371H46619084H62049647H73009205H81013484H87414512H93066258H98322222
364I03168885I07408235I10668869I12468530I12560562I10799788I06143053
357H95863583H76104354H44611533H05613851G72384761G60967942G77726832
350H13786331H53040913H84251465I05068602I18050341I26333803I32194920
343I36748883I39910757I40905583I38489102I30052438I10213522H70275025
336H01090875G01645691E88397515D92370149D39751411D33816346D58661948
329D98195713E46193456F00430969F55515106G04489804G43722905G73842588
322G97291256H16194602H31903731H45205947H56324880H65179794H72118634
315H78135546H84314919H91381715H99432843I07416321I12887212I12494269
308I01907716H73521524H14710358G15265483E85572476D65877039D04949778
301D22519706D96288651E86496379F66334548G28709667G75960194H11439168
294H37603684H56469008H70045839H80180502H88159906H94704630H99924423
287I03124443I02858222H96899517H83567241H66009998H54077897H57212674
280H74786459H96846433I14188997I24642347I30695306I35097672I39274062
273I43394528I46706271I48316867I47862199I45276098I40071243I30142927
266I10633192H77257381H35455400H03954863H01732323H30206535H72889705
259I11649868I38823900I55580505I65239699I70265304I72460870I73305209
252I73684449I73437980I71054214I63234864I42974427H97179009H12100246
245F91882676E71414563D97475442D93150942E44724889F19324193F89682357
238G43707659G79714569H00278324H10153926H16006587H24649167H39616111
231H59662177H81017249I00574143I16947003I29842696I39544974I46799415
224I52590536I57767059I62801676I67811665I72624380I76790708I79814750
217I81660519I83066188I85171696I88500167I92226703I94879344I95762570
210I94933045I92203803I87156717I77412220I54958315I09440723H42244618
203G79581613G56202756G81831929H34431749H84679159I18136139I33721508
196I32310223I12930913H77012209H33560683G98774019G87488860H02899547
189H35546691H71944384I03144627I26767546I44077148I57010308I67075098
182I74993023I80716864I84176069I85821046I86234666I85641549I83705537
175I78966769I67980854I45533677I08087027H59807910H14586722G89259386
168G92636804H19892066H57296620H92044459I18321006I36876161I51147586
161I63785700I75346585I84935104I91648153I95514065I97520257I99196529
154A001933487A006179441A011266771A015994305A019254569A020548885A020401177
147A020251000A021511799A024374676A027555808A029259486A028395456A024860885
140A018889218A010345954I98122572I79438782I49503102I03379615H41921733
133G77923118G32984755G23611349G49464832G95239016H42658856H80836826
126I08229859I28297899I44393119I57423312I66619936I71559188I73063617
119I72162490I68690262I61044051I46549736I21607318H82743889H30158142
112G72105455G24363903G02603728G13704699G50761185G96584564H36964828
105H68107050H92240621I12174162I29496232I44795999I58053588I68282382
98I73806480I74203805I71543942I68877413I67707164I66856776I63280232
91I54280264I39465780I20053571H97453748H73513809H49876262H26084833
84H00074878G70852989G39699471G09945757F86964658F76779133F82388165
77G01570633G28968789G58965268G86946912H11007833H33044536H56001934
70H79594421I00862276I18252738I31619641I40985085I47950343I55558963
63I65244081I75521083I83682020I87340350I85848205I81813474I80035541
56I84415562I94318077A004455456A009727468A008980161A004811055A001526224
49A003062009A010155903A019189079A024524730A021469517A008933373I89762200
42I67675931I45296344I24722096I08023759H97032597H93086319H96063202
35I04327961I17768318I39010927I66259091I90561419A006269189A011696255
28A008579749A004974441A010364904A026418398A045824743A059386637A061774662
21A051857272A031689361A007845528I93300845I95649490A003226815A002658388
14I89115073I61271200I22614735H84017280H59025667H56178653H72392200
7H94783515I13803461I27351158I36418900I44931918I60720611I86198557
##END=


$$ === CHEMSPECTRA PEAK TABLE EDIT ===
##TITLE=X8802
##JCAMP-DX=5.00
##DATA TYPE=INFRAREDPEAKTABLE
##DATA CLASS=PEAKTABLE
##$CSTHRESHOLD=0.93
##MAXX=3997.453
##MAXY=1.0368534324426082
##MINX=373.96442
##MINY=0.24291557099108838
##$CSSOLVENTNAME=- - -
##$CSSOLVENTVALUE=0
##$CSSOLVENTX=0
##NPOINTS=59
##PEAKTABLE= (XY..XY)
385.29667513682534, 0.8267646439379716
424.95956811571523, 0.8624043474416182
440.5414189288799, 0.975452007053994
454.70673784991186, 0.9480832819188647
484.45390758404983, 0.6535283926535763
528.3663962392493, 0.6784657839505973
558.1135659734164, 0.6987516883412185
611.9417778733382, 0.7621443876865638
643.1054794996089, 0.7604346880895886
658.687330312744, 0.7302234178796475
715.3486059968723, 0.47620874631909943
743.6792438389366, 0.7741888170606582
772.0098816810005, 0.8247360593893439
800.3405195230648, 0.3910377324263078
841.4199443940574, 0.41891258977133344
871.167114128225, 0.7348248959622694
905.1638795387021, 0.7224742180671236
927.8283898123532, 0.6067569256380067
934.9110492728691, 0.6717959647486411
998.6549844175133, 0.46216186950986315
1024.1525584753713, 0.3945474030127281
1043.984004964816, 0.37119653846343187
1102.0618125410474, 0.2819361685939118
1117.6436633541825, 0.2824038565446701
1141.7247055199373, 0.33435890114569466
1165.8057476856916, 0.4781949525708181
1188.4702579593431, 0.5015378003352413
1201.219044988272, 0.4347369670106321
1226.7166190461294, 0.45194402333604444
1247.9645974276777, 0.4619660376674802
1281.9613628381544, 0.9065876608351005
1304.625873111806, 0.7235450150591975
1340.0391704143858, 0.751825810253527
1366.953276364347, 0.48212578922835
1382.535127177482, 0.5880024434626145
1426.4476158326815, 0.473342091019678
1447.6955942142295, 0.5265623333692547
1471.7766363799842, 0.485345543247773
1484.525423408913, 0.6362929946471204
1497.2742104378417, 0.5701238515248329
1580.849592071931, 0.5142968900622066
1609.180229913995, 0.24291557099108838
1630.4282082955433, 0.6009514929446569
1681.4233564112587, 0.771571517375234
1714.0035899296322, 0.2970846599900711
2079.4688180922753, 0.9976120005168029
2406.687685168113, 0.9755395060796401
2677.245276559823, 0.9548738608231914
2841.562976043784, 0.8377925166002036
2862.810954425332, 0.8526667358441726
2876.976273346364, 0.8274332884091808
2926.5548895699767, 0.7412983184195117
2957.718591196247, 0.7378771907209932
2970.4673782251757, 0.8051332242750915
3014.379866880375, 0.8784154659411757
3035.6278452619313, 0.941096961942786
3072.4576744566143, 0.9294156440618019
3096.5387166223686, 0.9545553331601928
3416.6749242376904, 0.9464028481252075
##END=


$$ === CHEMSPECTRA PEAK TABLE AUTO ===
##TITLE=X8802
##JCAMP-DX=5.00
##DATA TYPE=INFRAREDPEAKTABLE
##DATA CLASS=PEAKTABLE
##$CSTHRESHOLD=0.93
##MAXX=3997.453
##MAXY=1.0368534324426082
##MINX=373.96442
##MINY=0.24291557099108838
##NPOINTS=141
##PEAKTABLE= (XY..XY)
3991.786872431587, 0.9365020994941277
3981.871149186865, 0.9362392431972455
3971.9554259421425, 0.9365327963833505
3956.373575129007, 0.9388415222745391
3949.290915668491, 0.9363182194400334
3936.542128639562, 0.9387384657421369
3926.62640539484, 0.9388309726028049
3915.2941502580143, 0.9394119983083868
3901.128831336982, 0.9391080740948745
3892.6296399843627, 0.9377305515531142
3882.7139167396404, 0.937820911784925
3869.9651297107116, 0.9370264418376226
3862.8824702501956, 0.9383406045476967
3850.1336832212664, 0.9382352835777461
3838.801428084441, 0.9376937160585628
3818.969981594996, 0.9384306673608445
3809.054258350274, 0.9422525773299583
3800.555066997654, 0.9405356653304033
3787.8062799687254, 0.9424023633556844
3777.890556724003, 0.9415150292590604
3766.5583015871775, 0.9429523947533804
3753.809514558249, 0.9421743156644778
3743.893791313526, 0.9405812032177849
3732.5615361767004, 0.9408315428240474
3722.645812931978, 0.9423222544112998
3709.8970259030493, 0.9449732908364383
3698.564770766224, 0.9452393656281387
3687.2325156293978, 0.9438825252712026
3674.483728600469, 0.9437042478894564
3656.0688140031275, 0.9477432377537532
3647.5696226505083, 0.9454920894119309
3630.5712399452696, 0.9467529069947177
3617.822452916341, 0.9472802882230591
3606.4901977795153, 0.9474427106793861
3602.2406021032057, 0.9476732622881037
3595.1579426426897, 0.9481603510127579
3585.2422193979673, 0.9486780767566443
3575.3264961532445, 0.949022114829517
3566.8273048006254, 0.9482601890503417
3545.5793264190775, 0.948141157852539
3529.997475605942, 0.9494534143793635
3521.4982842533227, 0.9508585939598552
3508.749497224394, 0.9501252773453912
3500.250305871775, 0.9502516397201097
3484.6684550586397, 0.9510152350995074
3469.086604245504, 0.9508637196035683
3459.1708810007817, 0.9551653272504298
3443.5890301876466, 0.9522615081371535
3433.6733069429242, 0.9514012343106447
3413.841860453479, 0.9456064710290104
3399.676541532447, 0.948141337462511
3391.177350179828, 0.950665057455661
3377.012031258796, 0.9535538559608068
3365.6797761219705, 0.9549078949815688
3358.597116661454, 0.9537999641106354
3347.2648615246285, 0.9542447933127169
3337.349138279906, 0.9541305314356187
3327.4334150351838, 0.955506027088503
3314.6846280062546, 0.9570006736791712
3304.768904761532, 0.9552686821671401
3293.4366496247067, 0.9561356913675936
3277.8547988115715, 0.9579209691025665
3252.357224753714, 0.9602329144542185
3245.2745652931976, 0.9593284729905973
3232.525778264269, 0.9588190324808967
3216.9439274511337, 0.957952678953405
3202.7786085301013, 0.9608134042268199
3194.279417177482, 0.9605138901140683
3187.196757716966, 0.9618427161436193
3177.281034472244, 0.9627255802694921
3163.115715551212, 0.9631339322313208
3151.7834604143864, 0.962618292280656
3139.034673385457, 0.9613204006890003
3127.7024182486316, 0.9630922086417287
3114.953631219703, 0.9612845192517188
3095.1221847302577, 0.9539065964265097
3072.4576744566066, 0.9294156440618019
3049.7931641829555, 0.95781219112348
3034.2113133698203, 0.9397656928313597
3014.379866880375, 0.8784154659411757
2970.4673782251757, 0.8051332242750915
2957.718591196247, 0.7378771907209932
2926.5548895699767, 0.7412983184195117
2876.976273346364, 0.8274332884091808
2862.810954425332, 0.8526667358441726
2841.562976043784, 0.8377925166002036
2753.737998733385, 0.9535602929504434
2748.0718711649724, 0.9538396009413609
2736.739616028147, 0.9524647599957933
2709.825510078186, 0.9587184199960148
2698.4932549413606, 0.9615094672224432
2672.9956808835027, 0.9536345008381719
2648.914638717748, 0.9617741118938838
2637.5823835809224, 0.9631713036588528
2617.7509370914777, 0.9610004429057419
2590.836831141517, 0.9632118346768576
1714.0035899296322, 0.2970846599900711
1681.4233564112587, 0.771571517375234
1630.4282082955433, 0.6009514929446569
1609.180229913995, 0.24291557099108838
1580.849592071931, 0.5142968900622066
1497.2742104378417, 0.5701238515248329
1484.525423408913, 0.6362929946471204
1471.7766363799842, 0.485345543247773
1447.6955942142295, 0.5265623333692547
1426.4476158326815, 0.473342091019678
1382.535127177482, 0.5880024434626145
1366.953276364347, 0.48212578922835
1340.0391704143858, 0.751825810253527
1304.625873111806, 0.7235450150591975
1281.9613628381544, 0.9065876608351005
1247.9645974276777, 0.4619660376674802
1226.7166190461294, 0.45194402333604444
1201.219044988272, 0.4347369670106321
1188.4702579593431, 0.5015378003352413
1165.8057476856916, 0.4781949525708181
1141.7247055199373, 0.33435890114569466
1117.6436633541825, 0.2824038565446701
1102.0618125410474, 0.2819361685939118
1043.984004964816, 0.37119653846343187
1024.1525584753713, 0.3945474030127281
998.6549844175133, 0.46216186950986315
934.9110492728691, 0.6717959647486411
927.8283898123532, 0.6067569256380067
905.1638795387021, 0.7224742180671236
871.167114128225, 0.7348248959622694
841.4199443940574, 0.41891258977133344
800.3405195230648, 0.3910377324263078
772.0098816810005, 0.8247360593893439
743.6792438389366, 0.7741888170606582
715.3486059968723, 0.47620874631909943
658.687330312744, 0.7302234178796475
643.1054794996089, 0.7604346880895886
611.9417778733382, 0.7621443876865638
558.1135659734164, 0.6987516883412185
528.3663962392493, 0.6784657839505973
484.45390758404983, 0.6535283926535763
453.2902059577791, 0.9463664297893004
424.95956811571523, 0.8624043474416182
398.0454621657541, 0.9591760044030334
385.29667513682534, 0.8267646439379716
##END=

##END=

