##TITLE=X8765
##JCAMP-DX=4.24
##DATA TYPE=INFRARED SPECTRUM
##DATE=2/11/2018
##SAMPLING PROCEDURE=ATR platinum Diamond 1 Refl
##ORIGIN=ComPlat
##XUNITS=1/CM
##YUNITS=TRANSMITTANCE
##RESOLUTION=4
##FIRSTX=3997.453
##LASTX=373.96442
##DELTAX=-1.4165319
##MAXY=1.0455892
##MINY=0.46654871
##XFACTOR=1
##YFACTOR=9.7378083e-010
##NPOINTS=2559
##FIRSTY=0.97756141
##XYDATA=(X++(Y..Y))
3997+1003882372+1003895471+1003545291+1003213352+1003332588+1003840321
3989+1004294067+1004451621+1004442133+1004457252+1004571469+1004718984
3980+1004637453+1004058349+1003085914+1002132454+1001503832+1001328895
3972+1001726022+1002633270+1003644451+1004347687+1004667506+1004719229
3963+1004620375+1004533396+1004544414+1004475125+1004131066+1003689623
3955+1003461128+1003317531+1002844381+1002134106+1001942031+1002705130
3946+1003837261+1004522318+1004652510+1004596320+1004535784+1004375598
3938+1004062757+1003676280+1003351625+1003205946+1003204110+1003148348
3929+1003036212+1003176014+1003749303+1004478675+1004836139+1004552800
3921+1003802126+1003045638+1002846340+1003422628+1004272950+1004693092
3912+1004501996+1004025725+1003640227+1003396613+1003063940+1002504852
3904+1001945214+1001660345+1001422056+1000859051+1000223635+1000127597
3895+1000770358+1001887493+1003054820+1003883413+1004315613+1004567368
3887+1004579426+1004033070+1003135922+1002584608+1002490407+1002484469
3878+1002566000+1002915078+1003229634+1003024582+1002408937+1002008627
3870+1002099523+1002422525+1002687134+1002757403+1002580446+1002373619
3861+1002560186+1003248670+1004200723+1005174199+1005973595+1006062655
3853+1004740652+1002928606+1002113846+1002331629+1003077161+1003833160
3844+1004074631+1003538742+1002638656+1002168445+1002453926+1003055921
3836+1003462475+1003702722+1003967209+1004239897+1004385025+1004302514
3827+1004002832+1003620212+1003229879+1002603277+1001477328+1000351869
3819+1000145532+1000823305+1001840178+1002828161+1003526929+1003776908
3810+1003669057+1003533784+1003720963+1004222269+1004552310+1004163569
3802+1002906203+1001633657+1001541782+1002502771+1003558023+1004010606
3793+1003956068+1003947254+1004286110+1004849911+1005395716+1005777663
3785+1005827243+1005379679+1004577590+1003890880+1003796985+1004391880
3776+1005290558+1006045822+1006452315+1006466882+1006069143+1005345402
3768+1004625639+1004256056+1004368437+1004910937+1005676729+1006322122
3759+1006540395+1006394043+1006249283+1006201356+1006060145+1005784029
3751+1005539681+1005239081+1004587016+1003653877+1002772705+1002370926
3742+1002596177+1003067918+1003383209+1003274072+1002641839+1001795312
3734+1001297740+1001359745+1001858908+1002607194+1003268930+1003427769
3725+1003048454+1002751159+1003166466+1004217311+1005311063+1005924995
3717+1005944398+1005628618+1005337812+1005252241+1005280152+1005276970
3708+1005286457+1005438624+1005735674+1005864397+1005328018+1004176667
3700+1003302596+1003291088+1003896940+1004732511+1005511892+1005799515
3691+1005127863+1003526010+1001907447+1001355276+1002015482+1003404081
3683+1004909774+1005914895+1005996671+1005113173+1003629822+1002581670
3674+1003204722+1004912283+1006012769+1005721473+1004897287+1005017502
3666+1006007321+1006913222+1007287763+1007338077+1007378476+1007416303
3657+1007274175+1006893574+1006454212+1006115479+1005848238+1005605787
3649+1005412732+1005219984+1005033172+1005060043+1005422097+1006007260
3640+1006578284+1006884576+1006732654+1006165670+1005592443+1005503077
3632+1005998140+1006749793+1007217189+1006998487+1006412222+1006023726
3623+1006041538+1006337853+1006578100+1006591627+1006675607+1007011769
3615+1007196377+1006852135+1006245488+1005914405+1005900694+1005928851
3606+1005994529+1006138922+1006059043+1005555779+1005047311+1005139065
3598+1005772093+1006431381+1006889595+1007227349+1007463312+1007502425
3589+1007245039+1006689195+1006129802+1005872783+1005790701+1005693439
3581+1005657509+1005800311+1006015768+1006183238+1006513524+1007332691
3572+1008500262+1009333997+1009157897+1007818694+1006013014+1004917609
3564+1004931442+1005583935+1006370906+1007097708+1007806881+1008465373
3555+1008763402+1008367744+1007369417+1006353584+1005817266+1005716515
3547+1005755138+1005890350+1006301249+1006878945+1007207456+1007115458
3538+1006893757+1006876129+1007022236+1007110684+1007143982+1007282377
3530+1007577406+1007961129+1008375517+1008746692+1008845606+1008411141
3521+1007584752+1006927790+1006761606+1006831263+1006839709+1006901837
3513+1007166691+1007450703+1007569266+1007683666+1008052453+1008630210
3504+1009024705+1008847932+1008244039+1007762382+1007519441+1007076651
3496+1006261402+1005542496+1005358684+1005526582+1005580324+1005361561
3488+1005112989+1005134045+1005457476+1005878537+1006261708+1006709456
3479+1007282193+1007697377+1007634943+1007222208+1006885372+1006816817
3471+1006927178+1007130332+1007377496+1007634515+1007933891+1008192195
3462+1008106257+1007612479+1007174709+1007209231+1007517299+1007608991
3454+1007316960+1006820245+1006301433+1005884229+1005706293+1005708007
3445+1005532213+1005024603+1004597605+1004745243+1005404347+1006081569
3437+1006427463+1006465658+1006412161+1006401021+1006354502+1006129496
3428+1005790701+1005631923+1005860357+1006303025+1006517013+1006243713
3420+1005668588+1005171995+1004971595+1005066409+1005315164+1005530316
3411+1005600156+1005530499+1005436726+1005499772+1005752751+1005909019
3403+1005698458+1005276786+1005008933+1005028214+1005230144+1005412916
3394+1005323060+1004896369+1004473105+1004441215+1004706130+1004789742
3386+1004426035+1003856725+1003504771+1003486836+1003564817+1003494059
3377+1003273827+1003113275+1003235143+1003649898+1004086016+1004254036
3369+1004163752+1004052106+1004047821+1004077753+1004051984+1003930850
3360+1003694826+1003473921+1003551841+1003931401+1004106827+1003629638
3352+1002672627+1001693214+1000843626+1000012523+999160977+998336607+997513707
3342+996602052+995598645+994630739+993774418+992863865+991657793+990178298
3332+988668810+987204067+985554103+983493608+981098541+978598377+975995321
3322+973021641+969499033+965548755+961394344+957091560+952470242+947300549
3312+941604025+935844761+930675802+926470464+923213261+920809870+919315623
3302+918814562+919228890+920344249+921919047+923688859+925383077+926891340
3292+928363429+929983828+931668987+933145544+934290529+935221526+936089293
3282+936976953+937975648+939188453+940661276+942400483+944399953+946625163
3272+949045877+951621573+954204247+956637386+959009070+961527168+964132673
3262+966561038+968748666+970840256+972895059+974870596+976733018+978406792
3252+979822996+981062672+982213472+983184255+983942273+984743506+985813815
3242+987019826+988111865+989027743+989756503+990227755+990511461+990846767
3233+991336321+991841054+992209474+992429278+992565836+992682257+992814714
3223+992941969+992948273+992634880+991919341+991103174+990733468+991054696
3213+991758605+992345359+992555308+992473410+992418505+992657038+993113539
3203+993484530+993611294+993520276+993240426+992868333+992621782+992586280
3193+992642164+992780131+993164343+993821182+994614641+995541291+996671770
3183+997824834+998651959+999027418+999132514+999227450+999462740+999810716
3173+1000124537+1000322550+1000450906+1000521848+1000452375+1000226634
3165+999981980+999901183+1000091606+1000503485+1000904468+1001042557+1000916098
3155+1000822693+1001088893+1001716596+1002283090+1002321469+1001882474
3146+1001511973+1001514666+1001529785+1001070407+1000206680+999431033+999063348
3136+999017196+998988611+998741386+998282804+997769501+997267400+996774969
3126+996413221+996289578+996226593+995934930+995409263+994932869+994779417
3116+995049167+995671851+996475716+997318571+998179054+999061879+999813960
3106+1000155631+999998078+999621823+999360030+999246242+999175606+999197641
3097+999359234+999473451+999315898+998869069+998219697+997432543+996628617
3087+995983653+995557083+995219329+994769623+994110336+993357459+992786680
3077+992601154+992760727+993074242+993363580+993449089+993089483+992115579
3067+990631248+989032150+987817631+987316142+987474001+987924625+988299227
3057+988407813+988120802+987293922+985989731+984643857+983764276+983467961
3047+983490241+983629799+983935051+984508767+985360681+986333178+986980224
3037+986829526+986025111+985367782+985487936+986296697+987360151+988416015
3027+989387288+990247771+991070916+992013420+993121741+994249159+995188663
3017+995823957+996179217+996422586+996788680+997382779+998094524+998772847
3007+999397184+999978430+1000395022+1000499751+1000406835+1000511809+1001043659
2997+1001672893+1001848074+1001519930+1001182482+1001149735+1001193745
2989+1000992304+1000576814+1000230735+1000171913+1000405978+1000735653
2980+1000877047+1000621558+999932155+998933890+997820366+996717799+995678340
2970+994826487+994318325+994048575+993579710+992525377+990916485+989144102
2961+987630207+986558368+985804512+985098031+984265705+983350867+982560652
2951+982081443+981857661+981602173+981140592+980626799+980242526+979852193
2941+979187947+978185458+976879431+975156873+972861516+969964532+966515682
2931+962669583+958785778+955191434+951928967+949079481+947183761+946907278
2921+948342090+950916072+953928008+956995890+960072463+963200636+966296185
2911+969149588+971622024+973796002+975907424+978111946+980327913+982315998
2901+983887797+985012583+985799676+986454312+987197824+988115721+989076711
2891+989886329+990523642+991118476+991733632+992336300+992936766+993531171
2881+993978980+994155263+994106235+993895245+993513176+993085138+992872863
2871+992928747+993004096+992876413+992502484+991818407+990713086+989314387
2861+988047656+987231366+986717757+986069855+985078138+984014684+983356070
2851+983359620+984036536+985381799+987328506+989559164+991679706+993501056
2842+994929564+995867722+996477919+997190276+998204946+999307818+1000256321
2832+1001027561+1001692541+1002336832+1003053228+1003833649+1004543986
2823+1005081956+1005463659+1005744549+1005957680+1006125088+1006252955
2815+1006303269+1006248793+1006171791+1006233552+1006505322+1006896818
2806+1007247916+1007429524+1007408591+1007286784+1007191848+1007099177
2798+1006901470+1006641513+1006464740+1006342137+1006084323+1005678810
2789+1005388004+1005399327+1005555595+1005574693+1005453681+1005500017
2781+1005948989+1006640779+1007180402+1007386800+1007437175+1007531989
2772+1007638065+1007665181+1007660713+1007705212+1007825366+1008105644
2764+1008676974+1009463394+1010095810+1010239530+1009972167+1009712394
2755+1009785907+1010170302+1010614377+1010842322+1010708946+1010335690
2747+1010026521+1009939726+1009982083+1010054922+1010169935+1010309615
2738+1010417466+1010499977+1010564492+1010548087+1010435768+1010315736
2730+1010231145+1010113010+1009909121+1009690481+1009594749+1009715455
2721+1010035703+1010440114+1010791028+1011008934+1011082079+1011018054
2713+1010847769+1010693582+1010732512+1011022522+1011426811+1011759852
2704+1011930627+1011920221+1011754710+1011524318+1011314859+1011126150
2696+1010960946+1010915834+1011049699+1011263749+1011438441+1011588833
2687+1011781520+1012004568+1012201111+1012364847+1012542048+1012767728
2679+1012985817+1013058779+1012919956+1012680443+1012519095+1012534152
2670+1012725310+1013007547+1013225820+1013288192+1013297068+1013420588
2662+1013663529+1013875987+1013976983+1014059248+1014240673+1014455151
2653+1014468679+1014133924+1013579366+1013088343+1012838058+1012802311
2645+1012851524+1012871049+1012828386+1012803903+1012924608+1013207334
2636+1013538539+1013856829+1014233940+1014676852+1015002732+1015074224
2628+1015062839+1015285581+1015809045+1016379946+1016745122+1016884251
2619+1016935850+1017064635+1017390392+1017860481+1018220822+1018264342
2611+1018026420+1017661734+1017293865+1017018850+1016859951+1016775053
2602+1016858849+1017310147+1018032419+1018578591+1018634414+1018251610
2594+1017584977+1016774563+1016100830+1015929505+1016403205+1017265770
2585+1018014117+1018269789+1018034500+1017559086+1017086365+1016826102
2577+1016944481+1017368846+1017792233+1018003528+1018000161+1017778093
2568+1017308188+1016742979+1016385577+1016410673+1016714517+1017016157
2560+1017129517+1017149104+1017255486+1017399818+1017466414+1017625069
2551+1018108992+1018707866+1018929016+1018647329+1018199153+1017861399
2543+1017608114+1017420201+1017482084+1017899655+1018429668+1018725984
2534+1018788601+1018959682+1019476535+1020191278+1020740082+1020853993
2526+1020518688+1019977718+1019585243+1019519993+1019636536+1019674364
2517+1019549741+1019342057+1019109584+1018882252+1018745326+1018758547
2509+1018846628+1018896085+1018908755+1018957723+1019005956+1018861195
2500+1018408306+1017901553+1017834773+1018373050+1019086079+1019439258
2492+1019362501+1019138719+1018983982+1018934402+1018931097+1018892657
2483+1018877355+1019133027+1019778175+1020530501+1020948440+1020856748
2475+1020424364+1019931505+1019525686+1019168467+1018833529+1018710008
2466+1019024625+1019607951+1019894596+1019576735+1019060494+1018984594
2458+1019448562+1020027420+1020356176+1020377049+1020184851+1019907327
2449+1019600545+1019185361+1018679464+1018382231+1018513036+1018815900
2441+1018887822+1018797415+1018987409+1019548945+1019978759+1019828306
2432+1019276992+1018833835+1018748386+1018932137+1019198337+1019373764
2424+1019384108+1019388883+1019663224+1020213864+1020639026+1020538520
2415+1020006242+1019523176+1019424078+1019696705+1020154797+1020534480
2407+1020607564+1020468129+1020476025+1020750672+1021018525+1021056413
2398+1020991531+1021061188+1021259384+1021341527+1021170936+1020965701
2390+1021032970+1021313432+1021447848+1021280685+1021015464+1020860910
2381+1020834896+1020957560+1021307066+1021748815+1021974556+1022044457
2373+1022503834+1023647534+1025023891+1025909776+1025980657+1025486329
2364+1024999713+1024890271+1025023340+1025158246+1025271300+1025217864
2356+1024694951+1023781032+1022960641+1022583223+1022679138+1023136741
2347+1023755814+1024237043+1024354749+1024184770+1023989389+1023948318
2339+1024055373+1024193706+1024330693+1024534827+1024722557+1024657552
2330+1024322002+1023996918+1023898799+1024035602+1024385598+1024975536
2322+1025758405+1026475046+1026776809+1026613624+1026298028+1025977413
2313+1025378049+1024393678+1023533195+1023363828+1023843037+1024461437
2305+1024746673+1024541070+1024028196+1023508282+1023083427+1022692972
2296+1022429587+1022541968+1023086671+1023808515+1024371826+1024552700
2288+1024285643+1023725821+1023239389+1023171691+1023616929+1024428200
2279+1025310964+1025858054+1025754916+1025202500+1024976086+1025726699
2271+1027175589+1028302333+1028476903+1028134375+1028135721+1028768995
2262+1029649800+1030310128+1030585081+1030601852+1030590834+1030703093
2254+1031017954+1031674610+1032748837+1033957357+1034724557+1034643149
2245+1033814005+1032730719+1031857137+1031352526+1031294132+1031985799
2237+1033610789+1035611116+1036993349+1037407615+1037371012+1037353995
2228+1037293765+1037096915+1036921244+1036790133+1036506366+1036081694
2220+1035790949+1035751163+1035856688+1036099200+1036534645+1036937281
2211+1036925774+1036518363+1036093569+1035699747+1035067453+1034510324
2203+1034906594+1036404758+1037993635+1038780544+1038987555+1039307436
2194+1039890762+1040340285+1040399046+1040211867+1039878398+1039213540
2186+1038239207+1037467478+1037309924+1037594671+1037830205+1037574962
2177+1036720844+1035740268+1035250714+1035374113+1036079613+1037490615
2169+1039125766+1039934221+1039931772+1040511549+1042277933+1043846243
2160+1043611321+1041929284+1040690036+1040868768+1041634131+1041866483
2152+1041400801+1040608994+1039710806+1038909696+1038463234+1038341672
2143+1038334327+1038375949+1038382070+1038232597+1038207011+1038818861
2135+1039981964+1040964867+1041274831+1041023750+1040387661+1039384315
2126+1038384886+1038172366+1038914593+1039522526+1038821799+1037132294
2118+1035844814+1035518567+1035262956+1034175141+1032670244+1031899983
2109+1032266139+1033098098+1033660369+1033880968+1034066310+1034462458
2101+1035217049+1036253571+1037106219+1037320452+1037004367+1036633192
2092+1036505387+1036663062+1036950257+1036942423+1036264588+1035074798
2084+1033878887+1033048151+1032822656+1033317718+1034190688+1034838897
2075+1035204195+1035888150+1037282258+1038940423+1039915246+1039563903
2067+1038011263+1036074105+1034842202+1034961805+1036001143+1036827961
2058+1036855260+1036490819+1036306823+1036432303+1036726475+1036958092
2050+1037063005+1037567249+1039120502+1041436057+1043531259+1044870156
2041+1045610913+1046167063+1046853833+1047614055+1048179998+1048682284
2033+1049498451+1050398598+1050830003+1051096754+1052089939+1053586879
2024+1053844816+1051597080+1047850079+1044965642+1044278015+1044921571
2016+1044940179+1043699095+1042708725+1043597977+1046013059+1048110464
2007+1048491800+1047040033+1044659350+1042705787+1042036400+1042484331
1999+1043421694+1044382316+1045058926+1045372563+1045594264+1045872890
1990+1045942913+1045816944+1046252756+1047874441+1049969275+1050731088
1982+1049210277+1046686364+1045365585+1045946219+1047396884+1048869462
1973+1050247900+1051171185+1050998696+1049521588+1047151801+1044763406
1965+1043364769+1043358403+1044034891+1044171633+1043299764+1042068474
1956+1041284992+1041171387+1041563373+1042200074+1042701992+1042707012
1948+1042206195+1041515385+1040836204+1040019669+1038852282+1037450584
1939+1036206929+1035529462+1035656288+1036350037+1036911206+1036918673
1931+1036634049+1036255407+1035352200+1033544560+1031181751+1028990328
1922+1027457153+1026592568+1026051109+1025464906+1024824287+1024422263
1914+1024465354+1025069798+1026380232+1028332326+1030512609+1032550396
1905+1034382886+1035948747+1036941076+1037132784+1036787930+1036520077
1897+1036770301+1037455603+1038078471+1038219253+1037874766+1037324492
1888+1036780585+1036216111+1035518567+1034703624+1033971558+1033640904
1880+1033987105+1035021791+1036340733+1037311516+1037638130+1037699829
1871+1038118135+1039091733+1040253734+1041133438+1041591162+1041732679
1863+1041698156+1041536808+1041252674+1041017996+1041056803+1041282054
1854+1041407779+1041338612+1041153759+1040889824+1040552682+1040197789
1846+1039937281+1039944994+1040274546+1040692117+1040925080+1040853343
1837+1040589897+1040528320+1040958378+1041606709+1041865381+1041452339
1829+1040756509+1040227904+1039757448+1039063822+1038223905+1037562720
1820+1037261447+1037264997+1037354607+1037318371+1037161797+1037017221
1812+1036890639+1036700645+1036486901+1036322370+1036177304+1036007386
1803+1035723741+1035138089+1034287154+1033635395+1033538072+1033853179
1795+1034197299+1034260712+1034111973+1034230964+1034769730+1035359545
1786+1035664246+1035638048+1035451604+1035317555+1035325635+1035349384
1778+1035155350+1034624786+1033813760+1032956337+1032414388+1032302620
1769+1032342773+1032278013+1032025953+1031581694+1030933730+1030093324
1761+1029252305+1028618419+1028093487+1027529013+1027038969+1026668346
1752+1026106381+1025066921+1023776319+1022681281+1021883905+1021272728
1744+1020707703+1020056923+1019260955+1018414305+1017786295+1017548741
1735+1017502222+1017256711+1016880701+1016712130+1016716782+1016839874
1727+1017093893+1017302250+1017255976+1016981819+1016558922+1015900553
1718+1014956396+1014141024+1014182035+1015095097+1016267075+1017281194
1710+1018144187+1018903063+1019378416+1019499243+1019455846+1019216884
1701+1018487634+1017249427+1015876865+1014309534+1012109542+1009417548
1693+1006543088+1002857297+997406896+990283762+981139123+965150526+935473158
1683+897797788+863464029+832390717+804038351+782455083+772717630+776100741
1673+788067383+804231345+823470778+843416508+859981208+872714561+883770528
1663+894560112+904629198+913008779+919955324+926122304+931926312+938440840
1653+946850659+954437761+959113433+962455288+965699331+969226896+972957615
1643+976738037+980499422+984076873+987193784+989813734+992332628+994847726
1633+996760646+997727144+997456598+995383983+991219717+984790821+974721061
1623+959667562+942160848+926192083+911367079+895476234+881972132+878582166
1613+885425388+897393071+910439755+921439104+927623406+926898380+918188879
1604+902357040+883874278+870369502+867943586+877199382+894386215+914643134
1594+934041957+950486626+963530739+973332768+980225143+985071160+989155793
1584+993551187+998559410+1003502139+1007394635+1009980859+1011994468+1014320246
1574+1016718557+1018386087+1018906919+1018601606+1018366133+1018172895
1565+1017053924+1014499284+1010564675+1004994794+998074508+994452925+996944825
1555+1001128618+1004389003+1005922057+1005494325+1003492100+1000655713
1547+997406835+993392287+988002790+980927583+971070832+958151954+946818279
1537+938421987+928288815+911121690+886648048+861476067+839166365+818392960
1527+800372330+789883530+789078809+796264070+807898590+817441091+820112335
1517+816957597+812744975+812535210+818121985+828208884+841013484+857318779
1507+880345489+904909905+921510658+932338925+941484727+950238483+958720223
1497+966828585+973983181+979531210+983647856+987019337+989949925+990934664
1487+987229530+979026966+970634776+967729283+973224489+984059000+993949905
1477+999317857+999649612+992470839+969750543+927677087+879881031+843202703
1468+827193602+838677178+874701972+914792547+942428762+958590887+969618331
1458+979351560+987763155+993412180+996845972+999042659+1000478328+1001446295
1448+1002164895+1002638534+1002532519+1001166323+997876618+992176850+982755299
1438+967931703+951787818+945158767+950715733+961498645+970368943+973396549
1428+970818833+964474467+954759845+941611370+926025348+909811256+896988476
1418+893072231+895889092+896267428+888180183+871483148+851375274+835592036
1408+829520236+834337669+848030481+865766180+882528526+896633094+908353429
1398+917183268+922186472+923846902+924522655+926823337+931457080+937363614
1388+942714855+945399688+944114839+939018413+930964160+921354084+912598125
1378+907437368+907383748+911873588+918201733+922712690+923443715+921040201
1368+917882892+916879057+919428555+924351513+928676454+929839190+927924741
1358+924785550+922009148+920304708+919570194+919452182+920056075+921702733
1349+923787712+924226523+920584741+911924575+899085881+883063314+863902657
1339+841507139+816627372+790353068+763463487+736397255+709090225+680980922
1329+651680482+621748176+592982952+568189919+550296360+541201974+541480844
1319+550706770+567143359+587419191+607549407+624811283+639062387+651875557
1309+663875497+673757037+680543029+685987676+693729393+706208114+722900804
1299+741371629+759457815+776254499+791604497+805489935+818138573+830250282
1289+842618581+855447359+868211745+880206360+891028874+900543035+908703854
1279+915562073+921263983+925879792+929217914+930820685+930088007+926317379
1269+918634056+906192978+889037300+869199605+850784664+838346892+834543456
1259+838836384+848312534+859819187+871349344+881965337+891282526+899291362
1249+906329598+912862917+919212363+925506169+931768514+937934821+943815953
1239+949143261+953668357+957245747+959868268+961664951+962885407+963866841
1230+964973815+966548919+968841643+971860925+975261786+978449638+980870413
1220+982301675+982943334+983106213+982664219+980878248+976831871+970090562
1210+961252889+952245236+945907053+944583520+948627448+956228751+964706757
1200+972021416+977359436+980721062+982256441+982047656+980304531+977420217
1190+973538188+967922705+959073585+946278534+931436085+918547322+910505127
1180+906535874+903186429+897308174+887562702+873747533+855776972+833514095
1170+807212125+777986238+747956977+719813090+695704930+676148554+660264809
1160+647483468+638844481+636472123+642058470+655624700+674586610+693418694
1150+705461909+707068047+700816475+694074309+693582490+701089469+713739760
1140+727527324+739562521+747687594+749389646+741899623+723463135+694877622
1130+660193378+625367984+595248805+571703895+554660720+543859874+538733945
1120+537436243+537272936+536251349+533847529+530253246+525086918+517193524
1111+506095506+493562982+483344269+479110591+482464107+492579926+507408909
1101+525042174+544178470+563965728+583861389+603569626+622960553+642007421
1091+660665976+678778910+696252204+713270222+730140787+746938695+763329744
1081+778605740+791764927+801415340+805383369+800218572+781209347+744163028
1071+689471782+625411688+566092269+524670633+507627825+513635415+535831146
1061+565374649+594915520+620646772+642311694+661640493+680221863+698271628
1051+715157189+730523040+744551463+757602493+769946920+781628204+792526067
1041+802620555+812103989+821324099+830673852+840375130+850405165+860660144
1031+870973151+881082207+890732987+899343512+904920678+902732683+885201668
1021+846161877+789167012+730352449+688391006+671330448+675369785+693174958
1011+718674410+746360449+771699410+792957288+810728305+826005647+839329610
1001+850836875+860489431+868468519+875266691+881349325+887011694+892407863
992+897451098+901950609+905967789+909761921+913503964+917266452+921015167
982+924449571+927035366+928118591+926961425+922834680+914766104+901362753
972+882592796+862385028+847285561+841300679+843726840+852215313+865276137
962+881160555+896980091+910272959+920239703+926958120+930028144+927572969
952+916198590+893986028+865686118+843323286+838168099+851574021+875083369
942+898644316+916955752+929178311+935936086+938066176+936825460+933269738
932+927403052+919766737+914001169+915187471+924562196+937949695+950136752
922+958980547+965101375+969727835+973655649+977216879+980472123+983393041
912+985926502+987999790+989540128+990565265+991354745+992373332+993819958
902+995456088+996997282+998399469+999766890+1001255995+1003002302+1004975513
892+1007007301+1008969005+1010821816+1012541069+1014013831+1015027889
884+1015533357+1015899879+1016672711+1018103299+1020045722+1022139087
875+1023954194+1025092629+1025250672+1024264036+1022115093+1018681178
867+1013296823+1004696887+991541373+973301796+951338785+929431535+912553809
857+904236784+904627851+910687531+917906519+922111062+920651092+913008963
847+900704567+886137867+871115891+856444768+841816185+824567836+799985731
837+766169253+728307868+694850874+669907082+652826691+643908650+645511359
827+657371742+675136944+694600588+714815150+736449957+759152502+781444698
817+802191477+821335607+839363398+856495572+872539073+887195506+900195916
807+911384952+920846228+928481074+933179393+932580152+923791997+905315479
798+880147537+857147147+846868479+854084713+874491473+898669351+917961179
788+927048159+924729421+915372446+908103082+910883463+924358736+942474363
778+958529616+969580932+976372800+981141143+985538740+989639410+992460923
768+993345523+992469309+989296636+980867536+964259071+942069952+921847983
758+907464790+895196997+881372034+868530402+860269016+856070839+855397779
748+860924080+873505571+888514999+900227071+906611713+907571906+899125851
738+870232026+809886552+723949567+642710718+601973466+613905769+660576610
728+714106038+756802056+784459633+800538942+810961146+820266766+829293822
718+836203580+839383046+838837425+835603788+830636575+824190724+816197620
708+807045023+797605905+788504786+779685108+770781145+761502579+751121386
698+738254596+722952220+709187426+703097264+707640294+720091226+735014716
688+748596432+759971362+769709305+778318484+786114432+793488464+800745953
679+807893448+814859335+821844258+829152306+836738061+844483329+852855198
669+862173549+870692444+876876073+881965582+887055336+891613853+893786423
659+890153823+875164165+844344567+801878268+763540795+747127465+758076438
649+786679274+818793209+846212864+867373052+883268671+895358528+904314520
639+908102960+903331128+891160780+880159902+879523935+890187488+905848675
629+920882403+933852514+944987503+953835337+959591295+962087786+962069546
619+960651016+958566281+955786880+950374368+937368266+912574559+880530770
609+855500489+849660918+861436281+878513244+890042850+892489027+886152557
599+871725354+851328571+829660773+812279844+803046512+803070812+811392000
589+826060124+844573490+864142598+882482068+898556603+912357694+924314359
579+935052955+944805221+952278412+954210245+947393832+932845985+917738010
569+911126587+915625547+923604574+922838904+906251740+878736536+855730759
560+851535521+867466091+892987150+916749843+934037122+945797427+954559323
550+961990402+968615964+974474326+979598051+983894530+986102847+982587340
540+969360884+948164888+929168150+923654031+933649605+951124613+966844255
530+977404792+984235345+989291189+993285660+996291475+998202314+998354848
520+994381310+981797064+958772741+933338783+919737418+925287774+944170295
510+963536370+973217511+968563385+948108025+914381709+878143232+856932730
500+861411063+885314905+913434736+932772595+936268821+923635790+902949364
490+888104651+888879135+904431552+926790161+947763782+963634306+975313447
480+984692763+991996526+996843401+1000128332+1003231287+1006098340+1007796781
470+1008790763+1010697622+1014005935+1017595505+1020563983+1023517219
462+1027173018+1030756100+1033254795+1035493471+1038756060+1042282707
453+1044977027+1047378644+1050343020+1053487107+1056182284+1058806336
445+1061983232+1065480743+1068733294+1071658251+1073741823+1072416392
436+1062500452+1037064107+990526580+925381853+859274912+819194988+820103888
426+854200215+901997679+946419683+979515602+1000308533+1009135923+1008440338
416+1003112479+993181114+975438559+951563607+931340231+924834823+932269391
407+943796917+948395342+942346006+929660948+917256168+911500210+915814378
397+927157602+940598291+956177029+974294125+991292678+1001667567+1002291721
387+992349460+971482650+944411827+923280163+916231582+922325540+938040285
377+960784330+983081056+992511604
##END=
