##TITLE=HMS-Q313
##JCAMP-DX=4.24
##DATA TYPE=INFRARED SPECTRUM
##DATE=16/9/2021
##SAMPLING PROCEDURE=Diamant-ATR
##ORIGIN=Angelika Moesle
##XUNITS=1/CM
##YUNITS=TRANSMITTANCE
##RESOLUTION=4
##FIRSTX=3997.453
##LASTX=373.96442
##DELTAX=-1.4165319
##MAXY=1.0065023
##MINY=0.20791066
##XFACTOR=1
##YFACTOR=9.3737829e-010
##NPOINTS=2559
##FIRSTY=0.98621243
##XYDATA=(X++(Y..Y))
3997+1052096519+1051811905+1051567097+1051446092+1051498742+1051679073
3989+1051762371+1051615359+1051470509+1051595139+1051869578+1052019197
3980+1052057095+1052154319+1052272526+1052233993+1052029944+1051798425
3972+1051534159+1051124598+1050706835+1050624872+1050912919+1051208278
3963+1051284518+1051308491+1051452705+1051565380+1051381234+1050873241
3955+1050314887+1050050304+1050192102+1050586593+1051061838+1051532315
3946+1051854826+1051890117+1051799252+1051954784+1052343362+1052538890
3938+1052443192+1052368542+1052388572+1052221212+1051907730+1051995925
3929+1052619073+1053217613+1053319034+1052809578+1051837276+1050893716
3921+1050570887+1051084475+1052172823+1053339953+1054186481+1054548988
3912+1054434723+1053927557+1053119690+1052143573+1051315422+1051095921
3904+1051555969+1051891897+1051463006+1050900647+1051087464+1051908811
3895+1052627021+1052732893+1052281810+1051968837+1052396584+1053265684
3887+1054117681+1054744453+1054812046+1054118571+1053127956+1052629374
3878+1052733020+1052775051+1052457309+1052152475+1052342535+1053004471
3870+1053684529+1053997438+1053991207+1054010728+1054332285+1054849752
3861+1055097358+1054832330+1054186227+1053378233+1052637386+1052382912
3853+1053001355+1053684465+1053623295+1053215705+1052967591+1053071173
3844+1053382556+1053541268+1053298686+1052695377+1051936598+1051399610
3836+1051458173+1051936916+1052302857+1052272399+1052081258+1052193806
3827+1052823186+1053692287+1054215095+1054099558+1053720074+1053874526
3819+1054686462+1055419488+1055490005+1054801427+1053773105+1052868459
3810+1052299296+1052121890+1052248173+1052446117+1052543914+1052555677
3802+1052571383+1052755784+1053071936+1053126875+1052790566+1052508178
3793+1052624796+1052814919+1052714961+1052566169+1052838764+1053482642
3785+1053958651+1053912805+1053486330+1052980690+1052613286+1052501438
3776+1052670769+1053126239+1053811511+1054479043+1054730273+1054324845
3768+1053449450+1052480327+1051755059+1051542298+1051760972+1051954784
3759+1051794546+1051636724+1052132127+1053154090+1053883491+1053562252
3751+1052425452+1051986005+1052502455+1052721892+1052164938+1051648106
3742+1052201246+1053507123+1054754373+1055365948+1054927201+1053699408
3734+1052870494+1052915704+1053096481+1052894085+1052347177+1051875555
3725+1052124242+1053214370+1054253374+1054411196+1053914331+1053450594
3717+1053233001+1053026853+1052557712+1051616758+1050254226+1049215158
3708+1049284785+1050367664+1051916060+1053405003+1054382391+1054496847
3700+1053880566+1053174756+1052861656+1052924288+1053000846+1052754194
3691+1052086599+1051136807+1050375040+1050327032+1050954441+1051843571
3683+1052586580+1052944827+1052962504+1052871893+1052819434+1052808942
3674+1052824712+1052827891+1052883974+1053136667+1053377470+1053119880
3666+1052474541+1052006099+1052042979+1052400844+1052690099+1052761825
3657+1052703452+1052663011+1052796098+1053131835+1053486966+1053441374
3649+1052588361+1051576381+1051344862+1051632782+1051930749+1052059511
3640+1052108028+1052253450+1052549636+1052800676+1052648005+1051949379
3632+1051099800+1050846852+1051722693+1053037345+1053565813+1053480607
3623+1053359093+1053383637+1053511637+1053634550+1053595190+1053314964
3615+1052900125+1052529289+1052381959+1052574054+1053020304+1053367296
3606+1053297732+1052980244+1052881812+1053347584+1054361153+1055411031
3598+1055850986+1055473473+1054591082+1053778001+1053416893+1053415749
3589+1053464074+1053406211+1053472214+1053992097+1054762830+1055222687
3581+1055049414+1054568509+1054369102+1054426139+1054269589+1053938557
3572+1053956870+1054517894+1055394117+1056324134+1056919431+1056640031
3564+1055554864+1054208736+1053037727+1052351819+1052228270+1052427995
3555+1052635351+1052639103+1052363201+1051997324+1051914852+1052240161
3547+1052725580+1053107863+1053439276+1053873763+1054350725+1054731100
3538+1055007065+1055241700+1055433286+1055507873+1055361815+1054911368
3530+1054222598+1053564350+1053178062+1053070792+1053160385+1053367105
3521+1053518759+1053476410+1053309813+1053160894+1053056993+1052971597
3513+1052984632+1053299640+1054033873+1054905391+1055350878+1055129024
3504+1054533600+1054054603+1053958078+1054092818+1054135421+1054018867
3496+1054034764+1054433896+1055077583+1055662261+1056026930+1056109147
3488+1055913810+1055590599+1055270695+1054880846+1054344748+1053838408
3479+1053569437+1053431582+1053166871+1052715089+1052168499+1051484435
3471+1050617623+1049888794+1049839133+1050640641+1051861439+1052764813
3462+1052768056+1051938760+1051155183+1051324133+1052390670+1053514499
3454+1054137138+1054311429+1054092246+1053432090+1052765513+1052839655
3445+1053648603+1054365732+1054481713+1054216812+1053882601+1053461976
3437+1052906039+1052426406+1052313857+1052556758+1052812630+1052886645
3428+1053096099+1053843813+1054899986+1055473028+1055099775+1054246570
3420+1053771197+1053821812+1053724016+1053024501+1052174221+1051924644
3411+1052353472+1052859875+1052957226+1052693596+1052366634+1052167672
3403+1052127930+1052177655+1052195904+1052064725+1051672460+1050956730
3394+1050078282+1049455833+1049448393+1050014441+1050738183+1051088608
3386+1050735258+1049859798+1049080164+1048882728+1049230228+1049733961
3377+1049996891+1049782350+1049121114+1048350572+1047840226+1047593892
3369+1047324667+1046920574+1046510059+1046095284+1045561094+1045015521
3360+1044691103+1044552738+1044323255+1043750467+1042690797+1041203572
3352+1039632348+1038331367+1037284161+1036166118+1034772492+1033197771
3343+1031517561+1029495127+1026857049+1023706399+1020265477+1016341869
3335+1011518130+1005729339+999114685+991435211+982211347+971448116+959769685
3325+947767661+935658621+923677963+912407821+902655680+895301705+891139648
3315+890478729+892977172+898050170+905226166+913969951+923441739+932653267
3305+940911697+948133411+954694271+960886074+966573826+971432474+975392263
3295+978786767+982103759+985598920+989150801+992507026+995602546+998630982
3285+1001850750+1005271134+1008572802+1011451555+1013915407+1016169931
3276+1018447156+1020925251+1023508200+1025823640+1027689142+1029283193
3268+1030694878+1031735980+1032357857+1032885625+1033690631+1034823043
3259+1036000921+1036909763+1037533547+1038146966+1038927746+1039701339
3251+1040224402+1040590152+1041080532+1041692806+1042175301+1042541496
3242+1043100549+1043875669+1044442924+1044493349+1044269460+1044304433
3234+1044852167+1045658636+1046242169+1046325404+1045997361+1045560140
3225+1045279978+1045220842+1045252127+1045243733+1045244751+1045387502
3217+1045670781+1045989286+1046354272+1046841218+1047309597+1047549445
3208+1047713307+1048091012+1048493260+1048481624+1048123250+1047865089
3200+1047821913+1047775495+1047664155+1047620026+1047715279+1047888934
3191+1047963457+1047742049+1047252941+1046784944+1046604358+1046726444
3183+1046970108+1047166018+1047342916+1047721637+1048466045+1049442289
3174+1050282013+1050694117+1050688395+1050488224+1050285828+1050155094
3166+1050121203+1050206345+1050418978+1050692337+1050821736+1050631739
3157+1050251873+1050000515+1049958167+1049884216+1049518466+1048819459
3149+1048076196+1047790438+1048137938+1048603710+1048563841+1048107926
3140+1047787640+1047712354+1047476511+1046898064+1046274090+1045885703
3132+1045715100+1045681145+1045763744+1045850349+1045741171+1045343501
3123+1044753354+1044169502+1043689869+1043125856+1042210337+1041075699
3115+1040216963+1039861069+1039744451+1039612763+1039584086+1039944622
3106+1040812387+1042024219+1043262631+1044363886+1045439771+1046535875
3098+1047378524+1047744656+1047798768+1047746055+1047486685+1046974114
3089+1046525193+1046379643+1046259465+1045713256+1044706173+1043643642
3081+1042978272+1042932172+1043459177+1044340359+1045308210+1046131465
3072+1046617393+1046623243+1046171843+1045510988+1044920841+1044529720
3064+1044377049+1044459520+1044608249+1044587520+1044412021+1044330440
3055+1044451381+1044592098+1044504413+1044127408+1043604409+1043079184
3047+1042521275+1041838038+1041073537+1040391381+1039992566+1040091952
3038+1040773409+1041859403+1043072952+1044250257+1045288880+1046058213
3030+1046466757+1046585091+1046683396+1047093720+1047883147+1048718229
3021+1049175480+1049086205+1048530267+1047683676+1046757665+1045975996
3013+1045506918+1045373196+1045468575+1045739136+1046251834+1046926678
3004+1047401797+1047442492+1047287278+1047282509+1047412797+1047484905
2996+1047523438+1047692896+1048048726+1048586414+1049307804+1050056917
2987+1050530891+1050633265+1050603379+1050644584+1050609865+1050222432
2979+1049510963+1048860663+1048629144+1048806106+1049061851+1049082644
2970+1048863270+1048689997+1048792117+1049061024+1049229020+1049243327
2962+1049277982+1049442798+1049668848+1049823554+1049767471+1049361153
2953+1048617063+1047825220+1047321614+1047121253+1046967437+1046706923
2945+1046405841+1046175340+1046084029+1046105140+1046000095+1045465968
2936+1044492649+1043393874+1042521721+1042101795+1042187319+1042637957
2928+1043266255+1044020583+1044909395+1045830637+1046602641+1047105229
2919+1047358813+1047529542+1047834694+1048376706+1049047544+1049622557
2911+1049993966+1050260457+1050514295+1050668238+1050653931+1050634537
2902+1050824152+1051232123+1051712202+1052135879+1052470789+1052772825
2894+1053050062+1053106019+1052706695+1051964068+1051293357+1050891999
2885+1050528920+1049957467+1049235251+1048493006+1047718331+1046940032
2877+1046343844+1046073538+1046147362+1046575999+1047292746+1048020621
2868+1048489826+1048712761+1048848327+1048939510+1048940782+1048813927
2860+1048508394+1048074543+1047809641+1048008731+1048587241+1049211279
2851+1049707064+1050088265+1050331865+1050408487+1050413256+1050473981
2843+1050598293+1050684198+1050651769+1050545643+1050504375+1050607831
2834+1050801515+1050989159+1051126379+1051212284+1051270339+1051364701
2826+1051588780+1051997006+1052514600+1052923017+1053002563+1052733592
2817+1052340437+1052078778+1051984543+1051916632+1051843571+1051896793
2809+1052094993+1052221212+1052059003+1051612816+1051089435+1050758340
2800+1050774491+1051084730+1051521188+1051920448+1052142174+1052124306
2792+1051952686+1051772800+1051688929+1051779031+1052073755+1052484079
2783+1052847730+1053011783+1052852817+1052368733+1051768158+1051343527
2775+1051237782+1051383459+1051584965+1051637869+1051503320+1051390454
2766+1051545478+1051941050+1052300822+1052455846+1052529797+1052712036
2758+1053001864+1053286414+1053513736+1053628891+1053479272+1053018142
2749+1052523439+1052349212+1052470662+1052557267+1052519560+1052656843
2741+1053165281+1053807633+1054211789+1054256744+1054057210+1053791863
2732+1053649938+1053743283+1053947968+1053978807+1053743792+1053506741
2724+1053585906+1053994005+1054482095+1054829214+1054973810+1054937947
2715+1054753101+1054456724+1054108588+1053793453+1053585970+1053481942
2707+1053395147+1053262187+1053106845+1052974394+1052872338+1052806208
2698+1052785161+1052746564+1052581175+1052284417+1052017290+1051965212
2690+1052120491+1052249889+1052162585+1051981173+1051994399+1052273289
2681+1052641137+1052951885+1053175519+1053303836+1053368631+1053453583
2673+1053583617+1053715241+1053863398+1054102610+1054424422+1054693457
2664+1054769379+1054640235+1054412341+1054194429+1054049834+1054043539
2656+1054203459+1054429127+1054552295+1054499836+1054352188+1054247651
2647+1054230292+1054188897+1054024081+1053818188+1053676326+1053487156
2639+1053088087+1052592176+1052302539+1052337830+1052511421+1052554342
2630+1052380941+1052163857+1052166337+1052469136+1052871766+1053109961
2622+1053146841+1053183403+1053392667+1053735716+1054046336+1054181140
2614+1054073615+1053755492+1053385291+1053197647+1053336774+1053677916
2605+1053880248+1053727895+1053340526+1052968990+1052783571+1052947434
2597+1053568992+1054430018+1055068554+1055235468+1055023216+1054584088
2588+1054010919+1053429992+1052953856+1052588551+1052352264+1052400717
2580+1052878887+1053709073+1054589048+1055130996+1055068109+1054505177
2571+1053912423+1053684593+1053805598+1054052441+1054268826+1054357275
2563+1054311174+1054271178+1054309903+1054309267+1054256172+1054376859
2554+1054785721+1055264973+1055510989+1055425592+1055141297+1054858146
2546+1054687162+1054634258+1054651807+1054703313+1054895090+1055412366
2537+1056090580+1056342701+1055857790+1055061178+1054611494+1054788201
2529+1055441807+1056174260+1056569514+1056484753+1056048486+1055417072
2520+1054720163+1054137074+1053865115+1054059626+1054718637+1055519891
2512+1056051411+1056272692+1056462561+1056763962+1057094548+1057364727
2503+1057542261+1057655890+1057812567+1058038872+1058165282+1058078232
2495+1057956972+1058042496+1058293091+1058497649+1058631880+1058851699
2486+1059160348+1059339598+1059258335+1059062361+1058998584+1059135867
2478+1059323892+1059435360+1059533791+1059663572+1059648311+1059369039
2469+1059015370+1058763568+1058507250+1058171259+1057938914+1057913225
2461+1057892178+1057668925+1057342599+1057185540+1057252688+1057217715
2452+1056742215+1055978859+1055442315+1055369000+1055504376+1055522625
2444+1055403591+1055392781+1055700604+1056256605+1056778269+1057083675
2435+1057212755+1057262289+1057267186+1057252370+1057247664+1057238317
2427+1057149996+1056882360+1056409912+1055859825+1055420314+1055222624
2418+1055378347+1055958257+1056814068+1057582829+1057976112+1057971597
2410+1057744911+1057526301+1057480073+1057652711+1058035438+1058586352
2401+1059120924+1059338835+1059095489+1058543685+1057944064+1057465639
2393+1057210594+1057230369+1057401099+1057457437+1057304066+1057147134
2384+1057171933+1057271382+1057263879+1057174158+1057111335+1057125324
2376+1057423863+1058379886+1059907553+1061138843+1061325787+1060921504
2367+1061161671+1062636433+1064786803+1066644166+1067504746+1067064982
2359+1065543292+1063628065+1061882424+1060296131+1058704178+1057347559
2350+1056578607+1056342892+1056319047+1056372968+1056640349+1057016909
2342+1057032678+1056639650+1056414872+1056739290+1057367970+1057908011
2333+1058238788+1058317190+1057913924+1056861503+1055463808+1054354795
2325+1054018613+1054568318+1055724830+1056835179+1057280221+1057107520
2316+1056961779+1057304702+1057951822+1058403414+1058429102+1058217359
2308+1058020432+1057863182+1057704534+1057678972+1057943301+1058403541
2299+1058799558+1059007168+1059170903+1059542694+1060124574+1060499099
2291+1060209907+1059328852+1058459878+1058167317+1058550235+1059315499
2282+1060035171+1060291743+1059922178+1059369865+1059450430+1060408106
2274+1061559977+1062221785+1062510723+1062823886+1063035630+1062804620
2265+1062395377+1062501566+1063160196+1063498667+1062929122+1061996943
2257+1061570087+1061747493+1062053917+1062189865+1062163540+1061997961
2248+1061592024+1060828096+1059765628+1058655343+1057806209+1057566869
2240+1058147223+1059134532+1059676670+1059564440+1059573215+1060304270
2231+1061214702+1061326932+1060630977+1060175125+1060710842+1061922611
2223+1063196504+1064250959+1064769571+1064523809+1064043349+1064027325
2214+1064297123+1064340871+1064265648+1064362871+1064608697+1065117771
2206+1066104761+1067158963+1067346543+1066142214+1064003226+1062287025
2197+1062327403+1063969652+1065450011+1065378221+1064330188+1063843878
2189+1064437331+1065199925+1064882374+1063023866+1060427564+1058650956
2180+1058559137+1059562723+1060677523+1061654975+1062533487+1063007461
2172+1062868524+1062248619+1061128160+1059417682+1057519878+1056074747
2163+1055461010+1056173179+1058971814+1063611914+1067968419+1069662873
2155+1068071175+1064420862+1060807811+1058842033+1058599578+1058936523
2146+1058862953+1058353562+1057931665+1057992072+1058579357+1059439048
2138+1060131950+1060251938+1059753292+1059102865+1058802991+1058692224
2129+1058135651+1057060974+1056291005+1056538738+1057524393+1058438958
2121+1058907591+1059110432+1059238368+1059222726+1058902949+1058220729
2112+1057368034+1056862139+1057082848+1057569794+1057418204+1056614533
2104+1056192255+1056813814+1058007333+1059016579+1059754628+1060668875
2095+1061960254+1063095337+1063297797+1062523313+1061482274+1060664742
2087+1060009292+1059563423+1059670566+1060349225+1061081869+1061337932
2078+1061031763+1060551748+1060469595+1060995583+1061699931+1062117058
2070+1062537874+1063619608+1065217220+1066193846+1065617688+1063793963
2061+1061884650+1060806158+1060647828+1060950563+1061322545+1061617332
2053+1061807138+1062022632+1062433847+1062845315+1062789613+1062191264
2044+1061500078+1061344418+1062341392+1064549116+1067032298+1068901361
2036+1070489753+1072358561+1073741823+1073552844+1072108921+1070281698
2027+1068130946+1065789308+1064372219+1064546509+1065157958+1064566285
2019+1062858859+1061835497+1062770156+1064986338+1066948618+1067817846
2010+1067540482+1066210315+1063996995+1061476488+1059575250+1059039533
2002+1059863106+1061194736+1062077571+1062338085+1062495144+1062876345
1993+1063095465+1062387365+1060567709+1058478446+1057086727+1056460336
1985+1055970847+1055311836+1054957659+1055532545+1056895077+1058121725
1976+1058724589+1059359819+1060714530+1062424309+1063350764+1062258348
1968+1058700808+1054129508+1051150923+1051049058+1052989910+1055314188
1959+1057046604+1058370412+1059634513+1060249649+1059324592+1057275007
1951+1055685661+1055339941+1055366457+1054705220+1053586161+1052997921
1942+1053194785+1053319351+1052476448+1050532862+1048167061+1046589415
1934+1046669534+1048134123+1049857446+1050937463+1051390962+1051865445
1925+1052754258+1053676644+1053988218+1053724461+1053542858+1053912677
1917+1054667768+1055230636+1055245197+1054820057+1054304371+1053978807
1908+1053969524+1054376096+1055256833+1056455567+1057561909+1058125985
1900+1057965175+1057290267+1056591388+1056278924+1056217563+1055832864
1891+1054891719+1053874335+1053407800+1053506423+1053757145+1053827281
1883+1053589276+1053202161+1053014581+1053115175+1053133043+1052712164
1874+1051985369+1051351666+1051045179+1051189266+1051902643+1052881812
1866+1053442391+1053327681+1052877870+1052588043+1052604003+1052608708
1857+1052310360+1051908239+1051860485+1052316846+1053016489+1053613884
1849+1053885017+1053774122+1053390696+1052872592+1052289249+1051735411
1840+1051287380+1050920740+1050619530+1050450390+1050412302+1050308656
1832+1049826543+1048789383+1047510657+1046510568+1045939243+1045789751
1823+1046053635+1046492637+1046785516+1046809552+1046555142+1046048930
1815+1045522878+1045274255+1045229108+1044957785+1044252928+1043328507
1806+1042411271+1041525892+1040625061+1039814714+1039367892+1039311681
1798+1039283894+1039002714+1038443916+1037655570+1036751305+1035956792
1789+1035352465+1034831564+1034258776+1033549278+1032755909+1031964129
1781+1031118491+1030171243+1029194681+1028163879+1026957706+1025594856
1772+1024207079+1022690858+1020686420+1017983483+1014799895+1011421352
1764+1007384878+1001704056+994272760+985207672+972565904+954330492+931705764
1754+906311461+876067412+837006580+789638929+741605337+699822874+667269934
1744+646246188+639882892+652157320+682461903+720184556+757041479+798116796
1734+848267629+890095811+910156157+916893597+917299915+913036246+904526459
1724+891887044+876272160+858859304+836167174+797536950+734348459+661188199
1714+598896341+553246036+526388733+520030365+534854201+572240926+626640295
1704+679884168+722676513+764968877+814356227+858072738+888616152+913184784
1694+932538303+945339927+955113115+964903789+974172037+981409711+987372667
1684+993601096+998232104+998948915+997222922+995182048+994572444+996809991
1674+1001687842+1007031591+1011744308+1016417919+1020653545+1023136346
1666+1024244468+1025066388+1026089305+1027186490+1028074985+1028708434
1657+1029190929+1029685378+1030533368+1032010293+1033142960+1033409387
1649+1033477234+1033804006+1034244215+1034364394+1034242562+1034006147
1640+1033526895+1032611567+1031032777+1028688468+1026521439+1025583855
1632+1025583219+1026182650+1027420743+1029199768+1031082056+1032785349
1623+1034271557+1035312088+1035692717+1035567515+1035171561+1034444958
1615+1032984693+1030279086+1025268148+1016230465+1002881107+989393638+982495452
1605+985343620+995291226+1006678559+1015093983+1019579187+1021190852+1020944708
1595+1019453286+1017174726+1014228634+1010277175+1004756528+996987206+986009053
1585+970489804+949359995+923839282+898876095+881198083+878028421+896431256
1575+929155117+955460170+971332071+983693359+995997991+1006071307+1012217392
1565+1015955772+1018621828+1020409627+1021208529+1020846085+1018993555
1557+1016106090+1012668983+1008585646+1003469854+996335953+986316749+973790708
1547+958778752+938828601+910964978+873113817+816851363+743092499+690204519
1537+669499278+668847325+686282882+719799921+755091279+783128812+806476328
1527+827442210+844452755+857750990+873047750+894704818+917197286+935164618
1517+951132661+966031497+977444010+985390483+991634364+996984409+1002111264
1507+1008208387+1013146709+1014810578+1015028298+1014648369+1013264090
1499+1010264649+1006001362+1002694862+1002063066+1003464577+1005656405
1490+1007388693+1006735596+1002421630+994879185+984083971+969085177+950470344
1480+932856998+922666619+923325312+934037673+951487538+971516281+988420509
1470+998064871+1001933158+1002431168+999776112+993839418+987205307+982844733
1460+981130948+981083894+979914855+971960370+954077735+924508212+881399080
1451+829979567+787839112+778257192+807046636+854463820+899380464+932834743
1441+954184815+967061917+976199748+984334692+991009499+995712423+999559282
1431+1003576807+1007667774+1011096933+1013780540+1016200389+1018502222
1422+1020422726+1021913131+1023205655+1024307483+1024980673+1025239725
1414+1025289958+1025333133+1025490001+1025717323+1025864272+1025845450
1405+1025729786+1025629765+1025485805+1025121200+1024442731+1023423884
1397+1021916056+1019575563+1016115247+1011532119+1005558672+996596403+981374167
1387+957545046+927821326+898025117+873770157+860981568+863215172+877257180
1377+895227500+909649500+914618661+907245165+889881970+868508625+851431696
1367+846017683+852532888+863937897+868976940+859136350+840460474+829839677
1357+840631522+873448409+915115781+950029943+972562153+985737221+993664301
1347+998563517+1001476098+1002921420+1003095711+1001930233+998915468+993186512
1337+983940202+970115088+949799378+921028566+884241525+844871599+812912939
1327+797991085+803525340+825087600+853928167+882292598+906048212+923656534
1317+934694967+939830853+940836347+940013982+939592975+941094635+945005080
1307+950924797+957777646+964178331+969052493+971984087+973068874+972724044
1298+971723065+971056296+971345488+972377688+973359464+973568982+972745218
1288+971043070+968762030+966050000+962820694+958972437+954614024+950015700
1278+945482742+941381855+938076182+935602983+933428705+930613474+926250293
1268+919891512+911867780+903330460+895613279+889185888+883308647+876839543
1258+869184232+860203205+849299385+834897859+814952986+788110118+754573303
1248+716051431+674987114+633905121+595303320+561548149+534194681+513174496
1238+496723163+482229978+467606599+452679117+439854316+433195501+436081885
1228+449090388+469761642+494266910+519475191+543785312+566236894+585077650
1218+597613165+601753603+597539786+586886433+571993129+554351361+535227581
1208+516387556+499426481+484112457+467884313+447429921+420733556+387974214
1198+351709887+316958887+290268627+277307909+280416782+297711527+324095745
1188+353370767+380149095+400957696+414830722+423699519+432178911+445839336
1179+467975592+496883242+525975071+546905567+553895700+546748254+530199093
1169+509518810+486200226+458514931+426128874+392151182+359730884+328762044
1159+297766052+267835580+243025208+227255030+221800163+225294752+235127139
1149+248867587+265079437+283222029+303047201+324142831+345492744+365049771
1139+380611528+392371001+404271032+421347262+445368096+473873148+503213918
1129+531362918+557990419+583337859+607645913+630973972+652865420+672058255
1119+686623070+694352333+693014344+681163784+660523783+637940641+622719294
1109+619853894+626221005+634349018+639382148+642124762+646944750+658178584
1099+677720827+704237624+734036948+763136694+788956455+810548474+828029177
1089+842106539+853663011+863356462+871598041+878786245+885361920+891654699
1079+897729376+903371283+908310749+912499512+916084394+919170885+921760129
1069+923895238+925716802+927249619+928188920+928107274+926853475+924513554
1060+921061250+916227973+909575612+900500986+887685627+868062247+838348447
1050+801444216+770576701+760956629+774660229+797413847+811539788+808602789
1040+789971169+761160488+728641312+699062251+677919344+667952980+668955295
1030+679109557+696232968+717547622+738781776+754192229+757434062+742949302
1020+708999683+661698226+615435138+586442090+583491993+603743353+636895914
1010+673027632+707462415+740196259+772262635+802966732+830139678+852361713
1000+870307043+885825466+900154757+913167743+923877370+931417208+935922315
990+938808762+941999662+946408117+951026217+953960037+954852665+955915386
980+959843636+966947207+975033062+981801850+986502866+989452964+990943305
970+990940698+989312501+985853139+980131813+971742268+961173167+950394167
960+941711297+935381575+929363999+922959435+919916501+925515169+940403259
950+959326105+976093686+988051072+995850851+1001012235+1004553242+1006960374
941+1008464514+1009160341+1009116022+1008548448+1007744205+1006735087
932+1005343305+1003566506+1001574340+999364389+996714166+993277695+988362646
922+980651124+968376251+949736301+923086481+887543956+845189023+803352130
912+772888263+762015918+771628104+796567128+829901674+865424550+898280607
902+925611566+946918908+963254482+975942858+985876920+993489120+999075770
892+1003137424+1006315734+1008936835+1010800111+1011561051+1011192313
884+1009830543+1007211859+1002788461+996915290+991476224+988467500+988242976
874+990015514+993448361+998417331+1003632127+1006896978+1006888331+1004205678
864+1000954498+999500973+1001048034+1004954409+1009502373+1013341665+1016169804
854+1018342492+1020226498+1021952110+1023473481+1024653648+1025369759
846+1025658124+1025704924+1025662385+1025587670+1025557594+1025660413
837+1025833178+1025865035+1025662448+1025396720+1025244367+1025044005
829+1024421366+1023257859+1021750795+1019884339+1017006857+1011908297
820+1003395013+991832881+980921621+976539427+981820862+993751923+1005961747
810+1014267040+1018556652+1020594092+1021659993+1022016141+1021544329
802+1020440721+1019269775+1018580306+1018672952+1019531561+1020835149
793+1022221907+1023500569+1024440060+1024567170+1023484991+1021414803
785+1019205871+1017605588+1016662918+1016124340+1016054458+1016533964
776+1017001516+1016312619+1013214810+1006502933+995097605+978430936+955487322
766+920668094+862247830+773439558+668563157+579233729+528980044+520003754
756+546696622+606815727+691761244+779570445+848634333+892460150+916902245
747+929253485+932089572+922964713+899541910+867716337+842677927+837857431
737+853401798+878081388+900588227+914453145+913555685+891594991+849320432
727+796249513+743972600+704313292+692481362+719749243+778135170+841414335
717+886225362+905711267+904928199+893721452+884001931+885562536+900544352
707+923130165+945301966+962305898+973430554+979939082+983494905+985423930
697+986123318+985310682+982895220+978897789+972828898+964027440+952276583
687+937454687+918604202+893161064+857812351+813125573+769206602+743694409
677+749060477+781303878+823269661+858533168+881493887+894718871+900433839
667+897972467+888828468+874806173+854117782+824367228+787954903+754676695
657+737133486+741142554+760340349+781546333+794402451+795657713+786918125
647+771177403+751734864+732528485+717823397+711002660+713487749+723967765
637+737564984+745621145+738618232+713423463+677887933+644701671+619962499
628+599791004+578375946+557006481+543707292+545588054+563446844+592209263
618+624146112+652561349+675210748+694407844+712429605+727127571+732916426
608+726783059+713830099+705699224+711043482+727652542+746130855+760681872
598+773812175+791032555+814196306+840184826+863595293+880114568+888265218
588+888846781+884261555+878717254+876642679+879254369+883489106+884672324
578+879513802+866670402+846442123+820614541+790995421+757963865+721011563
568+680068315+635942497+590274133+546134263+508680644+484137638+477017534
558+487868896+513353429+548277256+588287880+631585992+677739458+723623635
548+760557306+777536057+769810038+744929641+718470772+702647897+698961530
538+700126054+696946727+683162436+657081653+622173340+586197664+558113459
528+544843138+549624592+569775231+596227868+620144866+638196259+650961066
518+660781817+670557803+681638585+692952666+701955185+705044346+698276576
509+680196442+655468844+634459405+626970500+637183897+662841512+697069767
499+733394661+768358739+800015617+827228114+849660111+866958767+878865283
489+885510204+885433264+872898004+838160358+774427057+688325155+602241502
479+545235403+536336594+571177950+629560125+692040707+745483989+785612947
469+816934534+844192813+867580516+886128202+900369107+911118921+919374934
459+926894870+934142464+939069340+940736388+941163626+943228345+948422857
449+955806145+962844158+966689745+965649978+961127321+957647484+958630341
439+963064930+968509019+974450609+981454158+988873246+994876197+998187402
429+999376979+1000281434+1001941743+1003826066+1005429210+1007898212+1012761756
419+1017970257+1017263620+1011118107+1005485293+1002769957+1002896685
411+1005037644+1007603743+1009124224+1010219566+1012822481+1016866140
402+1020332179+1021833330+1019627004+1010178298+997080361+992138224+998018389
392+1008082041+1014653646+1013516210+1004676473+989451502+968564022+946048027
382+930364660+926321574+933232541+948794012+970184588+990517975+1000511936
##END=
