##TITLE=X8008
##JCAMP-DX=4.24
##DATA TYPE=INFRARED SPECTRUM
##DATE=30/10/2018
##SAMPLING PROCEDURE=Diamant-ATR
##ORIGIN=ComPlat
##XUNITS=1/CM
##YUNITS=TRANSMITTANCE
##RESOLUTION=4
##FIRSTX=3997.453
##LASTX=373.96442
##DELTAX=-1.4165319
##MAXY=0.90120417
##MINY=0.64933544
##XFACTOR=1
##YFACTOR=8.3931179e-010
##NPOINTS=2559
##FIRSTY=0.88041735
##XYDATA=(X++(Y..Y))
3997+1048975315+1049095759+1048987601+1048546378+1048094574+1047814983
3989+1047617061+1047608895+1048125608+1049067281+1049785041+1049890642
3980+1049637540+1049310511+1048854304+1048286814+1047874353+1047740701
3972+1047757815+1047875560+1048136402+1048414714+1048484097+1048283903
3963+1047985209+1047880673+1048131928+1048526636+1048689049+1048515628
3955+1048187605+1047882520+1047673022+1047549667+1047468993+1047471194
3946+1047572747+1047637869+1047754478+1048360458+1049414976+1050149495
3938+1050119101+1049519867+1048496170+1047131311+1046068272+1046122315
3929+1047167956+1048336810+1048972759+1048917721+1048496809+1048142510
3921+1047762787+1046934455+1045736555+1044971002+1045311879+1046606716
3912+1048286601+1049907260+1051111408+1051428211+1050407994+1048032009
3904+1045035129+1042647497+1041741900+1042445030+1044269434+1046407515
3895+1048140805+1048906856+1048427284+1047430928+1047334630+1048180361
3887+1048581460+1047580914+1045839600+1044491359+1043785814+1044027624
3878+1045499717+1047235918+1047803124+1046745623+1044863412+1043214490
3870+1042647000+1043787661+1045965582+1047514656+1047350396+1045915232
3861+1044652779+1044355221+1044865472+1045654461+1045901171+1044435754
3853+1041531621+1040531928+1042540405+1045709001+1048423165+1049741863
3844+1049298225+1047457630+1045218280+1043443446+1042413144+1042276154
3836+1043171312+1044656756+1045824260+1046173020+1046111662+1046281675
3827+1046771473+1047375039+1047890260+1047780825+1046398283+1044485607
3819+1043774239+1044195932+1044761504+1045490627+1046753648+1048066309
3810+1048551349+1047682254+1045967287+1045122337+1045805938+1046204622
3802+1044591208+1042261880+1042046133+1044007029+1046495007+1048472805
3793+1049757842+1050455859+1050660172+1050557270+1050422055+1050375114
3785+1050315531+1050087853+1049543444+1048610435+1047668690+1047465868
3776+1048140521+1049091782+1049784473+1049973518+1049545290+1048672787
3768+1047869737+1047544554+1047845094+1048622294+1049188009+1048659152
3759+1046909741+1045128871+1044513019+1044693613+1044424178+1042845561
3751+1040531857+1039470947+1040072951+1040571697+1039454543+1037180465
3742+1036104642+1036709842+1037315751+1036486425+1034066197+1031521264
3734+1030750455+1032159698+1034979535+1038183994+1040641435+1041555483
3725+1041125196+1040400051+1040172444+1040612176+1041694319+1043206394
3717+1044761291+1045967642+1046265909+1044920367+1042258684+1040626379
3708+1041440366+1043388195+1044709165+1044649370+1043520498+1042419607
3700+1042332612+1043240908+1044507409+1045577692+1046338701+1047099141
3691+1047930882+1048100255+1047080180+1046018702+1046055276+1046823031
3683+1047435828+1047416299+1046954623+1046393738+1045432606+1043842769
3674+1043067913+1043933599+1044716764+1044264392+1044325181+1046740652
3666+1050034946+1051931360+1051687704+1050094671+1048361807+1047074143
3657+1046362633+1046541594+1047662086+1048820003+1048789892+1046768632
3649+1043327192+1040893329+1040937998+1042712477+1044951188+1046712530
3640+1047690350+1048138391+1048095994+1047047441+1044848357+1042433313
3632+1040667356+1039061327+1037030124+1036172463+1037754772+1040224996
3623+1042109479+1043187007+1043685042+1043784607+1043831833+1043997300
3615+1043880266+1043326056+1042916009+1043031055+1043428603+1044101907
3606+1045110833+1045749764+1045307476+1043949861+1042367055+1041102826
3598+1040296154+1039709277+1039055503+1038595745+1038803538+1039264291
3589+1038922419+1037668488+1037258938+1039008491+1041639921+1043368808
3581+1043889356+1044219510+1045123899+1046043487+1046158391+1045713049
3572+1045373237+1044983075+1043854416+1041952534+1040442874+1040489886
3564+1041744599+1043271658+1044585100+1045541048+1046201285+1046673613
3555+1046790718+1046235940+1045220765+1044557617+1044566281+1044601434
3547+1043986151+1042849538+1041960985+1042033847+1043270308+1045110051
3538+1046423281+1046489894+1045735064+1045065737+1044802836+1044691198
3530+1044433410+1043905476+1043185160+1042559082+1042439420+1043148374
3521+1044485749+1045604891+1045810838+1045416628+1045305204+1045630315
3513+1045567253+1044524169+1043125507+1042598212+1043249572+1044124490
3504+1044282643+1043855055+1043636538+1043913714+1044305084+1044503148
3496+1044541283+1044517067+1044468421+1044436890+1044419278+1044366229
3488+1044367649+1044592912+1044909005+1044901974+1044428013+1043784891
3479+1043213993+1042729095+1042540334+1042980847+1043860026+1044520547
3471+1044657892+1044465154+1044033305+1043299638+1042494600+1041958357
3462+1041609952+1041178813+1040791705+1040798238+1041200402+1041643188
3454+1041864758+1041937620+1042101241+1042414849+1042608793+1042376358
3445+1041750990+1041053967+1040648607+1040774661+1041262612+1041512731
3437+1041175760+1040656703+1040536899+1040777857+1040907319+1040730702
3428+1040519784+1040613383+1040958450+1041034509+1040421214+1039438919
3420+1038888402+1039171259+1040042272+1041011073+1041577782+1041397117
3411+1040600813+1039778589+1039493815+1039924172+1040864496+1041879955
3403+1042534156+1042618949+1042172826+1041354081+1040395435+1039552332
3394+1038972698+1038679899+1038720378+1039202009+1040130687+1041251605
3386+1042136679+1042515052+1042588270+1042872760+1043512544+1043941695
3377+1043614310+1042853870+1042420672+1042489415+1042597218+1042350082
3369+1041778757+1041270566+1041228596+1041535598+1041697160+1041806596
3360+1042556313+1043875792+1044574590+1043905618+1042568101+1041602211
3352+1041190673+1041047363+1041182790+1041715553+1042401995+1042778664
3343+1042581665+1041919937+1041204379+1040789148+1040533703+1040012161
3335+1039278565+1038983138+1039570370+1040755202+1041912126+1042669654
3326+1043085596+1043461200+1043989701+1044443565+1044318648+1043477320
3318+1042489913+1042080150+1042417689+1043171099+1043883106+1044056954
3309+1043414613+1042386797+1041879458+1042334316+1043362771+1044226114
3301+1044426237+1043983949+1043290832+1042615256+1041929454+1041319141
3292+1041134499+1041506482+1042114806+1042631661+1043032618+1043342958
3284+1043468940+1043467520+1043661465+1044205022+1044689139+1044530205
3275+1043792561+1043298005+1043688948+1044633178+1045255208+1045095138
3267+1044337538+1043476539+1043139142+1043777505+1045058494+1045979572
3258+1045963097+1045387937+1044833444+1044335266+1043635899+1042792512
3250+1042274521+1042476846+1043206962+1043838224+1044075063+1044357352
3241+1045217357+1046387347+1046941983+1046417174+1045425576+1044881593
3233+1044974411+1045212457+1045118857+1044565145+1043764864+1043222728
3224+1043376975+1044065476+1044645251+1044813346+1044944726+1045413929
3216+1046028289+1046437910+1046694278+1047040695+1047414737+1047458625
3207+1046974579+1046250854+1045809560+1045752037+1045637133+1045248675
3199+1045074472+1045658722+1046826510+1047876128+1048300023+1048128803
3190+1047683533+1047063562+1046118835+1045090593+1044763564+1045503054
3182+1046661256+1047389313+1047510821+1047270503+1046824238+1046377263
3173+1046291333+1046667008+1047203464+1047716839+1048352078+1049076797
3165+1049498136+1049434931+1049155838+1048866093+1048459454+1047872009
3156+1047244937+1046773816+1046667363+1047024574+1047577079+1047848929
3148+1047624092+1047045169+1046421221+1046047251+1045930500+1045771850
3139+1045552624+1045768157+1046652734+1047647385+1048050686+1047798721
3131+1047368434+1047261058+1047635171+1048155008+1048313871+1048028884
3122+1047669613+1047519343+1047544909+1047614789+1047651433+1047636804
3114+1047612587+1047566285+1047319433+1046768632+1046268040+1046395301
3105+1047160570+1047846017+1047927047+1047702494+1047620612+1047546898
3097+1047234143+1046961512+1047132377+1047627998+1047996572+1048055515
3088+1048103806+1048610790+1049653306+1050680838+1051017596+1050531065
3080+1049640878+1048770434+1047983860+1047182940+1046551394+1046526751
3071+1047177472+1047922573+1048128235+1047698943+1047013141+1046601034
3063+1046797465+1047379016+1047738641+1047544128+1046890070+1045909835
3054+1044776702+1043892338+1043519149+1043350202+1042785766+1041540853
3046+1039829721+1038003329+1036138304+1034164767+1032344127+1031212273
3037+1030984240+1031414314+1032214949+1033202073+1034136573+1034767836
3029+1034954679+1034645049+1033916779+1032994209+1032114887+1031539160
3020+1031508481+1031781538+1031520483+1030256609+1028672808+1027851365
3012+1028069669+1028816119+1029639195+1030548059+1031777632+1033402125
3003+1035159560+1036692940+1037880045+1038711004+1039063244+1038992228
2995+1038972841+1039408169+1040099085+1040506788+1040333793+1039714035
2986+1039029937+1038596526+1038468342+1038513579+1038541347+1038388804
2978+1038161624+1038269355+1038835850+1039291419+1039000395+1038027758
2969+1036885535+1035829881+1034752638+1033522923+1032152739+1030618791
2961+1028620896+1025667194+1021512113+1016480339+1011385218+1007174319
2952+1004509866+1003512161+1003873988+1005166410+1006933149+1008588037
2944+1009511530+1009397336+1008391251+1006785648+1004705800+1002143468
2935+998930132+994483459+988084483+979852013+971139333+963676251+958517713
2925+955802697+955208719+956489920+959548938+964025367+969095277+973900794
2915+978069012+981767885+985387789+989091846+992571564+995398075+997613493
2905+999677860+1001846195+1003924339+1005616084+1006828826+1007615613
2897+1007998390+1007885758+1007096983+1005536901+1003444270+1001427697
2888+1000166238+1000076261+1001204351+1003271559+1005809248+1008389192
2880+1010746429+1012702496+1014171890+1015278392+1016225107+1017030288
2871+1017554174+1017638257+1017046693+1015512177+1013067306+1010151953
2863+1007241784+1004477909+1001655659+998422367+994523157+990071016+985665178
2853+982136530+980067689+979559782+980419290+982405326+985254421+988639119
2843+992195392+995557862+998463059+1000902533+1003037845+1004918280+1006466928
2833+1007701969+1008700029+1009398685+1009761364+1010090879+1010836335
2825+1012070382+1013443620+1014641519+1015604569+1016348320+1016917940
2816+1017526974+1018433637+1019661931+1021048662+1022490715+1023982195
2808+1025498602+1026944490+1028176335+1029059562+1029508029+1029489919
2799+1029130720+1028809159+1028896012+1029367559+1029899895+1030284234
2791+1030541739+1030774814+1031079686+1031483128+1031897649+1032225459
2782+1032455836+1032594388+1032618462+1032549435+1032450864+1032321686
2774+1032063046+1031637517+1031212770+1030968190+1030803220+1030493235
2765+1030019060+1029373453+1028247777+1026394115+1024132962+1022083580
2757+1020550627+1019410108+1018381085+1017294326+1016287459+1015722384
2748+1015762224+1016194144+1016815748+1017701319+1018849862+1019919294
2740+1020651185+1021280317+1022164751+1023234822+1024129625+1024694700
2731+1025057308+1025346841+1025614074+1025940109+1026352357+1026660709
2723+1026673137+1026595872+1026899607+1027710398+1028656617+1029364363
2714+1029801467+1030106552+1030386711+1030744064+1031303315+1032104377
2706+1032981142+1033604805+1033747618+1033501690+1033158540+1032903450
2697+1032770863+1032841950+1033237084+1033859398+1034394433+1034677503
2689+1034808954+1034829264+1034652434+1034439244+1034616287+1035312742
2680+1036112951+1036531378+1036468103+1036104571+1035623153+1035166875
2672+1034880964+1034846166+1035043804+1035403714+1035809997+1036117709
2663+1036289568+1036429967+1036608786+1036786468+1036953640+1037203901
2655+1037661954+1038380282+1039194482+1039736903+1039828726+1039747626
2646+1039878154+1040265902+1040691501+1040939489+1040903981+1040617289
2638+1040177771+1039593237+1038910559+1038513437+1038887337+1039968273
2629+1041099773+1041771656+1042087819+1042337015+1042438000+1042137247
2621+1041573308+1041214321+1041248622+1041433122+1041573521+1041744386
2612+1042000541+1042292843+1042682082+1043220739+1043674674+1043785388
2604+1043705424+1043787022+1044038703+1044089550+1043655074+1042922472
2595+1042419891+1042463139+1042845419+1043192688+1043380738+1043429740
2587+1043314480+1043097242+1043011526+1043248791+1043756343+1044297556
2578+1044720883+1045123189+1045605744+1046023531+1046282598+1046592015
2570+1046975502+1046970815+1046477466+1046393170+1047497825+1049014729
2561+1049283951+1047877691+1046073314+1045091871+1044818459+1044537591
2553+1044096368+1043895676+1044197210+1044760794+1045026323+1044676995
2544+1044091965+1044012711+1044704194+1045689614+1046306673+1046334653
2536+1046124232+1046189638+1046639028+1047155528+1047561385+1047987481
2527+1048416206+1048620448+1048620235+1048603688+1048457111+1048020717
2519+1047666631+1047939119+1048700696+1049168266+1048831650+1048079376
2510+1047831956+1048555184+1049719138+1050386831+1050215824+1049560133
2502+1048742383+1047769107+1046785392+1046265341+1046520786+1047335199
2493+1048194138+1048617252+1048322180+1047478438+1046813372+1047088276
2485+1048401150+1050127978+1051441349+1051833287+1051402645+1050770886
2476+1050523395+1050635174+1050552796+1049921179+1049142984+1049008835
2468+1049711397+1050489734+1050520697+1049961232+1049681641+1050036012
2459+1050427310+1050210711+1049487625+1048727043+1048191582+1048105439
2451+1048736417+1049865715+1050757748+1051024982+1051006234+1051120569
2442+1051351727+1051412659+1051040818+1050185145+1049136025+1048405695
2434+1048347391+1048898476+1049666373+1050249770+1050488739+1050461895
2425+1050343724+1050249202+1050090907+1049734406+1049399210+1049521216
2417+1050057459+1050403378+1050192318+1049724677+1049529596+1049823461
2408+1050383706+1050806110+1050980029+1051151604+1051357692+1051219069
2400+1050604496+1050009736+1049899732+1050084445+1050108590+1049946602
2391+1049986442+1050406432+1050663084+1049611548+1046388838+1041324609
2383+1035619461+1029934054+1023765667+1016444831+1008180972+999747101+991595448
2373+983590514+975320192+966620437+957859465+949544120+942008460+935921955
2363+932271940+931159828+931561353+932964631+936203960+942069321+950271609
2353+959984125+969897616+977787220+981260831+979085963+972369971+964789145
2343+959980290+958631410+959489640+961398055+963702101+966002881+967911793
2333+969211956+970329536+971944016+973925720+975522020+976590883+977808170
2323+979851090+983007755+987350106+992564746+997649357+1001495588+1003925759
2313+1005757619+1007815026+1010307123+1013277513+1017039520+1021680706
2305+1026467617+1030299006+1032744871+1034358854+1036031993+1038239102
2296+1040717919+1042688189+1043628301+1043971379+1044696880+1046176145
2288+1047862564+1049141493+1049927570+1050357146+1050523182+1050652644
2279+1051001333+1051447386+1051571948+1051164884+1050361407+1049423924
2271+1048645801+1048266291+1048239518+1048294555+1048390640+1048802746
2262+1049539112+1050069673+1049989780+1049547350+1049100375+1048568535
2254+1047899848+1047417506+1047249695+1047293157+1048033074+1050146300
2245+1052897037+1054325952+1053656980+1052294750+1051807721+1052037884
2237+1051944072+1051458819+1051451007+1052245819+1053175633+1053533341
2228+1053314825+1053100143+1053510687+1054612360+1055825102+1056531783
2220+1056443084+1055439697+1053832532+1052725746+1053199495+1055062886
2211+1056919176+1057605475+1057445689+1057827542+1059306737+1060684946
2203+1060583109+1059130972+1057289311+1055442751+1053461970+1051497878
2194+1050201692+1050209930+1051273751+1052171182+1051928093+1050803128
2186+1049824455+1049955337+1051688130+1054602347+1057335898+1058591107
2177+1058086822+1056327185+1053847303+1051188035+1049336432+1049161662
2169+1050139979+1050693763+1050190188+1049675179+1050790203+1054478210
2160+1059304677+1061157274+1058082632+1053774370+1052307817+1053763433
2152+1056483208+1059562253+1062322648+1063806671+1063531626+1061808492
2143+1059429523+1057055526+1054605258+1051898551+1049944259+1050300902
2135+1053045816+1056550318+1059195028+1060435111+1060580268+1060230798
2126+1059683974+1058813885+1057813623+1057569754+1058542248+1059757547
2118+1059956108+1059337913+1058941359+1058734702+1057803894+1056192042
2109+1055043427+1054947911+1055312578+1055369178+1055075811+1054997835
2101+1055564544+1056475041+1056993671+1056878909+1056592360+1056467513
2092+1056251979+1055686407+1055000108+1054634162+1054895501+1055851804
2084+1056981883+1057194221+1056123440+1055055784+1055417824+1056860374
2075+1058131633+1059115135+1060394419+1061573144+1061751750+1061171690
2067+1061000968+1061715816+1062466669+1061967142+1059701231+1056402889
2058+1053653572+1053000436+1054948905+1058095628+1059552736+1057565848
2050+1053954538+1052719426+1055528112+1059968749+1063145228+1065059963
2041+1067110553+1068790794+1067899187+1063846298+1058972251+1055996534
2033+1055423506+1056202268+1057526292+1058825248+1059314264+1058987519
2024+1059172942+1060732243+1062149866+1060902184+1056870672+1053181243
2016+1053316529+1057889184+1063948207+1067144357+1065736108+1062478386
2007+1060909002+1060853467+1060005535+1058268978+1057644321+1059031833
1999+1061064882+1061692806+1060259205+1057951821+1056516017+1056961004
1990+1059156964+1061777316+1062684901+1060594898+1056658120+1053387048
1982+1052186308+1053003774+1055753872+1060196923+1064444254+1066100917
1973+1065202351+1063685305+1062353043+1060601644+1058850671+1058827307
1965+1060814692+1062870679+1063545190+1063689921+1064795571+1066488736
1956+1066803125+1064674843+1061447091+1059741142+1061051815+1064558590
1948+1068032342+1069681194+1069161001+1067219350+1065015862+1063684666
1939+1063818247+1065055205+1066213407+1066246429+1065256323+1064191792
1931+1063768110+1064070709+1064664972+1064764750+1063934998+1062756414
1922+1062072956+1061710916+1061044003+1060356923+1060290807+1060290239
1914+1059234939+1057253945+1055695852+1055410652+1055884613+1056364753
1905+1056766846+1057108647+1057134212+1056854764+1056701582+1056906109
1897+1057324748+1057907933+1058726819+1059518223+1059787445+1059518507
1888+1059515524+1060653273+1062797675+1064702753+1065091779+1064096772
1880+1063129036+1063197708+1064057216+1065013022+1065769272+1066300828
1871+1066455785+1065988854+1065071468+1064529757+1064983408+1066233717
1863+1067624852+1068455172+1068377693+1067785206+1067535016+1068089652
1854+1069162989+1070156931+1070616902+1070423099+1069849431+1069285421
1846+1068864793+1068661758+1068935880+1069647816+1070337951+1070656387
1837+1070559450+1070144148+1069468430+1068511346+1067335887+1066440658
1829+1066579495+1067746928+1069143034+1070149687+1070725343+1070987109
1820+1070953589+1070876537+1071185599+1071836674+1072316388+1072333929
1812+1071961521+1071397298+1071027375+1071270392+1072025222+1072648388
1803+1072623959+1072089350+1071632929+1071583431+1071732352+1071701460
1795+1071122678+1069793612+1068371302+1068118840+1069032533+1069984219
1786+1070215945+1069752636+1069090766+1068703728+1068711469+1068869267
1778+1068892134+1068680861+1068150229+1067224889+1066243589+1065883395
1769+1066376957+1067416988+1068420019+1068791007+1068364768+1067562642
1761+1067046355+1066990536+1067071565+1067104091+1067125111+1066928326
1752+1066000359+1064280278+1062873946+1062843267+1063775637+1064796920
1744+1065644497+1066506703+1067457112+1068294249+1068866142+1069097086
1735+1068750031+1068023039+1068119550+1069416233+1071102226+1072561038
1727+1073482898+1073741823+1073572024+1073254440+1072461474+1070574931
1718+1067780164+1065597697+1065138365+1065613250+1066017047+1065957891
1710+1065279474+1063610596+1060462311+1056248997+1051919074+1046098595
1701+1034571973+1015284570+992305680+966402417+935851933+907640576+888078057
1691+874552545+863652924+855352350+849172316+841537802+829415426+816355921
1681+806196359+796986779+787336757+778559949+773652239+775314655+783385634
1672+796682333+815534407+838091320+858664895+874821341+888386622+901305586
1662+913409285+923375612+931037255+936892674+941148597+944424996+948707053
1652+954233668+958644974+961869460+965356208+970394587+976154986+980966682
1642+984501721+987194509+989414472+991422665+994003461+997875117+1002001720
1632+1005256956+1007590900+1009375250+1011038731+1012669474+1013983200
1623+1015019964+1016225960+1017539686+1018439247+1018828131+1019339873
1615+1020363357+1021247152+1021402110+1020982831+1020598349+1020544803
1606+1020449926+1019824629+1018467583+1016232990+1012685594+1007034986
1598+998392753+986163214+970458715+952451448+934444039+919656144+911493839
1588+911900335+920027630+932873305+947162027+960577748+971863839+980719120
1578+987893734+994928020+1002326619+1008442098+1012295858+1014568657+1016664697
1568+1019272266+1021346007+1021696116+1020230202+1017157620+1010894213
1560+997136549+977788783+965019947+959094506+956414004+957398429+962717889
1550+971040194+979619009+986371504+991040457+994249461+996492860+998877722
1540+1003661792+1010055726+1014912872+1017552966+1018998641+1020793431
1531+1023368474+1025692902+1027080769+1027664735+1027746687+1027275212
1523+1026302575+1025719959+1026313370+1027571491+1029104018+1031184576
1514+1033506022+1035119933+1035352227+1033947032+1031197004+1029527203
1506+1031859655+1034423479+1032420399+1024049234+1009453368+992760041+982568024
1496+983762372+990449035+994833782+994087402+989079631+983685888+981644886
1486+982641028+984866318+987734019+991514489+996158019+1000896212+1004811046
1476+1007429054+1009173351+1011590597+1015854332+1020714248+1024330813
1468+1026138244+1026420107+1026010131+1025690345+1025240316+1023799755
1459+1020730510+1016924687+1015296217+1015838851+1015779126+1014026875
1451+1011071398+1008305037+1007527979+1009367793+1012162206+1013439359
1442+1011774813+1007169419+1000179092+991737480+985103227+984351735+988907488
1432+995943905+1004020636+1012112068+1018677009+1022742325+1024576600
1424+1025064338+1024608060+1022574159+1018224565+1012317447+1006034369
1415+998587905+988880928+978001973+969241357+965441356+966543810+970298786
1405+974345993+977228821+978597585+978967863+979204133+979904068+981042456
1395+982588903+984907720+987937693+991004523+993766481+996679916+1000404639
1385+1004709706+1008656851+1011707205+1013941798+1015685172+1017099031
1377+1018055476+1018541865+1019056661+1020097473+1021430800+1022548380
1368+1023314573+1023848401+1024226775+1024575180+1025243228+1026513919
1360+1028141253+1029580749+1030557149+1031268447+1032117018+1033251784
1351+1034500886+1035667538+1036691377+1037615794+1038481906+1039163874
1343+1039374152+1039059906+1038820724+1039537845+1041280082+1043246802
1334+1044816826+1045866728+1046335150+1046058755+1044871792+1042382181
1326+1037883667+1031290248+1024202558+1019367498+1018787581+1022297196
1317+1027806057+1033004009+1036784267+1039200518+1040658692+1041280935
1309+1040828207+1039101806+1036318543+1033014945+1029682799+1026633652
1300+1024107397+1022333273+1021419082+1021143540+1020902795+1019966022
1292+1017826094+1014336576+1009707037+1004523146+999639370+995822539+993478581
1282+992727586+993566570+995826373+999081751+1002755414+1006322126+1009442218
1272+1012045313+1014281397+1016234979+1017760262+1018779840+1019550507
1264+1020335093+1020949595+1020950092+1020189723+1018927128+1017431813
1255+1015727213+1013696792+1011280896+1008605649+1006003761+1003810997
1247+1002063362+1000504701+998861885+996909937+994329851+990778621+986058110
1237+980045603+972603827+963805146+954222092+944899170+936996073+931382109
1227+928488913+928395314+930777194+934750757+939132095+943108073+946605474
1217+949997060+953543817+957074240+960055354+961935647+962476222+961800574
1207+960265633+958469991+957317968+957749106+960182331+964287558+969286026
1197+974282789+978384182+980935648+981877605+981691401+980837504+979254910
1187+976418243+971923848+966127159+960246032+955825493+954064507+955460329
1177+959820930+966448578+974303526+982122611+988621507+992839579+994474014
1167+993981375+992255897+989940773+986995806+983197155+979141071+976387919
1157+976330396+979049673+983278398+987085997+988423798+985473079+977110863
1147+963429044+946096217+928414062+914669110+908522525+911223551+921091238
1137+934702821+948729210+961167040+971514511+980145452+987489084+993649162
1128+998594510+1002441239+1005421287+1007620229+1008617650+1007270475
1119+1002405873+994562642+986873517+983181745+984832798+989672971+994195347
1109+996162351+995213221+991843649+986723317+981125403+977284781+977341452
1099+981564282+987947990+993769818+997421608+998950656+999442300+1000101897
1089+1001585282+1003823851+1006331003+1008666864+1010684716+1012408631
1081+1013749628+1014527823+1014883613+1015393793+1016481049+1017885393
1072+1019014975+1019699499+1020314356+1021204543+1022263606+1023176944
1064+1023879435+1024521776+1025122004+1025584105+1025969297+1026409667
1055+1026860264+1027229619+1027602028+1028111639+1028743256+1029351225
1047+1029785630+1030061031+1030447287+1031216108+1032320337+1033505809
1038+1034597113+1035449945+1035859282+1035771080+1035394695+1034952832
1030+1034526878+1034183515+1033975012+1033802585+1033563971+1033370736
1021+1033256897+1032818799+1031689785+1030356813+1029929651+1030957183
1013+1032845217+1034555071+1035599434+1036220612+1036747054+1037052281
1004+1036821266+1036216706+1035934204+1036507730+1037819042+1039365915
996+1040728500+1041625292+1041726916+1040708971+1038624933+1036217416
987+1034663584+1034716633+1035924475+1036618373+1034754129+1029309183
979+1021535975+1014666304+1011538968+1012337402+1015024225+1017624835
970+1019467915+1020731363+1021818193+1023150739+1024913287+1026822413
962+1028273414+1028734947+1028129606+1026997255+1026175527+1026154151
953+1026736839+1027294315+1027071395+1025067392+1020071552+1011796473
945+1002257165+995069129+992509283+993562878+995278484+995695775+995277561
935+995979981+999273779+1004977294+1011740157+1018233087+1023655876+1027653301
925+1030399423+1032522733+1034384988+1035400802+1034252543+1029681947
916+1021013652+1008326129+992701168+976297232+961495844+949589357+940578835
907+934352073+931617101+933440226+940013760+950003026+961136432+971510321
897+980313760+987374038+992358089+994689406+994146346+991232981+986749878
887+981052114+973868552+964717845+953422096+940581960+927730887+916661680
877+908516134+903813590+902975529+906074174+912218700+919834821+927628056
867+935077360+942188060+949030957+955511105+961501810+967023382+972058423
857+976322655+979590532+982205487+984901826+988070067+991451285+994609868
847+997461235+1000175683+1002722746+1004801245+1006245287+1007273671+1008265126
837+1009402875+1010485374+1011028647+1010773415+1010184762+1010138318
829+1010907351+1011651458+1011108540+1008789367+1005347430+1001711264+998149381
819+994474369+990751208+987187195+983626164+979860535+976318465+973912298
809+973185662+973658842+973719845+971121863+964043263+951974930+935455663
799+915164590+892363239+870876326+857275394+857067885+870298823+891449901
789+913486834+931780793+945043333+953864952+959011701+960916495+959923477
779+956286743+950230774+942559048+934890730+928911317+925548634+924831868
769+926208160+929027499+932956749+937951169+943809996+949846577+955185141
759+959502494+963251220+966875526+970018557+971788278+971706822+970246376
749+968414658+966808203+965287181+963769070+962868088+963264713+964876637
739+967138996+969779517+972956919+976799315+981013695+984834858+987087914
730+986253759+980736590+968894869+948225848+915651689+871711475+825599944
720+792661614+783236145+795265277+818924644+845144496+869147297+889436098
710+905696511+917625794+925133190+928795916+929543360+928295394+926251267
700+925018641+926024371+929836515+935856691+942575026+948598043+953586711
690+957940992+961837361+965012419+967306239+968972206+970401476+971829112
680+973501896+975829662+978956287+982318331+984593687+983757969+977947291
670+967973577+960942629+964789642+972564697+973206966+965247696+953228790
660+942724657+936679625+934978506+936221074+939030613+942531281+946148840
650+949373823+951617435+951779919+948246088+939738644+925828508+906625898
640+883003105+857693466+835457262+821352542+818257022+825405715+839000255
630+853773449+864290861+866810086+861682795+853857248+849631719+852152506
620+860317937+871612408+884619431+898506131+911845297+923162422+931697775
611+937277297+940445609+942716490+945744617+950105502+955119309+959731805
601+963496013+966785478+970072103+973174583+975428421+976516387+977022590
591+978070006+980253609+983064426+985453337+986678506+986406941+983989837
581+978163180+968271348+955791264+944050883+936407989+934736483+939264753
571+948657271+959871990+969687196+977218737+983556355+989083111+992935237
561+994893790+995962227+996804123+997207850+997418909+998514120+1000824841
551+1002947654+1003078750+1001146686+998923669+997931504+998120548+998841433
541+999950278+1001355331+1002555006+1003155874+1003029181+1001913447+999564803
531+996016697+991306980+985388996+978459885+970911939+962537650+951400480
521+933462738+905024201+868705932+836383880+820709492+824059747+839580030
511+859557994+879913976+899114100+915948465+929366601+938733411+942786370
501+940272685+932847597+924531754+918028811+913728715+911494620+912174102
492+917023223+926007114+937390852+948752219+957883114+963853437+968041256
482+972916013+979227072+985186174+988612488+989562541+990059085+991313372
472+992450552+992505519+991861545+990748226+988472231+984715479+980214977
462+976109252+973813870+975200885+980521482+985789811+986553021+982925448
452+977976904+974107877+972248107+973316828+977778059+983813149+988354770
442+989971523+989450762+988168779+987343004+988113671+990657822+993240109
432+993346491+990351459+986696971+985278211+986243249+987608817+987902753
422+986833037+984860281+984965030+991378635+1001500843+1008810743+1010518822
412+1008213214+1005550678+1003820158+1000979585+996354023+992965845+993232937
402+995114934+994384676+989709828+986064572+989286146+995602034+997989311
392+995561554+990562590+982398934+968585381+951723817+942564658+950416624
382+969909476+987845727+996935858+995333025+982732923+964416026+953704527
##END=
