##TITLE=NiW-X11632
##JCAMP-DX=4.24
##DATA TYPE=INFRARED SPECTRUM
##DATE=3/1/2019
##SAMPLING PROCEDURE=Diamant-ATR
##ORIGIN=Angelika Moesle
##XUNITS=1/CM
##YUNITS=TRANSMITTANCE
##RESOLUTION=4
##FIRSTX=3997.453
##LASTX=373.96442
##DELTAX=-1.4165319
##MAXY=0.97031355
##MINY=0.56639326
##XFACTOR=1
##YFACTOR=9.0367491e-010
##NPOINTS=2559
##FIRSTY=0.94717342
##XYDATA=(X++(Y..Y))
3997+1048135123+1047470727+1046742221+1046327674+1046382024+1046681143
3989+1046912392+1046921627+1046630817+1046084487+1045632740+1045621000
3980+1045838265+1045777848+1045446211+1045356772+1045718683+1046174190
3972+1046369426+1046360983+1046460910+1046907709+1047589254+1048047465
3963+1047953672+1047505949+1047088435+1046720125+1046228012+1045762809
3955+1045705492+1046124853+1046652979+1046951242+1047088369+1047303194
3946+1047546315+1047619529+1047599807+1047708242+1047864827+1047785941
3938+1047435506+1047059677+1046906588+1046974129+1046931059+1046461569
3929+1045770658+1045318252+1045205794+1045242928+1045397138+1045767229
3921+1046199386+1046313823+1045957584+1045475562+1045364818+1045726862
3912+1046258023+1046550810+1046347000+1045781080+1045398259+1045697973
3904+1046525021+1047146807+1047195550+1046983429+1046861671+1046876577
3895+1046940095+1047012978+1047095888+1047115016+1046950714+1046619605
3887+1046257099+1045972820+1045784510+1045646591+1045549633+1045572257
3878+1045695928+1045678515+1045336457+1044857403+1044742636+1045366731
3870+1046587615+1047704615+1048114808+1047937447+1047749202+1047927157
3861+1048266841+1048376595+1048111576+1047527253+1046789710+1046297268
3853+1046552921+1047257815+1047682519+1047705472+1047496055+1047163297
3844+1046761085+1046493691+1046690971+1047328852+1047811401+1047649804
3836+1047132824+1046656871+1046192460+1045846114+1045992673+1046618417
3827+1047188955+1047274700+1046939633+1046521657+1046370613+1046658322
3819+1047214085+1047933159+1048828804+1049563775+1049756108+1049558036
3810+1049278308+1049039276+1048975297+1049196058+1049367022+1049036308
3802+1048316046+1047826307+1047825054+1047923398+1047726513+1047203795
3793+1046775925+1046925914+1047587671+1048138289+1048150491+1047898202
3785+1047864761+1048076091+1048266314+1048430945+1048782501+1049258850
3776+1049475457+1049174424+1048408321+1047472772+1046830407+1046823547
3768+1047253989+1047584703+1047460570+1046835749+1045962596+1045346812
3759+1045355189+1045675415+1045718815+1045565133+1045767822+1046589462
3751+1047593343+1047992654+1047667019+1047123458+1046982902+1047664776
3742+1048600985+1048800772+1048058150+1046833111+1045970643+1046208026
3734+1047319486+1048309252+1048677694+1048709552+1048822208+1049129573
3725+1049478227+1049673529+1049556321+1049099430+1048638647+1048602700
3717+1048905249+1049060053+1048786261+1048176479+1047531607+1047236708
3708+1047511226+1048207149+1048914615+1049159584+1048653355+1047678561
3700+1047010868+1047042462+1047482204+1047873335+1048032228+1048101748
3691+1048216911+1048111378+1047528375+1047174576+1047854274+1049239591
3683+1050505326+1051181990+1051219454+1050713358+1049935844+1049406662
3674+1049250342+1048878206+1048133012+1047620452+1047861133+1048424679
3666+1048632843+1048419996+1048069627+1047784952+1047621112+1047693336
3657+1048174104+1048923454+1049461671+1049671220+1049953917+1050572999
3649+1051097234+1050954566+1050456583+1050048171+1049668450+1049186099
3640+1048755722+1048625785+1048803410+1049099298+1049335889+1049384171
3632+1049227125+1049094615+1049342749+1049931952+1050438642+1050706498
3623+1050692977+1050263656+1049507183+1048986048+1049160771+1049663833
3615+1049828398+1049463980+1048875766+1048379300+1047984409+1047672031
3606+1047596971+1047806784+1048140861+1048441234+1048574206+1048385500
3598+1047860408+1047217976+1046768604+1046703899+1046933235+1047178665
3589+1047265070+1047211051+1047041868+1046745650+1046500221+1046599553
3581+1047111388+1047791350+1048361689+1048734286+1048894498+1048768782
3572+1048387281+1048019762+1047948923+1048179117+1048427779+1048411619
3564+1048153921+1047950902+1048070154+1048381410+1048460560+1048236830
3555+1048082950+1048153921+1048196464+1048110916+1048179579+1048551252
3547+1048910394+1048807961+1048197651+1047394150+1046622243+1046001248
3538+1045784707+1046209411+1047086324+1047853812+1048081367+1047764900
3530+1047222593+1046826119+1046786413+1047151820+1047812060+1048389391
3521+1048470322+1048133606+1047858495+1047855065+1047860803+1047632918
3513+1047296928+1047112047+1047138563+1047285253+1047539192+1047887450
3504+1048086908+1047873665+1047443025+1047306030+1047622431+1048085918
3496+1048430945+1048728680+1049070342+1049220001+1048876426+1048195804
3488+1047678891+1047543743+1047590309+1047659697+1047806322+1048072727
3479+1048410300+1048756316+1048999767+1048977539+1048588123+1047905259
3471+1047230640+1046995104+1047416180+1048225090+1048860398+1048944692
3462+1048570380+1048148908+1047969172+1047953738+1047896553+1047779213
3454+1047734824+1047844050+1048072529+1048323103+1048498882+1048574470
3445+1048573282+1048439651+1048081169+1047611218+1047384322+1047617154
3437+1048070484+1048310967+1048205236+1047950177+1047738385+1047660819
3428+1047770771+1047961719+1047985068+1047787986+1047585429+1047497836
3420+1047442300+1047404637+1047440651+1047435638+1047269951+1047177676
3411+1047530617+1048264665+1048875832+1049012299+1048785799+1048488394
3403+1048255365+1048028535+1047677770+1047189021+1046822360+1046935610
3394+1047512545+1048048256+1048103067+1047856450+1047869972+1048358193
3386+1048908085+1048948650+1048371583+1047638129+1047346858+1047695051
3377+1048330689+1048755854+1048843315+1048843776+1048966854+1049157473
3369+1049275472+1049273361+1049123702+1048769376+1048297248+1047993973
3360+1048001162+1048063493+1047869246+1047522439+1047440123+1047854340
3352+1048576646+1049167828+1049292555+1049016850+1048724788+1048660017
3343+1048698405+1048652432+1048542612+1048456207+1048377915+1048250945
3335+1048046607+1047788315+1047617814+1047689840+1047892265+1047908755
3326+1047668272+1047475938+1047591035+1047894112+1048074573+1048002086
3318+1047822416+1047755534+1047902885+1048257871+1048755986+1049209910
3309+1049355479+1049110115+1048668394+1048272382+1047991005+1047768594
3301+1047599148+1047624542+1048008879+1048688115+1049336219+1049630854
3292+1049467212+1048970746+1048450996+1048255101+1048474411+1048796221
3284+1048773663+1048285705+1047708110+1047561750+1047975043+1048569127
3275+1048903205+1048924641+1048899973+1048998646+1049104838+1049093032
3267+1049095868+1049283519+1049512921+1049512723+1049299678+1049117173
3258+1049101936+1049263270+1049603152+1050057141+1050443985+1050589818
3250+1050445238+1050086360+1049630194+1049172643+1048842523+1048806642
3241+1049049434+1049279034+1049217099+1048810072+1048111180+1047279251
3233+1046722631+1046851909+1047587011+1048402583+1048920024+1049219671
3224+1049489836+1049597017+1049236227+1048432264+1047654487+1047389995
3216+1047727898+1048325676+1048730790+1048850834+1049042442+1049561796
3207+1050126463+1050293337+1050092231+1049989270+1050288324+1050782614
3199+1051056471+1050995262+1050797322+1050535205+1050063011+1049409697
3190+1048915209+1048866202+1049240052+1049836313+1050439830+1050830565
3182+1050843889+1050519969+1050097045+1049784998+1049616277+1049532510
3173+1049464706+1049307857+1049013223+1048719643+1048613583+1048673473
3165+1048757042+1048876492+1049128451+1049392877+1049426846+1049276923
3156+1049222508+1049282463+1049246252+1049222046+1049583628+1050295447
3148+1050835974+1050835512+1050357580+1049621224+1048812974+1048054390
3139+1047291519+1046292848+1044837616+1042852212+1040453383+1038031733
3131+1036279293+1035949503+1037356784+1039997745+1042807493+1044934772
3122+1046185337+1046757457+1046831924+1046561627+1046238961+1046207367
3114+1046536959+1046925386+1046997544+1046685101+1046290870+1046209741
3105+1046539597+1046944712+1047023862+1046807651+1046683782+1046800659
3097+1046843862+1046533266+1046074263+1045816301+1045644876+1045111408
3088+1044077581+1042818442+1041490112+1039866489+1037640272+1034740228
3080+1031412446+1028174499+1025648437+1024343127+1024472009+1025780419
3071+1027604423+1029380674+1031017621+1032505965+1033444548+1033387956
3063+1032455507+1031175591+1029956026+1029090788+1029028788+1030127385
3054+1032166808+1034499019+1036684012+1038655169+1040305242+1041333594
3046+1041590302+1041260776+1040678630+1040204260+1040178536+1040691030
3037+1041430288+1042010917+1042410557+1042890732+1043558161+1044223018
3029+1044687957+1044982460+1045264892+1045642436+1046120896+1046609051
3020+1046949329+1047074056+1047161516+1047480028+1048007890+1048325280
3012+1047987839+1046933301+1045447464+1043820147+1042094420+1040007837
3003+1037029830+1032526280+1026107043+1018013198+1009286353+1001432463
2995+995568329+991621267+988405812+984607749+979758182+974457067+969954044
2985+967555941+968140395+971846645+978037666+985584654+993299570+1000271205
2975+1006020505+1010511326+1014004861+1016812563+1019132572+1021043575
2966+1022552696+1023623393+1024218928+1024335344+1023951072+1022952731
2958+1021142842+1018273468+1014047008+1008269873+1001290917+994343159+989125876
2948+986708645+986866285+988591879+991025600+993735883+996482047+999119511
2938+1001622950+1003969408+1006066083+1007832505+1009207401+1010142554
2929+1010752469+1011316608+1012001253+1012768477+1013602516+1014563789
2921+1015617535+1016661519+1017691784+1018748960+1019784304+1020725657
2912+1021605472+1022526246+1023510538+1024422738+1025073547+1025438690
2904+1025712614+1026072547+1026443166+1026599948+1026471264+1026211191
2895+1025963123+1025730159+1025489808+1025230791+1024818817+1024021318
2887+1022715942+1021000636+1019162451+1017651220+1016976073+1017434812
2878+1018867948+1020696042+1022320985+1023597273+1024843485+1026342118
2870+1027992784+1029533037+1030881682+1032115097+1033232889+1034095422
2861+1034571837+1034680206+1034544992+1034280698+1034024517+1033998530
2853+1034328914+1034832174+1035224624+1035524733+1036019485+1036869618
2844+1037951001+1039011540+1039812271+1040241790+1040456879+1040786669
2836+1041402190+1042197249+1043000486+1043714350+1044247093+1044503076
2827+1044495491+1044370501+1044300717+1044396224+1044685846+1045086080
2819+1045396676+1045445815+1045261198+1044998224+1044746923+1044558283
2810+1044523853+1044631827+1044708800+1044705700+1044813739+1045145046
2802+1045552535+1045881468+1046155919+1046437231+1046673954+1046733052
2793+1046531683+1046156315+1045838265+1045761424+1045926253+1046193450
2785+1046374307+1046311646+1045986209+1045538948+1045133240+1044845531
2776+1044738019+1044903376+1045315878+1045754894+1046052036+1046309800
2768+1046708978+1047213293+1047630610+1047847942+1047887978+1047845303
2759+1047817997+1047813577+1047753688+1047625663+1047493285+1047327598
2751+1047024125+1046640843+1046406758+1046439803+1046617428+1046785621
2742+1046943459+1047121150+1047192516+1046995302+1046594672+1046235465
2734+1046043989+1045948481+1045866759+1045806276+1045819467+1045976645
2725+1046279657+1046534783+1046496791+1046214424+1046011273+1046052827
2717+1046176960+1046232827+1046329983+1046638601+1047131373+1047622035
2708+1047934017+1047989224+1047851899+1047715036+1047740430+1047879470
2700+1047917725+1047713057+1047359456+1047116401+1047177544+1047486359
2691+1047775322+1047806256+1047576392+1047280175+1047116137+1047144103
2683+1047288287+1047437155+1047530419+1047535168+1047378584+1047025379
2674+1046628311+1046444618+1046534980+1046684441+1046686222+1046563540
2666+1046455831+1046439803+1046537949+1046772495+1047115807+1047464857
2657+1047706330+1047774069+1047672625+1047485964+1047312098+1047172333
2649+1047044440+1046956057+1046959684+1047043187+1047155844+1047275030
2640+1047399097+1047516107+1047620716+1047735549+1047896421+1048111246
2632+1048335174+1048505148+1048603755+1048657775+1048653421+1048497958
2623+1048164276+1047837388+1047739836+1047820503+1047840884+1047759822
2615+1047799001+1048137102+1048686862+1049121592+1049141445+1048842787
2606+1048655466+1048772212+1048952277+1049017378+1049128056+1049454944
2598+1049947189+1050455528+1050876142+1051230007+1051642047+1052116879
2589+1052423122+1052338960+1051898228+1051359285+1051030418+1051039124
2581+1051187464+1051184628+1051011620+1050871591+1050840525+1050762430
2572+1050452428+1049926676+1049433969+1049218748+1049264391+1049393207
2564+1049564236+1049912363+1050513637+1051237328+1051837877+1052158433
2555+1052255721+1052333288+1052599824+1053167723+1053904277+1054354309
2547+1054138428+1053504835+1053111197+1053199779+1053435777+1053558854
2538+1053657462+1053794720+1053928483+1054224833+1054927880+1055843905
2530+1056337404+1055997654+1055111705+1054348966+1054054397+1054014031
2521+1053907904+1053744065+1053673226+1053633585+1053490786+1053381031
2513+1053546982+1053882708+1053977424+1053624944+1053036466+1052548839
2504+1052316204+1052280125+1052318513+1052418439+1052689395+1053170163
2496+1053729026+1054261440+1054871750+1055708362+1056628081+1057166299
2487+1056965060+1056202849+1055460953+1055165527+1055301796+1055620373
2479+1055892055+1055948713+1055660212+1054989287+1054088432+1053312831
2470+1053033630+1053353527+1054005786+1054544268+1054658243+1054357606
2462+1053875321+1053439338+1053190808+1053184872+1053326550+1053440987
2453+1053568286+1054007171+1054879599+1055841993+1056433900+1056607436
2445+1056721477+1057028578+1057334228+1057295378+1056937688+1056585670
2436+1056308844+1055842124+1055148312+1054627507+1054573619+1054761204
2428+1054778617+1054528372+1054227273+1054078802+1054096940+1054180575
2419+1054242114+1054250820+1054253788+1054402986+1054833164+1055446178
2411+1055962036+1056252977+1056446762+1056668843+1056880700+1056957805
2402+1056756039+1056199551+1055475530+1055001357+1055038953+1055433382
2394+1055806243+1055905312+1055753675+1055562792+1055506860+1055569520
2385+1055690949+1055988485+1056611130+1057417467+1058024611+1058152899
2377+1057802332+1057239116+1056883602+1056944679+1057160230+1057202444
2368+1057163198+1057304217+1057709331+1058339824+1058856870+1058599105
2360+1057474389+1056370844+1056025224+1056195198+1056352178+1056436011
2351+1056626894+1056922583+1057181667+1057363447+1057622926+1058130803
2343+1058772377+1059293578+1059688007+1060087581+1060406488+1060368496
2334+1059868073+1059141545+1058545350+1058253551+1058149074+1057926135
2326+1057402494+1056841851+1056752148+1057155547+1057412322+1057066768
2317+1056357125+1055750575+1055501319+1055604478+1055789292+1055725972
2309+1055472561+1055488919+1056097052+1057123162+1058074805+1058494166
2300+1058187329+1057326379+1056365370+1055691542+1055309975+1055012768
2292+1054833428+1055037700+1055631125+1056202519+1056402768+1056377374
2283+1056585736+1057247625+1058083116+1058604976+1058521935+1057856550
2275+1056980824+1056570763+1057112609+1058324192+1059323127+1059408807
2266+1058603525+1057587573+1057169399+1057663622+1058691315+1059573042
2258+1059895115+1059787472+1059778304+1060402861+1061838833+1063741328
2249+1065482159+1066733911+1067631930+1068105773+1067571842+1065822437
2241+1063730445+1062453233+1062267495+1062559227+1062601309+1062001354
2232+1060724472+1059046433+1057061557+1053623823+1045386651+1026172474
2224+988083277+928319799+859400354+808575842+798716695+828985311+878430310
2214+926000714+962956554+990054433+1009924959+1023654525+1031798631+1036064534
2204+1038908448+1041860071+1044952053+1047471717+1048879130+1049459363
2196+1050248485+1052082119+1054763512+1057109443+1057851999+1056938413
2187+1055714100+1055326860+1055648999+1056194275+1056948769+1057783930
2179+1058113192+1057440882+1055823195+1053996156+1052981853+1053149716
2170+1054003807+1054976557+1055620901+1055275941+1053957835+1053570397
2162+1056617659+1063195063+1070064991+1073735689+1073741823+1071615401
2153+1068574075+1065298334+1062580202+1061236373+1061374489+1062081559
2145+1062288272+1061921545+1061702630+1061989614+1062460884+1062740414
2136+1062623075+1061856049+1060366452+1058595939+1057177050+1056436209
2128+1056420115+1057105617+1058303481+1059496135+1060023206+1059526872
2119+1058286069+1057106606+1056654002+1056835717+1057035108+1056913745
2111+1056656113+1056513116+1056510609+1056545897+1056536135+1056579206
2102+1056922386+1057557100+1058130276+1058523056+1059075191+1059903624
2094+1060512681+1060432542+1059836545+1059250639+1058876657+1058481436
2085+1058028238+1058101452+1059258092+1061031903+1062114670+1061777690
2077+1060793662+1060587147+1061617346+1063043426+1063940455+1064176453
2068+1064029696+1063774175+1063817311+1064449256+1065370294+1066054873
2060+1066367118+1066466187+1066470145+1066361314+1065957585+1065213248
2051+1064670083+1065005810+1066032579+1066958168+1067621443+1068300481
2043+1068565171+1067699669+1066135078+1065277425+1065791040+1066938117
2034+1067758108+1068058283+1067973395+1067585034+1067446126+1068370330
2026+1070148098+1071415878+1071244981+1070164390+1069332856+1069381863
2017+1070096915+1070553212+1069636000+1067306889+1065386256+1065884305
2009+1068239272+1069726098+1069175283+1068156033+1067927224+1067888375
2000+1067497771+1067453316+1068416171+1070036695+1071561711+1072473318
1992+1072555435+1072040303+1071460532+1070959580+1070180813+1068965932
1983+1067617287+1066481226+1065730029+1065539015+1066076243+1067302338
1975+1068901689+1070265371+1070733344+1070216431+1069369199+1068919761
1966+1069135048+1069953522+1070921720+1071018349+1069647410+1067883296
1958+1067336504+1067934875+1068281089+1067745114+1066778828+1065738736
1949+1064760644+1064299135+1064721267+1065701799+1066556682+1066875391
1941+1066717619+1066367052+1065986013+1065619352+1065462965+1065782202
1932+1066496396+1067162309+1067390853+1067109740+1066560837+1066141278
1924+1066028819+1065925463+1065468572+1064852523+1064639940+1064908522
1915+1065077572+1064811036+1064438043+1064405394+1064799229+1065464416
1907+1066207236+1066825922+1067222792+1067392172+1067227937+1066642559
1898+1065860230+1065297938+1065255923+1065858186+1067009748+1068247583
1890+1068911780+1068766211+1068289928+1068052545+1068126747+1068234061
1881+1068237359+1068283991+1068471972+1068623939+1068509502+1068114545
1873+1067581670+1067038835+1066621980+1066530035+1066814050+1067194958
1864+1067268501+1066858374+1066283285+1066198529+1066855340+1067681135
1856+1067907239+1067392238+1066565322+1065892550+1065657344+1065876918
1847+1066176631+1066083433+1065667963+1065542708+1065885954+1066217921
1839+1066081520+1065372471+1064287724+1063163205+1062242365+1061527116
1830+1060827499+1059936009+1058724294+1057174279+1055551777+1054329904
1822+1053699675+1053457411+1053362629+1053353065+1053504967+1053906915
1813+1054574213+1055457193+1056471232+1057495561+1058405519+1059136532
1805+1059688865+1060103939+1060476866+1060917795+1061415647+1061840219
1796+1062129643+1062360760+1062683888+1063182927+1063706370+1064029894
1788+1064178168+1064386332+1064850413+1065538685+1066222670+1066638404
1779+1066660698+1066422919+1066168650+1065982781+1065759578+1065430118
1771+1065153688+1065050661+1064952714+1064656232+1064215302+1063837627
1762+1063606971+1063409427+1063117299+1062696090+1062122255+1061420132
1754+1060762794+1060356360+1060109347+1059486637+1058106333+1056197111
1745+1054167449+1052301562+1050823639+1049939142+1049729197+1050021260
1737+1050540613+1051118472+1051643630+1052098675+1052687614+1053544080
1728+1054487214+1055227066+1055686859+1055964938+1056135770+1056255088
1720+1056412794+1056676626+1056964731+1057076464+1057010308+1057014133
1711+1057304283+1057882273+1058649893+1059581485+1060613201+1061597955
1703+1062596889+1063800294+1064999808+1065763536+1066252747+1066743211
1694+1067072276+1067079399+1066861738+1066588276+1066424897+1066483468
1686+1066803761+1067279318+1067541040+1067465254+1067321333+1067290927
1677+1067305833+1067138168+1066636887+1065901652+1065132449+1064500571
1669+1064103372+1063810386+1063340962+1062457190+1061096541+1059575878
1660+1058407168+1057863014+1057926729+1058425702+1059140291+1059774214
1652+1060028219+1060016742+1059885551+1059399441+1058069858+1055765877
1643+1052548311+1048205170+1042705917+1036381660+1029444587+1022072587
1635+1014834811+1007109935+995895547+976860117+947358462+912751982+886776577
1625+881420320+898548375+927100762+952997348+972155131+987187434+999531947
1615+1008266180+1013608782+1016593253+1017083585+1013648159+1004208638
1606+986502922+958486246+920254514+877410994+841137622+821966120+823324131
1596+841053987+867269216+894873390+920299431+943021521+963281595+980822416
1587+995162753+1006206771+1014454365+1020712927+1025614733+1029636195
1578+1033535240+1038058380+1042557446+1045627266+1047365063+1048684686
1570+1050043817+1051209494+1051964384+1052536043+1053123531+1053639323
1561+1054038897+1054629156+1055448751+1055589637+1054787983+1053525084
1553+1052347732+1051545748+1050894347+1049882484+1048015805+1044609731
1544+1038469233+1026256373+998269510+947515508+894084334+859534446+846808960
1534+857794341+890459279+929082143+960590836+984275386+1002045213+1013895634
1524+1020485702+1023970926+1026358937+1028567081+1030625171+1032477933
1516+1033946027+1034645842+1034546311+1033962714+1033081911+1031965966
1507+1030898897+1030164322+1029353499+1027753027+1024531042+1018558869
1499+1008590627+994538592+979940161+970055158+966902165+969939402+977880554
1489+987608049+995202196+999454512+1001167839+1001009869+999290277+996123630
1479+991003504+982764683+970052520+950964653+923605315+891278280+862624845
1469+842066773+829961688+828272107+838669537+856032601+872145232+883896254
1459+892248655+898542307+902822326+904536246+903274007+898126772+888360823
1449+875156085+862902727+857707276+862596220+874978922+888521101+896762561
1439+895533433+882275664+858037330+830523717+804757134+777612424+745477130
1429+710448255+678616499+654162548+639162629+635692048+644862527+667130760
1419+702176850+742991038+778740043+807245798+832362364+856671075+880438666
1409+902672865+922286945+939064895+953015289+963382709+969460678+970919275
1400+966591964+954723339+935575450+914246394+899728233+896384753+898241143
1390+894852350+879071554+853884281+832166402+821874834+816698578+803911288
1380+777846971+745095958+715959578+694233785+677144843+661975742+649043279
1370+639030977+631705873+627252780+626766603+631169172+640153583+652607389
1360+668242747+687186825+707528951+724246813+730963388+724214032+707726825
1350+692553107+690753969+706605868+734159254+763527740+788552426+808732691
1340+826036920+841570439+855069086+866187174+875029710+881811913+886766485
1330+890382174+893422709+896523265+899681139+901997982+901878070+897351501
1320+885929939+865259936+836702866+808778993+793976224+799359127+819625730
1310+841120011+853779738+858622972+864455248+878123670+898227292+917879694
1300+931617505+938476681+940055453+938110812+934394075+931350308+931606621
1290+936301186+944153559+952455503+958882126+962436210+963246703+961768715
1281+957797182+949756433+934987830+911658266+881737051+852291988+832302276
1271+826516369+832338025+843404930+855645691+869095463+884834705+902063478
1261+918670003+933350553+946135533+957290690+966370741+972049664+972193320
1251+963915914+944364691+913059479+874614108+838760098+816243533+813202734
1241+828377442+854960849+884973811+912699348+935438389+952230190+962252583
1231+963942429+954726307+931402085+892233089+840859411+788524064+750243061
1221+736382832+746891336+772962249+803640992+831219772+851961933+863569035
1211+863063269+848137949+821766993+794842517+781296578+788462657+812520134
1201+843261472+871724353+893523756+907915475+916139654+920605279+924344111
1191+929926868+938093399+947418088+955498016+960341448+960766548+956121913
1181+946110007+931161273+913295740+896366615+884481830+879510505+879987118
1171+882195196+882194866+877602206+868730055+858684577+852037521+852566241
1162+861387472+876606635+894534827+911600552+925812733+937017227+946125574
1152+954139082+961519789+967971873+972559520+973881583+970018551+958826260
1142+939528844+915030503+892268047+878361845+874796680+876130088+875844292
1132+872106646+865691763+854223767+832364079+798225176+758046559+724370220
1122+709205407+716867755+742157197+775473932+809296764+840095089+866316320
1112+886117853+896214384+891929814+869236547+828869357+779705999+736772512
1102+713193891+712621837+729131139+753492287+778955133+802597008+823719285
1092+842237605+858220232+871944060+883707350+893610689+901760599+908599856
1082+914840940+921019165+927129190+932740441+937516662+941597025+945459925
1072+949504935+953833301+958361190+962949826+967378118+971412443+975037234
1062+978464415+981861057+985187190+988262221+990913405+993087977+994740094
1052+995454948+994078931+988555471+976543321+957698707+936250465+919988637
1043+914703088+919103150+925517043+925160078+912377670+885227551+844863791
1033+796329541+749298212+715451239+702716189+711040228+733606460+761902599
1023+789834387+814591811+835574323+853142978+867844964+880166655+890532822
1013+899299506+906812591+913395931+919095828+923701482+927256226+930234628
1003+932960806+935002340+935315641+932920044+926533589+912893858+888310233
993+856163858+830894005+827698601+847388138+876297885+900868055+917386393
983+928530733+936817572+943083654+947622360+950658673+952489009+953781787
973+955519518+958405447+962293279+966344358+969785521+972377607+974279244
963+975807888+977353879+979262903+981613846+984091561+986236385+987916007
953+989433900+991155274+993173656+995247641+996819422+996987681+994021943
943+984379996+963049686+927270407+881631848+838658786+812142195+808495637
933+824026848+849481844+876302502+899644269+918039510+931838134+941866662
924+948852016+953428912+956098630+956882476+954888959+948223634+935145733
914+916791518+899076238+890230207+894763834+909930494+928581059+944867555
904+956940981+965606880+972019719+976735456+980101230+982741531+985189103
894+987223382+988030840+986751188+982549791+975056428+965736224+958171758
884+955547880+957562240+960293827+958570540+947653888+924635712+892381495
874+862440361+848873117+855850755+873562209+887500532+888425858+872276225
864+836627146+784009961+727626834+687359042+676441664+692711341+722932994
854+753064417+773646894+779915746+772454306+758686550+750397337+756668761
844+778182434+808144147+838191407+863342139+882752211+897784515+909956943
834+919993056+928070742+934497036+939848873+944598974+948865801+952538808
824+955632702+958462699+961309053+964045917+966381030+968278248+969905631
815+971417522+972941417+974554751+976243607+977992089+979816489+981654806
805+983282190+984392066+984959305+985506427+986547443+987778221+988481927
795+988658959+988983736+989749048+990547734+990858858+990393392+988888823
785+985781472+979791293+968209783+946717151+911678185+864919988+816611975
775+781596027+770845127+785155916+815877268+851158300+882410021+906623621
765+924555771+937983183+948300870+956355009+962683223+967709821+971755953
755+975028198+977720474+980079398+982342023+984605638+986750001+988540102
745+989731437+989899234+988299487+984043741+976412064+965620929+954086250
735+946266592+945803896+952619145+963244065+973672166+981707177+987209333
725+990825351+992766365+992432222+988247381+977042953+953866082+914497298
715+861699124+810300975+781611725+787590494+821395649+864873554+902824371
705+928752352+940524019+936002001+915189396+885274118+860263745+852456355
696+863610391+885335855+907526719+925081654+937826005+947273969+954661140
686+960728688+965929943+970366810+973695911+975555467+976276784+976815859
676+977865780+979391192+980934544+981996931+981445390+974519727+953134871
666+918627130+883497999+862964266+868888157+897684259+931338898+956154299
656+970788018+979169375+984221894+987307940+989148038+990295246+991231785
646+992011013+992195498+991394635+989368668+984767235+973086459+947148055
636+903790524+852931979+816545159+813014160+841792520+885064767+923725161
626+949703535+964839129+973628898+979305248+983585992+986875057+988449344
616+987052880+981346452+969558032+948993958+918012203+881036247+850445228
606+839343233+850981533+876845535+904835828+927340388+942537587+951589341
596+956191499+957442328+954889289+946220685+930036424+910572200+897756879
586+900006246+916642914+938728839+957678590+970949483+979740967+985055802
577+987401864+987835472+987334455+985606684+981179051+972427142+958487301
567+939761808+918615786+899916741+889092298+887755526+892006523+896537776
557+899924524+904916560+914172455+926969770+939475022+946071686+941110057
547+923824428+903139914+893146410+900843386+920845762+942364711+957876596
537+964020391+956998034+932041417+891328738+850750020+831698958+843305466
527+875959850+910983910+933852823+939244433+928437139+908191510+890460730
517+885004547+889541011+892272268+884855218+869842372+856609866+852535637
507+858651136+871605035+887445853+903124348+916271043+925991282+933328654
497+939425422+944134168+947026759+948613380+949948437+951853438+954839227
487+959078747+964159299+969263859+973787791+977537374+980295609+981724062
477+982016257+982156747+982984191+984336463+985683393+987302201+989811246
467+992714786+994499281+994548486+994144361+994835404+996457510+997419904
458+996662310+994899976+993646378+993686018+994747547+996032740+997386529
448+999621452+1003188266+1007189942+1010271634+1011933844+1012464806+1012137324
438+1011232050+1010349729+1009590354+1008043373+1005421540+1002891653
429+1000751644+996908663+989571027+980392963+973481152+971700614+975670761
419+984489882+994321194+1001024578+1004845661+1007908423+1011152636+1013545331
409+1012990228+1008948186+1004122035+1002457715+1005519620+1011812613
401+1019084423+1025525689+1028687719+1026521788+1020773807+1015097456
392+1011694020+1011342002+1013563865+1016102723+1016128248+1013123331
384+1009485480+1006925648+1004947500+1003164060+1001559960+998594749+990613296
374+976726420
##END=
