##TITLE=X7344
##JCAMP-DX=4.24
##DATA TYPE=INFRARED SPECTRUM
##DATE=26/10/2018
##SAMPLING PROCEDURE=Diamant-ATR
##ORIGIN=ComPlat
##XUNITS=1/CM
##YUNITS=TRANSMITTANCE
##RESOLUTION=4
##FIRSTX=3997.453
##LASTX=373.96442
##DELTAX=-1.4165319
##MAXY=0.927975
##MINY=0.67236221
##XFACTOR=1
##YFACTOR=8.6424407e-010
##NPOINTS=2559
##FIRSTY=0.90207553
##XYDATA=(X++(Y..Y))
3997+1043774050+1043425144+1042638364+1042151869+1042182421+1042610571
3989+1043536182+1044887322+1045990386+1046145562+1045337610+1044203510
3980+1043475008+1043256105+1042866508+1041797859+1040473341+1039461244
3972+1038668119+1038072724+1038325421+1039759114+1041362399+1041487299
3963+1039701044+1037592366+1037071456+1038177692+1039709044+1041087426
3955+1042039176+1041472678+1038311765+1033209214+1028800405+1027558303
3946+1028725783+1029023032+1027291606+1026486964+1029526770+1035124714
3938+1039794357+1040997493+1037659196+1030458243+1022869832+1019834854
3929+1022725552+1027499750+1029378973+1027695686+1025834670+1026007365
3921+1026260544+1024221868+1021219718+1021422689+1026705935+1034183240
3912+1039780701+1041778410+1040274508+1034847051+1024574154+1010875371
3904+998975671+993731047+994992115+1000861929+1010522534+1021221029+1028004867
3894+1027449059+1020979850+1015698466+1016786564+1020019065+1018892276
3886+1013314057+1008588826+1006369318+1004990316+1007186996+1015232936
3877+1023234945+1024293870+1018162050+1009445815+1001583810+997230727+999082019
3867+1003806146+1005041489+1002771083+1003724488+1010908820+1019189112
3859+1023061078+1020361419+1009518989+990310472+975309516+981640100+1000935379
3849+1018327572+1027967073+1029139311+1023491297+1013888348+1002940743
3840+992592809+986207258+987805301+995814275+1004101671+1009846791+1014279256
3830+1018244880+1020411421+1020101757+1018990900+1017502584+1012079955
3822+1001036002+992493427+994106781+1000581231+1006583324+1014280704+1024676363
3812+1033244387+1035564863+1030439553+1020966815+1013703033+1010519637
3803+1005980756+998127303+994329408+998967395+1006695189+1014367120+1023410605
3793+1033160937+1040322992+1043427558+1043439145+1041205015+1037124009
3785+1033274043+1032144564+1032560920+1031211367+1028546605+1029055447
3776+1033929371+1039079441+1040264438+1036086671+1028746956+1023255773
3768+1022308437+1023587851+1024924439+1026219439+1025833636+1021043852
3759+1013122673+1008031294+1008165712+1008703726+1003587381+990286126+974428113
3750+968206980+972479371+977790410+980174061+983971818+992687846+1001458358
3740+1004210364+997773432+983254075+969812471+969975441+984366588+1002057478
3730+1013894900+1016762150+1012044782+1004949763+1001630984+1003987461
3721+1009889620+1017025674+1023663301+1027662582+1026642899+1018911036
3713+1005703162+995147982+997302453+1010100591+1023857376+1032505816+1034267587
3703+1030570591+1026589725+1027251950+1031513651+1035260855+1035982806
3694+1032674993+1024533670+1011869949+999429476+996585675+1006146071+1020106930
3684+1031119571+1036310332+1035127403+1028562675+1017800592+1003019504
3676+988453043+984703769+990940282+995154189+994587208+998771941+1012254649
3666+1027294434+1037231874+1041312191+1041751237+1040309060+1036621030
3657+1030181408+1023645301+1019801818+1015025621+1002299622+980226200+962547517
3648+967446684+988881192+1010330184+1024641535+1032105667+1035683901+1037686645
3638+1038247694+1036554959+1032732166+1027544854+1020027962+1007927153
3629+995084049+994280096+1006997473+1020836605+1027836793+1026059918+1016861049
3619+1006225108+1001776988+1003076747+1004261124+1003884700+1004522579
3611+1006422906+1007766735+1010114247+1016593939+1025096650+1030049611
3602+1029032067+1024794711+1021669937+1020721291+1020417973+1020619219
3594+1022690724+1025533697+1024572360+1016283103+1004351609+1000063700
3585+1008003983+1019991961+1028442947+1032260774+1033677778+1034804429
3577+1036313160+1037808372+1038538875+1037339601+1032016354+1020074929
3568+1002823499+990248677+992957785+1006956782+1021032334+1029846503+1034410143
3558+1037091663+1038032033+1036082188+1031883247+1028613435+1028495845
3550+1029172209+1026513654+1020677980+1017078848+1020061204+1027748032
3541+1035239337+1039308482+1039686147+1038584255+1038733776+1040587895
3533+1042039797+1040968250+1037187804+1032303120+1028196665+1025840188
3524+1025751496+1028474466+1033502325+1038797364+1042482015+1044280271
3516+1044887115+1044530967+1042656848+1039157236+1035769628+1035006090
3507+1036651996+1037292358+1034836085+1031844694+1032401813+1036483302
3499+1040507824+1042233457+1042507533+1042980718+1043746877+1043788740
3490+1042820093+1041775927+1041544818+1041722271+1041074460+1039307585
3482+1037961204+1038964265+1042227457+1045536098+1046861720+1046118803
3473+1044784905+1044218545+1044591658+1045262711+1045716861+1045829485
3465+1045493062+1044640625+1043670047+1043227346+1043542872+1044398826
3456+1045494165+1046509434+1047134417+1047089174+1045958730+1043583907
3448+1041037563+1040222299+1041660338+1043864673+1045448440+1046371430
3439+1046928411+1046975102+1046576677+1046298256+1046373844+1046341499
3431+1045832175+1045156294+1044852907+1045012152+1045136639+1044560968
3422+1043224311+1042070832+1042216698+1043632943+1045146570+1045639273
3414+1044852907+1043321693+1041887172+1041163083+1041262258+1041917035
3405+1042764161+1043546665+1044111025+1044198200+1043499629+1042213663
3397+1041144600+1040830316+1041026252+1041396124+1042036555+1042956856
3388+1043734808+1044139439+1044645108+1045860727+1047550497+1048683010
3380+1048616525+1047879885+1047565945+1048173548+1049196127+1049643657
3371+1048913982+1047296007+1045680998+1044798147+1044739593+1045124638
3363+1045620169+1046200667+1046818270+1047078139+1046633644+1045790104
3354+1045312505+1045672653+1046690129+1047731260+1048178307+1048019889
3346+1047897678+1048176100+1048242033+1047306214+1045630997+1044310754
3337+1044009229+1044453931+1045040360+1045448233+1045665205+1045711620
3329+1045510856+1045101672+1044921943+1045556305+1047018413+1048524661
3320+1049207162+1048937017+1048285965+1047804021+1047527462+1047131175
3312+1046387155+1045522718+1045198916+1045880797+1047128761+1047930990
3303+1047822021+1047247523+1046883582+1047048966+1047582980+1047923955
3295+1047637120+1047057725+1046957929+1047542497+1048260378+1048532730
3286+1048234929+1047624085+1047156348+1047245661+1047930576+1048760529
3278+1049081779+1048546248+1047480150+1046727233+1046927239+1047894161
3269+1048888257+1049458065+1049695520+1049694968+1049305992+1048553213
3261+1047809538+1047397527+1047322697+1047410148+1047502978+1047560635
3252+1047615395+1047603464+1047395182+1047027586+1046696129+1046533849
3244+1046585712+1046856340+1047250075+1047654293+1048122443+1048722459
3235+1049219507+1049177023+1048441900+1047413872+1046785580+1046985585
3227+1047869195+1048917844+1049630553+1049774281+1049501308+1049188265
3218+1048976190+1048674458+1048299482+1048274516+1048780461+1049395098
3210+1049711245+1049821385+1049923664+1049918078+1049639794+1049140540
3201+1048599353+1048164996+1047990715+1048277620+1049044399+1049810351
3193+1049925802+1049501653+1049471169+1050303467+1051254114+1051383497
3184+1050688236+1049779384+1049071986+1048703286+1048708114+1048922120
3176+1049025295+1048906257+1048834600+1049099711+1049546482+1049699382
3167+1049371580+1048882808+1048616801+1048626871+1048702045+1048614250
3159+1048359967+1048236653+1048516523+1049030743+1049302199+1049071641
3150+1048511833+1047991888+1047777330+1047926783+1048342311+1048810531
3142+1049048744+1048944672+1048747977+1048735356+1048778461+1048631215
3133+1048488384+1048748253+1049347442+1049829041+1049913733+1049608621
3125+1049005363+1048357415+1048079063+1048297896+1048667975+1048906395
3116+1049147988+1049531378+1049853524+1049879249+1049588069+1049034123
3108+1048412037+1048148030+1048389485+1048522730+1047760158+1046170873
3099+1044736214+1044384756+1045222089+1046646059+1048011061+1048998467
3091+1049340614+1048655423+1046968481+1045061050+1043828741+1043498663
3082+1043799016+1044536209+1045640031+1046895307+1047880230+1048044924
3074+1046950963+1044743869+1042167110+1039786632+1037538986+1035300305
3065+1033415219+1032320155+1032003802+1032090839+1032310914+1032833273
3057+1034123859+1036297711+1038715707+1040489065+1041213360+1041047287
3048+1040467340+1040111400+1040367131+1040906732+1041103013+1040971216
3040+1041146048+1041873930+1042650916+1042874509+1042294148+1040920318
3031+1039056130+1037270151+1035932666+1035069333+1034808705+1035410928
3023+1036747171+1038323627+1039827668+1041165773+1042107936+1042357598
3014+1041922966+1041180877+1040555826+1040109262+1039442623+1038225487
3006+1036811725+1036011496+1036265986+1037370016+1038903574+1040528652
2997+1041951932+1043010581+1043840949+1044742766+1045847830+1046965722
2989+1047696432+1047718225+1047084829+1046226116+1045591065+1045314712
2980+1045230227+1045153329+1045110362+1045220779+1045398784+1045370852
2972+1045011394+1044391170+1043520733+1042378288+1041152531+1040138573
2963+1039492418+1039272688+1039442209+1039638835+1039230755+1037697473
2955+1034727462+1029987334+1023091424+1013870831+1002651011+990357508+978358288
2945+968110219+960820850+957191235+957167993+959861100+963883277+968003526
2935+971574933+974460183+976833833+979155482+981959006+985248818+988195725
2925+989701214+989254306+987183146+984319897+981613686+979877087+979549699
2915+980472345+981917487+983067794+983569670+983579601+983412769+983425942
2905+984142375+986034839+988999747+992309905+995293848+997875296+1000278603
2895+1002491973+1004331677+1005780820+1006921885+1007746183+1008323647
2887+1008932008+1009749685+1010623502+1011337314+1011905881+1012404102
2878+1012694109+1012528726+1011833948+1010743436+1009418297+1007962534
2870+1006498011+1005243978+1004429404+1004053946+1003844768+1003585105
2861+1003274683+1002711772+1001240904+998449381+995041565+992574326+992202523
2851+993805945+996287943+998594350+1000388537+1001843541+1003087368+1004102637
2842+1005000937+1006052137+1007416657+1009009941+1010596467+1011906709
2833+1012810388+1013518683+1014458640+1015817159+1017377960+1018914553
2825+1020500527+1022252091+1023958689+1025191205+1025741909+1025816049
2816+1025821084+1026057159+1026584828+1027249743+1027836448+1028277909
2808+1028712196+1029329661+1030232789+1031339163+1032296224+1032699131
2799+1032544782+1032254567+1032198014+1032461607+1033003760+1033687572
2791+1034244897+1034502628+1034576285+1034685874+1034891121+1035120093
2782+1035367824+1035723971+1036167156+1036504751+1036661100+1036827242
2774+1037171183+1037651885+1038184244+1038653085+1038787778+1038457355
2765+1038000308+1037842304+1037952376+1038053413+1038081414+1038075138
2757+1037929824+1037630092+1037473053+1037737957+1038308248+1038843228
2748+1039178616+1039391311+1039602007+1039846220+1040055743+1040103055
2740+1039957809+1039787253+1039766770+1039793460+1039545178+1038841228
2731+1037839408+1036882761+1036275434+1036187225+1036604754+1037288289
2723+1037922582+1038431630+1039022612+1039799322+1040519962+1040918732
2714+1041096530+1041341985+1041672200+1041793100+1041521438+1041062115
2706+1040770866+1040738313+1040785556+1040819764+1040928180+1041084667
2697+1041076943+1040860248+1040727761+1040972182+1041533921+1042119661
2689+1042518292+1042640571+1042413876+1041899862+1041404193+1041167773
2680+1041067012+1040865144+1040576654+1040348303+1040216299+1040192023
2672+1040362993+1040725485+1041075564+1041207636+1041134393+1040997010
2663+1040803763+1040476996+1040187057+1040300370+1040824591+1041242879
2655+1041154531+1040812660+1040784108+1041260051+1041936828+1042490429
2646+1042892371+1043189690+1043295279+1043176448+1042966925+1042753333
2638+1042584225+1042723125+1043457283+1044605728+1045585616+1045992455
2629+1045914729+1045729689+1045698792+1045747345+1045663549+1045479613
2621+1045466785+1045754035+1046154390+1046400121+1046402604+1046240048
2612+1046009145+1045777277+1045634514+1045615203+1045561064+1045309540
2604+1045085465+1045375197+1046234047+1047036276+1047146624+1046597988
2595+1045884314+1045356369+1045096362+1045200020+1045816381+1046799028
2587+1047566014+1047592015+1047006413+1046453088+1046427363+1046966205
2578+1047782641+1048444038+1048660113+1048579421+1048533351+1048509074
2570+1048284034+1047975681+1047952852+1048276999+1048705631+1049161506
2561+1049732418+1050212844+1050134221+1049388546+1048446245+1047847608
2553+1047844022+1048489005+1049516688+1050156084+1049761453+1048735839
2544+1048204445+1048641354+1049308199+1049196679+1048124374+1046713233
2536+1045652515+1045262435+1045492924+1046065146+1046707095+1047315939
2527+1047857333+1048255412+1048470315+1048527282+1048499488+1048596456
2519+1049059158+1049762901+1050164291+1049791867+1048672665+1047312352
2510+1046387086+1046287497+1046822684+1047420907+1047682500+1047763192
2502+1048144237+1048912464+1049507653+1049532274+1049417719+1049678485
2493+1049949803+1049530895+1048546317+1047791193+1047616843+1047630982
2485+1047473805+1047336353+1047507668+1047793055+1047821883+1047813331
2476+1048485901+1049989528+1051328185+1051221423+1049447996+1047105312
2468+1045633549+1045728586+1047037379+1048623422+1049604483+1049476962
2459+1048264309+1046709578+1045978799+1046647093+1048173686+1049698279
2451+1050905346+1051716126+1051845440+1051319357+1050804584+1050697892
2442+1050400642+1049251853+1047787607+1047215522+1047816711+1048654320
2434+1048856325+1048505350+1048169479+1048128788+1048290241+1048553144
2425+1048918534+1049198196+1048991018+1048274171+1047618499+1047376216
2417+1047170693+1046702474+1046434191+1046894203+1047856643+1048707562
2408+1049220473+1049608759+1050057737+1050455816+1050515335+1050036426
2400+1049116056+1048209963+1047892644+1048345346+1049145505+1049703244
2391+1049803247+1049663036+1049621242+1049768350+1049813937+1049456065
2383+1048853221+1048491212+1048701010+1049580896+1051202043+1053636523
2374+1056830885+1060417326+1063649551+1065987545+1067790421+1069778475
2366+1071885773+1073321743+1073541059+1072655380+1071183064+1069651161
2357+1068304642+1066971365+1064945172+1061601289+1057856774+1055918998
2349+1057191446+1061255142+1066339899+1070521736+1072966906+1073741823
2340+1073041735+1071452244+1069852753+1068521889+1067112334+1065504567
2332+1064019837+1062844840+1061768673+1060463603+1058704108+1056446461
2323+1054043637+1052252692+1051575984+1051593640+1051362875+1050403884
2315+1048970880+1047545255+1046502400+1046107630+1046375224+1047014000
2306+1047734019+1048346518+1048612594+1048572731+1048885912+1050055254
2298+1051396669+1051578674+1050264156+1048605353+1047961818+1048486729
2289+1049198196+1049340476+1049239922+1049608276+1050530094+1051577502
2281+1052489664+1053294582+1054054603+1054865314+1055880169+1057014752
2272+1057723391+1057322691+1055687750+1053528106+1051735023+1050596372
2264+1050007184+1050130359+1051129283+1052444698+1053169476+1053169683
2255+1053114509+1053330101+1053293893+1052470629+1051243079+1050558302
2247+1050650511+1050728996+1050316502+1050097255+1050768101+1051886545
2238+1052628771+1053023679+1053856529+1055679543+1057826843+1058436031
2230+1056537773+1053961842+1053307410+1054377991+1054870487+1054106880
2221+1053425689+1053360033+1053292238+1053526589+1054997111+1057094133
2213+1058032848+1057328829+1056141142+1055319258+1054845107+1055039319
2204+1056467633+1058475963+1059516681+1059350056+1059374057+1060311461
2196+1060982790+1060003729+1057701598+1055608231+1054544961+1053965428
2187+1053339687+1053466932+1055386777+1058184162+1059441369+1058392582
2179+1057107996+1057795393+1060275253+1062701043+1063550997+1062396138
2170+1060139388+1058971494+1060419878+1062943256+1063363061+1061104517
2162+1058573552+1057241447+1056438115+1056165281+1057418142+1059411230
2153+1059766205+1057384210+1053665972+1051255286+1052081653+1055660301
2145+1058990253+1059318607+1057132134+1055272084+1055581954+1057599871
2136+1059744618+1060669195+1059961866+1058221888+1056352665+1054861797
2128+1053963911+1053865701+1054594204+1055737890+1056579292+1056570809
2119+1055692509+1054311644+1052872364+1051976133+1052382903+1054339645
2111+1057066132+1059265571+1060017660+1059275778+1057956018+1057360761
2102+1057994364+1059116326+1059742342+1059647443+1059048117+1057970502
2094+1056580395+1055669543+1056072244+1057642355+1059355711+1060450361
2085+1060897339+1060812716+1060283736+1059765033+1059693996+1059827862
2077+1059896760+1060422361+1061692602+1062629179+1062025300+1060169802
2068+1058162093+1056509842+1055389535+1055370845+1056841850+1059189776
2060+1061267832+1062531314+1063336853+1064192048+1065112694+1065857818
2051+1066332175+1066497559+1066357072+1066190861+1066244931+1066387970
2043+1066729151+1067791387+1069199632+1069553503+1068704929+1068234226
2034+1068438094+1067368893+1064490953+1062242341+1062491244+1064363639
2026+1066379625+1068175052+1069411499+1069020041+1066372245+1062616075
2017+1060176009+1060145526+1060987479+1061210727+1061755914+1063895006
2009+1066489628+1067647107+1067465240+1066604458+1064383847+1060649056
2000+1057513248+1057252068+1059339366+1060757542+1059244467+1055885273
1992+1054162192+1055879825+1059049634+1060739473+1060359462+1059378746
1983+1059128671+1059678548+1060180699+1059786964+1058601553+1057861740
1975+1058863146+1061582944+1064210394+1064358881+1061586668+1058506723
1966+1058316925+1061163208+1064300810+1065582500+1065285871+1064481711
1958+1062915600+1059794137+1056085761+1054300610+1055544229+1058003882
1949+1059011081+1057641458+1054601376+1051018452+1048764047+1050124359
1941+1055000835+1060534502+1064407916+1066126583+1065953889+1064572748
1932+1063075467+1062178201+1061926194+1061868607+1060708230+1057158687
1924+1052338005+1049375787+1049316130+1050371262+1051752610+1054736001
1915+1059109912+1061969023+1061126242+1057908983+1055927412+1057075167
1907+1059950210+1062325102+1063379682+1063442511+1062981809+1062160063
1898+1060977134+1059831931+1059515509+1059794965+1058840732+1055752856
1890+1052827880+1053006782+1055602369+1057934776+1059252053+1060262287
1881+1061053619+1061476182+1061957643+1062674973+1063096640+1062329860
1873+1058951149+1051735023+1042585811+1037885064+1042099384+1051594399
1864+1059958003+1064107150+1064678131+1064126667+1064512402+1066216103
1856+1068226502+1069480743+1069633574+1068327125+1064728546+1058572035
1847+1050766997+1043225897+1039655939+1043266726+1051354254+1058334718
1839+1061910263+1063447408+1064773719+1065164351+1062034611+1054613515
1830+1046811166+1043955090+1045508856+1047695811+1050362297+1055211944
1822+1060901270+1064443710+1065160075+1064969035+1065304009+1065042554
1813+1062600557+1059056255+1057615458+1059670685+1063299542+1065558154
1805+1064209014+1058822800+1052060411+1048267619+1048890257+1051163904
1796+1051608330+1048307690+1042355322+1039845048+1046176667+1057225930
1788+1065379253+1067808422+1066457075+1063901006+1060966513+1058716935
1779+1058566656+1059159292+1056867713+1049413374+1038445700+1030664180
1771+1031918558+1039792564+1049080676+1056677570+1060065110+1057928638
1762+1053022713+1050411677+1050769894+1051786266+1053558245+1055692716
1754+1053986049+1044628625+1030300860+1020763844+1021605108+1027800103
1745+1033081417+1035894941+1037154424+1037832304+1039044957+1040257128
1737+1037485398+1027042082+1013429026+1007987293+1010286458+1011321866
1728+1005215011+989031334+962276475+928819850+895602127+865244413+833903500
1718+800505497+777977234+779726799+796917814+815062854+827900717+834293510
1708+835010081+832824574+832420563+835623201+838873772+838651697+837050412
1698+840208083+851006443+869124518+889423616+903917524+909607194+908801242
1689+905464324+900193699+890462748+880775866+884082783+898706970+913935242
1679+924930159+930366236+931100118+930311269+929334484+926806554+925487484
1669+932518846+946402530+957616419+961625630+961666597+964569296+971433205
1659+976743900+975796840+966312998+948794319+936359018+943136925+953001536
1649+953756798+950438156+956257899+972454681+987350116+995081773+995274882
1639+988270762+975730769+966232651+971927425+987492810+999340508+1003099230
1629+1001055451+997751569+995364746+993213929+992918956+997322799+1003349651
1619+1004964177+1001495394+1000575231+1007615559+1016328207+1019930787
1611+1017425202+1011536837+1005033834+997481906+986590717+972806690+960781745
1601+954685029+952973259+950252496+943456451+934660283+928300112+926850349
1591+929963881+935981008+942534633+947134964+948944599+949633997+951312111
1581+953445203+952975880+948361687+944607517+949937729+960732296+966977154
1571+966135614+964141629+967850832+975055440+980181234+981057671+975900015
1561+960172763+933736534+920762047+935516306+955378910+969250870+976892800
1551+980578830+983666500+986322296+983747536+972031635+953323131+933755017
1541+921114884+928052243+951565014+970676633+977241499+975920981+976931146
1531+983687949+988608081+986035115+978080005+970129790+962980012+955143318
1521+950651472+953101538+958151123+963762722+972819173+983452218+988471112
1511+982875996+966265066+943589903+933829916+956878951+989951359+1009715684
1502+1015069898+1009047115+993627389+972837381+955467257+946677572+942303317
1492+937128763+932908995+938271415+955716092+976474858+992286801+1000895998
1482+1004235054+1004564166+1000935586+990163571+970738358+945384089+923431015
1472+918030042+929371451+944473582+954225569+957456621+957918013+958249194
1462+955647193+945645062+926051913+903003637+894174434+903044949+917076223
1452+929479040+938436040+944511928+951198936+961326795+972763034+981358989
1442+985050054+983510978+976524032+965366007+956292797+954726893+955621537
1432+951505840+941529503+931494405+926801727+927120425+930572656+936466332
1422+942310972+944190402+943365138+948480724+962655244+978427945+989483760
1412+995265088+998584074+1001432358+1002857155+1001820644+1000562196+1001883060
1402+1003712902+1001534429+994725694+987449843+983936369+985696210+991975413
1392+998540970+999569825+992508876+980842424+973124423+974664602+981881141
1383+988854364+993279104+995621443+995999660+993583112+989451483+988148690
1373+992768400+1000351639+1006633325+1010723022+1012691351+1010843094
1364+1004816932+999432373+1000398054+1006189451+1011101860+1012979910
1356+1013838209+1015967232+1019059936+1021152130+1021206132+1019738920
1347+1017571689+1014741130+1010082591+1001792505+989963911+979275347+976532170
1337+983206212+994225198+1004340574+1011502422+1015920886+1018564061+1020200243
1327+1021050679+1020969919+1019500982+1015878195+1009957484+1003576347
1319+999988664+1000832273+1004524096+1008772073+1013178536+1018204741
1310+1022976800+1025644044+1025354106+1023007560+1020421697+1019136697
1302+1019651676+1021440414+1023725372+1026131989+1028519432+1030532245
1293+1031539927+1030828460+1027848173+1022418785+1014434915+1003394066
1285+989243547+974311627+963332573+960266973+965130069+974352456+983645810
1275+990157226+993056132+993368072+993076684+993567180+994789489+995919726
1265+996310427+995646478+993851602+991361949+989105129+987751437+987218802
1255+987094109+987131835+987159697+986947761+986637545+987109213+989405482
1245+993694632+999070639+1004331057+1008694002+1011943400+1014320636+1016281861
1235+1018129773+1019861061+1021355515+1022564306+1023495642+1024137521
1227+1024477599+1024604775+1024634155+1024371390+1023219427+1020776189
1218+1017579413+1015017413+1014336085+1015719156+1018285226+1020842053
1210+1022613756+1023474745+1023784960+1023977862+1024053726+1023434054
1201+1021523796+1018403505+1014381672+1008292887+997102310+979223897+958693689
1191+944025777+941349153+949262332+960962992+970460903+976119676+979368453
1181+981805208+983981681+985881111+987446257+988554563+988922848+988293728
1171+986864517+985520067+985266198+986287260+987931718+989710180+991732027
1162+993639458+993352761+988105861+977992899+967940145+964335358+969353907
1152+979630322+990197848+998294342+1003600968+1006734914+1008474754+1009662924
1142+1010903096+1012265063+1013592892+1014973067+1016547248+1018091082
1133+1019246424+1019977961+1020471767+1020854467+1021234408+1021712145
1125+1022201055+1022479683+1022497960+1022452372+1022465614+1022290230
1116+1021449518+1019517948+1015938128+1009684511+999898799+987490465+975828496
1106+969021829+969015829+974441562+982223633+989816666+995976004+1000318811
1096+1002777428+1003213509+1000994622+994584518+981921280+962576897+940402645
1086+922931277+916502828+921662209+933531908+946039141+955348634+960276490
1077+960820712+956814742+948211338+936877653+927337879+924222209+928431219
1067+936211635+941799924+940697480+931667582+917283332+902543487+891968167
1057+887548324+888906085+894444717+902209961+910491632+918239634+925075404
1047+931028668+936251636+940855140+944967457+948773836+952318069+955456498
1037+958100225+960000897+960062485+956678807+949750000+942199865+938400522
1027+940520717+946835715+953818041+959184530+962635175+964734955+966108854
1017+967359371+968982104+971170439+973765957+976421063+978802231+980349652
1007+979874053+976430512+971291408+968010492+969317631+974426803+980158957
997+984072649+985908836+986862103+988292969+990792554+993968019+997086861
987+999753968+1001832231+1003079437+1003124610+1001635467+998596764+994665555
977+991043526+988694015+987658469+987076247+986014701+984727287+984903706
967+987962891+993268621+998677111+1002476110+1004102706+1003441998+1000465780
958+995874898+991589817+989827493+991369604+995106463+999366233+1003164266
948+1006186072+1008389235+1009888517+1010747988+1010603846+1008651449
939+1004468302+999236092+995696686+996077041+1000154806+1005770750+1010743229
929+1013999179+1015597981+1016141995+1015886747+1014415259+1011422558
921+1007649836+1004658583+1003424205+1002869638+999586722+989484863+971300580
911+949976420+935593619+936138323+950472088+969795436+985811799+995950762
901+1001668502+1004594512+1005116388+1003255648+999908317+997042929+996488431
891+998556832+1002072237+1005579987+1008206609+1009489540+1009009389+1006716155
881+1003577105+1001461738+1001931268+1004923831+1008792004+1011866363
873+1013715447+1014543883+1013860968+1010526534+1004146293+996188148+989708732
863+987591778+990366542+995541165+999210574+998653179+994158714+988748085
853+985635174+985747866+987987651+991335672+995680961+1000850204+1005975101
843+1010101005+1012886735+1014488985+1015014310+1014221737+1011617942
834+1006821055+999976594+991625404+981960109+970843741+959244669+949982420
824+945891068+947342832+952239998+958065120+963303262+967444615+970644977
815+973416362+976089054+978510430+980419033+981787277+982596333+982740130
805+982381500+981915004+981439198+980805181+980257994+980504966+982027421
795+984632457+987772128+991157391+994917906+999187470+1003692488+1007780667
785+1010816128+1012693213+1014028973+1015571152+1017294716+1018355090
776+1017968872+1015896885+1011779533+1004225812+990965110+970420695+944103227
766+918269842+902274031+902657214+917209399+935185677+943920257+935906248
756+912225610+882310390+859790611+854905997+868549950+893348067+920209480
747+943130718+958210021+961428935+951777158+936524402+928402114+934652352
737+951109830+968462642+981511269+990772484+998221857+1004517337+1009492023
727+1013271159+1016374691+1019182077+1021697455+1023834823+1025534593
718+1026244474+1024331664+1017088297+1001412426+975177237+939082609+898156058
708+861318859+837606496+830798244+837365593+850310080+864960474+880636138
698+897895224+915924537+932556019+945706029+954401367+958616584+958703345
688+955734782+952274620+951599084+955429049+962679452+970605665+977140048
679+982117493+986466024+990641377+994124368+996431051+998157649+1000536265
669+1003750765+1005796613+1005750129+1005296531+1005583021+1006543116
660+1007897773+1009872033+1012636522+1015416666+1017034709+1017398236
652+1017731900+1018955588+1020427973+1020962539+1020593977+1020346247
643+1020618806+1020904124+1020930055+1020952332+1020946608+1020577218
635+1019717885+1017861283+1013579513+1005916754+995600683+983765813+970512076
625+955779128+940821070+928276387+921322338+922400711+931612339+946083005
615+961469902+973942721+980311996+977405021+963435265+941442811+920646181
605+911453244+917408370+933257004+951183349+966836322+979082652+987047350
595+989950945+989001264+987198319+986291329+985135229+982411363+979512595
585+978978856+981401266+985729521+991100424+996490707+1000419710+1002570319
575+1004212571+1006248419+1008164746+1009149807+1009312708+1009740995
567+1011313865+1013445923+1014745268+1014911617+1014988654+1015728605
558+1016666285+1016900430+1016227446+1015245626+1014245875+1012154922
550+1007174857+998978705+990088811+984316173+983308559+985113918+986633063
540+986218775+983006413+975965810+966007334+957518278+955207733+959712889
530+967342198+973985549+978775747+983562083+988925607+992534187+992106313
520+988297935+984773288+985498687+991045526+998305722+1003997323+1007033681
510+1007885428+1007349345+1006141726+1004348367+1001442703+998031163+996164492
500+995736480+992304319+980692420+960311457+937482014+922618235+923160456
490+937433461+956725498+973271530+984341277+991217462+996394360+1000695648
480+1002878604+1001901681+998120337+991733476+981948385+969940613+961263689
470+961148859+968942310+979974538+989789492+996565123+1000787927+1002461075
460+999763623+992343906+985245991+984374105+988633737+993683459+997916470
450+1000828755+1000809169+997629773+993969398+992572878+994526792+1000122598
441+1007203893+1010475360+1006909816+1000428538+997677567+999651758+1002210241
431+1002739290+1001168075+996640918+988043169+976969837+965885745+953585552
421+938685426+930155403+941328049+963518923+979369419+985581310+987102730
411+987412118+986030632+982893927+980460138+979776257+977631027+969245077
401+952831600+933135345+922307881+928172591+942003791+952802703+958559961
391+962050952+964551709+962589863+952642561+941402189+943636180+960982578
381+978905751+985925595+978308080+955396083+926661723+913805376
##END=
