##TITLE=CZ-185
##JCAMP-DX=4.24
##DATA TYPE=INFRARED SPECTRUM
##DATE=8/10/2020
##SAMPLING PROCEDURE=Diamant-ATR
##ORIGIN=Lara
##XUNITS=1/CM
##YUNITS=TRANSMITTANCE
##RESOLUTION=4
##FIRSTX=3997.453
##LASTX=373.96442
##DELTAX=-1.4165319
##MAXY=1.0371932
##MINY=0.389332
##XFACTOR=1
##YFACTOR=9.6596142e-010
##NPOINTS=2559
##FIRSTY=1.0014055
##XYDATA=(X++(Y..Y))
3997+1036693033+1035761535+1035079818+1034832072+1034984299+1035267031
3989+1035286653+1034828802+1034065450+1033278032+1032544977+1032004626
3980+1032040847+1032741137+1033532627+1033815976+1033653815+1033528122
3972+1033729774+1034226808+1034835590+1035286036+1035324910+1034966404
3963+1034556683+1034431360+1034581303+1034784930+1034948078+1035106228
3955+1035243213+1035238030+1034938884+1034341641+1033743164+1033449449
3946+1033325360+1033057066+1032687824+1032474880+1032425824+1032364428
3938+1032241882+1032129147+1032152163+1032507830+1033247365+1033994180
3929+1034199226+1033717001+1032904779+1032289395+1032055162+1031846846
3921+1031402756+1031077570+1031352404+1032001664+1032296491+1032021410
3912+1031551897+1031156491+1030752570+1030248193+1029855873+1029965338
3904+1030717645+1031750093+1032647716+1033350474+1033780989+1033661405
3895+1032923413+1031955447+1031432189+1031722881+1032334933+1032694858
3887+1032988327+1033566750+1034155601+1034384958+1034509479+1034593583
3878+1034010285+1032614457+1031175188+1030383512+1030089735+1029909248
3870+1030102261+1030781078+1031296314+1031346234+1031375667+1031694558
3861+1031876403+1031397511+1030239123+1028802630+1027820657+1028325651
3853+1030449290+1032083362+1032266379+1031851536+1031282986+1030541724
3844+1029749864+1029218460+1029032358+1029054819+1029258692+1029502859
3836+1029484039+1029387964+1029641818+1030062646+1030087205+1029823786
3827+1029949109+1030517104+1030815571+1030691791+1031000192+1032052324
3819+1032658946+1032269341+1031534681+1030797306+1029795711+1028575062
3810+1027590868+1027312578+1027957457+1029031247+1029634722+1029705251
3802+1029820516+1029983664+1029753011+1029451273+1029633427+1030162979
3793+1030634713+1031008646+1031286997+1031323403+1031168462+1031052518
3785+1031000377+1030858579+1030637984+1030595099+1030985753+1031627732
3776+1031899481+1031466188+1030646808+1030119600+1030396100+1031296376
3768+1032066640+1032291801+1032118472+1031726707+1031294957+1031273545
3759+1032019744+1032986106+1033152956+1032356468+1031204683+1030449475
3751+1030568442+1030851236+1030050676+1028481888+1027838737+1029289113
3742+1031142114+1031364498+1030240789+1028974911+1028741789+1030035867
3734+1031742133+1032238611+1031482725+1030390177+1029524949+1029125348
3725+1029440413+1030389745+1031274903+1031551835+1031474395+1031473469
3717+1031386836+1030784842+1029728514+1029013045+1029604610+1031271756
3708+1032697326+1033247858+1032993510+1032144943+1031204683+1030986926
3700+1031755276+1032794080+1033263717+1032832213+1031716772+1030356794
3691+1028929866+1027576552+1027216318+1028516813+1030395483+1031651242
3683+1032234045+1032548000+1032532512+1031882635+1030931453+1030670070
3674+1031394240+1032210536+1032801916+1033495357+1034123946+1034139927
3666+1033561813+1032765881+1032080400+1031750895+1031848883+1032208499
3657+1032588787+1032789884+1032616678+1031958101+1031013212+1030597197
3649+1031831235+1034086861+1035332685+1035203413+1034542799+1034027871
3640+1033814989+1033691085+1033417362+1033035223+1032872075+1033151352
3632+1033669920+1034109013+1034463755+1034871193+1035195453+1035238030
3623+1035018298+1034568345+1034179789+1033982888+1033633946+1033099149
3615+1033051081+1033790739+1034609256+1034750066+1034421672+1034190279
3606+1034046321+1033653939+1033054537+1032616801+1032490800+1032313213
3598+1031691597+1030719311+1029624726+1028350148+1026877250+1025546149
3589+1024767926+1024671358+1024948413+1025182275+1025281188+1025118966
3581+1024314950+1022800215+1021240868+1020353489+1020009607+1019497085
3572+1018403734+1016821372+1014864768+1012443587+1009579982+1006604197
3564+1003552021+999942957+995454598+990330121+984972524+979321272+973037605
3554+966152870+959140838+952374268+945796207+939330943+933460145+929093529
3544+926558194+925086592+923720752+922199230+920884111+920167840+919953662
3534+919639090+918632002+916782827+914188626+910776957+906438170+901420505
3524+896022984+890108930+883384752+875837059+867589384+858685476+849118302
3514+838839669+827787317+815973464+803514053+790708909+777985277+765526422
3504+753294332+741621845+731269104+722753692+716236534+711865475+709645329
3495+709320144+710701472+713737420+718219362+723705923+729672796+735761907
3485+742096480+749144363+756992621+764984714+772403320+779191302+785727341
3475+792254496+798730744+805039524+811144493+817021462+822605764+827919798
3465+833147877+838492517+844021531+849572389+854640652+858624080+861549514
3455+864328583+867825035+871883496+875743637+879104153+882259561+885419597
3445+888412598+891058817+893402558+895527678+897422330+899124400+900849610
3435+902797143+904836802+906571453+907808946+908844480+910107087+911597818
3425+912926388+913949827+915040587+916542918+918277137+919863079+921192451
3415+922367376+923547299+924942449+926615086+928369791+930113389+932046113
3405+934222263+936216877+937464182+937821824+937780297+938086168+939006992
3395+940128295+941079909+942063179+943409767+945064633+946695804+948001729
3386+948906633+949576811+950148631+950578344+950926978+951451347+952289794
3376+953400176+954694314+955879606+956528310+956658261+956861764+957655105
3366+958990401+960379874+961281940+961516912+961429353+961515740+961930397
3356+962495492+963103101+963908228+965017066+966146083+966887221+967299719
3346+967866480+968795140+969714236+970180479+970276553+970541947+971301041
3336+972263639+973008851+973591839+974236410+974761643+974838157+974571591
3326+974421031+974713945+975416394+976174193+976576510+976591319+976611990
3316+976908606+977294324+977513068+977620744+977766059+977926800+978125429
3306+978615552+979548469+980606587+981247393+981328905+981282627+981547218
3296+982014078+982236462+982026789+981646007+981516057+981875797+982599658
3286+983308340+983734968+983924464+984075950+984349735+984769884+985160724
3276+985339421+985440371+985762841+986287642+986700695+986843789+986828548
3267+986792327+986771965+986787391+986926042+987267517+987736352+988167917
3257+988535617+988932935+989362340+989701533+989789956+989485133+988853027
3247+988266398+988059069+988204508+988517722+988901527+989295267+989684687
3237+990169812+990802411+991511402+992231191+992840713+993079449+992848426
3227+992419823+992169177+992339977+992993803+993878837+994532664+994766587
3217+994772511+994706672+994562590+994399072+994377784+994637500+995188896
3207+995761025+995926209+995629593+995359572+995558015+996079855+996441939
3197+996500436+996625265+997125261+997801547+998298581+998535158+998503380
3187+998101557+997485741+997121743+997253360+997685295+998122598+998433468
3177+998647955+998838376+998950926+998879534+998733786+998696393+998634071
3167+998273837+997688134+997207884+997005121+997042267+997251015+997565834
3157+997919712+998269703+998587360+998872191+999150295+999375642+999448083
3148+999387859+999326833+999302583+999261734+999254083+999438643+999868418
3138+1000347495+1000536621+1000284310+999812637+999454933+999306285+999341951
3128+999653931+1000243337+1000763017+1000834471+1000536560+1000342744
3119+1000603386+1001205997+1001706733+1001754740+1001385744+1000929312
3111+1000701991+1000768385+1000890006+1000715936+1000094135+999135116+997980677
3101+996737938+995677044+995146505+995102201+995000264+994390310+993425121
3091+992620302+992332140+992539160+992877859+992843613+992176397+991077554
3081+989940763+988937501+987914433+986587713+984782102+982553503+980122141
3071+977746190+975727881+974469963+974321748+975238807+976627972+977735515
3061+978281789+978518798+978642393+978435928+977553485+975837222+973312131
3051+970151107+966688655+963327707+960456512+958414015+957292650+956724841
3041+956023810+954575717+952064571+948478400+944152139+939864259+936673186
3031+935320242+935614019+936564029+937220941+937204157+936486651+935011964
3021+932570174+928770750+923076860+915157147+905343523+894680468+884577880
3012+876407645+871101694+868893272+869492674+872451923+877234430+883082768
3002+889075927+894421184+898795759+902366628+905265898+907147284+907608775
2992+906862207+905519074+903876302+901811283+899215600+896206741+893002092
2982+889842797+887096492+885357954+885249847+886904837+889637134+892349685
2972+894386135+895871560+897139474+898022287+897876540+896094191+892305813
2962+886247061+877816802+867368665+855810085+844316173+833942267+825533172
2952+819839590+817338440+817759021+819973243+822502223+824083660+823870778
2942+821411587+816588786+809571324+800767687+790611600+779189265+766190429
2932+751527039+736087524+721739755+710548135+704032890+702871355+706752723
2922+714445361+724498771+736090054+748918831+762433768+775742054+788189309
2912+799467254+809306548+817605191+824696699+831010724+836590707+841248694
2902+845021337+848190814+850951743+853234581+854774429+855251779+854470964
2893+852592664+850313713+848851181+849547152+853106049+859011341+865832951
2883+872207818+877445708+881328309+883788920+884995746+885470874+885851779
2873+886560955+887678679+888939991+889795963+889634419+888002383+884600155
2863+879219911+871857210+862791574+852395022+840968368+829124094+818468629
2853+811520708+810437785+815690979+825972327+839107407+852915442+865746317
2843+876855685+886352454+894646284+902017933+908645419+914701641+920280698
2833+925358217+929905690+933971679+937595120+940712148+943253591+945309910
2823+947083250+948692516+950134068+951411670+952583942+953656066+954542458
2813+955254596+956060525+957257108+958776100+960224625+961334266+962133839
2803+962706029+963112110+963572614+964339175+965323247+966173171+966773067
2793+967342728+967997047+968542520+968836667+969057633+969427554+969853257
2783+970071816+970074840+970152033+970491534+970958147+971339669+971627152
2774+971916981+972184719+972316459+972327381+972435735+972897226+973769056
2764+974825939+975698139+976126372+976163765+976165370+976487346+977080825
2754+977486288+977406380+977165422+977345107+978057245+978870270+979382113
2744+979558342+979531069+979362367+979097961+978887917+978902912+979116843
2734+979283138+979209956+978963815+978715637+978522068+978376383+978335719
2724+978471964+978766297+979111043+979386494+979547297+979660772+979829782
2714+980055438+980212353+980191435+980061978+980028349+980181254+980364456
2704+980390372+980303985+980290410+980376797+980408205+980296025+980133371
2694+980050810+980078824+980152931+980214019+980314599+980587643+981042718
2684+981486932+981731962+981742452+981533642+981158846+980844830+980884383
2674+981324894+981925963+982418677+982694128+982800014+982837901+982857708
2664+982860300+982870728+982947859+983138096+983458221+983858255+984205716
2655+984411749+984544167+984712746+984905944+985021888+984998131+984857197
2645+984669243+984502578+984415883+984479377+984698677+984897614+984852322
2635+984610747+984499802+984734712+985204596+985711503+986232293+986810839
2625+987332184+987596343+987600910+987565182+987608191+987587890+987377969
2615+987141701+987173541+987524334+987877903+987867475+987550743+987410303
2605+987746718+988323537+988804836+989136438+989266451+988993406+988406283
2595+988035559+988282565+988992604+989730843+990244907+990550964+990701154
2585+990640498+990346967+989970690+989721463+989710171+989949463+990349990
2575+990674559+990646113+990181227+989501300+989016114+989040364+989574050
2565+990396393+991328385+992257354+992974983+993263639+993198108+993129677
2555+993279990+993528045+993674656+993748887+993953994+994391483+994911162
2546+995264238+995417020+995590534+995896344+996170438+996308718+996452491
2536+996642481+996617120+996175929+995558324+995274913+995573071+996141436
2526+996414172+996163095+995686917+995489029+995880609+996788845+997815863
2516+998551263+998899773+999080939+999332633+999652080+999864345+999926606
2506+999980659+1000009969+999755313+999167634+998607415+998348686+998189487
2496+997839558+997466181+997510423+998031707+998552867+998600442+998176035
2486+997705719+997706583+998395828+999454748+1000279250+1000484851+1000055939
2476+999233905+998485671+998307960+998827887+999751363+1000680085+1001301640
2466+1001436774+1001128804+1000618134+1000198046+1000105488+1000362366
2458+1000664659+1000654108+1000310904+999898838+999598890+999398596+999256304
2448+999188799+999239829+999458265+999817573+1000082658+999941168+999378542
2438+998738785+998350043+998368740+998923591+999930493+1000786403+1000800904
2428+999958692+998839117+997901263+997274710+997061149+997379115+998108221
2418+998845534+999182567+999007695+998564653+998205036+998096374+998187636
2408+998347205+998446179+998439886+998429272+998490360+998486103+998274022
2398+998016713+997990365+998137963+998080392+997597242+996948723+996649392
2388+996951808+997619579+998192572+998386387+998269765+998188191+998449141
2378+998971289+999366324+999436977+999358241+999385329+999746427+1000672311
2368+1002018652+1003104351+1003490501+1003618601+1004122977+1004837151
2360+1005051144+1004542263+1003765335+1003120148+1002587078+1002042408
2351+1001441216+1000757895+1000073340+999692744+1000060567+1001400861
2343+1003302239+1004875161+1005452411+1005053859+1004138959+1003078620
2334+1002141260+1001672549+1001753629+1001923441+1001687728+1001114859
2326+1000648554+1000629055+1001108873+1001851740+1002414983+1002399742
2317+1001749741+1000856377+1000310658+1000403092+1000810900+1000891302
2309+1000423886+999980289+1000318556+1001426099+1002530742+1003115088
2300+1003420774+1003812169+1004215411+1004420272+1004495922+1004662649
2292+1004937051+1005032756+1004668511+1004023139+1003653526+1003823646
2283+1004244783+1004681593+1005424336+1006849227+1008734994+1010301622
2275+1010944033+1010846292+1010699742+1010760090+1010526105+1009671244
2266+1008928192+1009412885+1011149634+1012882618+1013443393+1012845842
2258+1011857637+1010920708+1009938303+1009058451+1009004706+1010095034
2249+1011329812+1011333946+1010166673+1009278738+1009486684+1009994516
2241+1009866170+1009598370+1010363512+1012103716+1013257476+1012587175
2232+1010837777+1010109472+1011500056+1013767777+1014781651+1014024469
2224+1012916062+1012791110+1013434570+1013784992+1013393721+1012720149
2215+1012346279+1012597171+1013795544+1015915604+1017843947+1018154138
2207+1016967798+1015993105+1016533765+1018219668+1019533183+1019196952
2198+1017499448+1016200619+1016500074+1017678701+1018450260+1018719109
2190+1019185352+1020141779+1021289554+1022096840+1022084252+1021225381
2181+1020127217+1019616238+1020079951+1021153001+1022118499+1022811754
2173+1023861418+1025635930+1027242852+1027166523+1025031406+1022343845
2164+1021002749+1021265119+1021928015+1022403329+1023630394+1026450066
2156+1029811939+1031476987+1030166866+1026855776+1023912263+1022895426
2147+1023501122+1024508765+1025056397+1024964148+1024458784+1023918063
2139+1023657977+1023642489+1023431889+1022779174+1022092644+1021722044
2130+1021175276+1019862070+1018206093+1017206534+1017151802+1017417257
2122+1017344136+1016833404+1016128486+1015345820+1014402721+1013388106
2113+1012781607+1013019418+1013849474+1014413581+1014124370+1013300608
2105+1012694233+1012569651+1012641722+1012809189+1013351021+1014289801
2096+1015092027+1015320768+1015263814+1015521926+1016185255+1016814584
2088+1017052272+1016858456+1016350933+1015803918+1015559690+1015646077
2079+1015844890+1016228695+1017085901+1018263602+1019097237+1019085081
2071+1018423172+1017924348+1018343572+1019564529+1020574948+1020570937
2062+1019926429+1019659555+1020130487+1020795235+1021142202+1021251543
2054+1021253518+1020938823+1020304125+1019932414+1020183862+1020168127
2045+1018498020+1015453187+1013420439+1014444865+1017887572+1021313557
2037+1023287500+1024382640+1025682641+1027264942+1028503361+1029050191
2028+1028706000+1027094883+1024604469+1022865376+1023063325+1024399856
2020+1025156729+1024820005+1024608542+1026015107+1028896422+1031283912
2011+1031357217+1029467255+1027540640+1026869413+1027427596+1028709703
2003+1030141814+1030935464+1030418931+1028749194+1026877805+1025765757
1994+1025906568+1027298633+1029301269+1030739427+1030677660+1029040873
1986+1026754271+1025325492+1025574719+1026872745+1028067045+1028556057
1977+1028218654+1027679538+1028529586+1031337842+1034223044+1035238030
1969+1034782276+1034327819+1034288081+1033959008+1032573731+1030172913
1960+1028031256+1027602160+1028727906+1029883393+1030001188+1029251843
1952+1028499412+1028585799+1029708522+1031204806+1032186718+1032284643
1943+1031665372+1030737884+1029952503+1029576226+1029659528+1030094363
1935+1030513278+1030421584+1029719752+1028885068+1028413519+1028228774
1926+1027853361+1027128265+1026484250+1026324003+1026438959+1026424952
1918+1026184981+1025736016+1025033134+1024161428+1023295830+1022493665
1909+1021724327+1020911425+1019752791+1017809022+1014982933+1011678260
1901+1008268689+1004645433+1000632573+996724487+994031249+993386061+994789295
1891+997755083+1001568946+1005341034+1008567465+1011354679+1013922039
1883+1016423436+1018970557+1021364895+1023183095+1024408124+1025448347
1874+1026439082+1027170595+1027752658+1028669224+1029877346+1030583190
1866+1030600899+1030637799+1031116815+1031747008+1032165800+1032452234
1857+1032796486+1033105752+1033214908+1033204727+1033261063+1033374662
1849+1033434269+1033535218+1033886937+1034365459+1034490474+1034123884
1840+1033679546+1033675474+1034282836+1035027122+1035238030+1035102340
1832+1034871749+1034947214+1035238153+1035473989+1035615294+1035686008
1823+1035598263+1035378347+1035266290+1035391922+1035553095+1035506693
1815+1035273078+1034995714+1034772280+1034663988+1034659669+1034682993
1806+1034699345+1034723163+1034791532+1034979609+1035257281+1035353294
1798+1035069883+1034628076+1034477207+1034837502+1035358724+1035497808
1789+1035327872+1035238030+1035348235+1035464240+1035371929+1035013115
1781+1034541750+1034189538+1033996710+1033835228+1033684421+1033622223
1772+1033530529+1033053796+1031994383+1030475391+1028798373+1027066437
1764+1024887387+1021792141+1017941379+1013654548+1008537414+1002231226
1755+995138607+987455718+978388724+966948618+953410912+939176249+924672551
1745+909300233+892806302+874749385+853497814+828946816+804353611+780085901
1735+749611408+708252524+666430174+633340439+603804109+572909344+540410989
1725+506708708+473199718+444077922+422985211+410754695+408232256+417181208
1715+435307020+457012153+479905971+504028490+528908129+554086420+580670536
1706+608166097+632150211+651562479+671877615+696043944+717994632+735437894
1696+752002538+766453046+776690275+784964544+793610031+801971305+808802665
1686+815476800+824181031+832544032+837150310+839228719+840990767+844234167
1676+850387204+858524426+865577801+870800573+876042043+881771413+886229352
1666+889188353+892110887+896017492+900408296+904026183+906464395+908045462
1656+909392543+912050795+917858530+923702425+926436759+928104707+931009346
1646+935107298+938318858+940287802+941904658+943521761+945261595+947701041
1636+951510337+955653580+958296775+959704883+960994148+962756381+964786351
1626+966564689+968052767+969451002+970564284+971189726+971693670+972738027
1616+974445713+975906949+976627972+977049972+977545340+977948829+977789692
1606+976780198+974837663+971666212+966556483+958748147+947942492+934266444
1596+917947015+899505120+880416556+863423124+852162950+849935153+857674872
1587+873026643+891844383+910412589+926380484+938693592+947733806+955458839
1577+964207744+973233827+979455850+982989202+985991026+989598794+992849660
1567+994563948+994969782+994719630+994250240+994073455+995252946+998015849
1557+1000033170+1000946898+1001744435+1002745722+1003978032+1005425138
1548+1006800604+1007721798+1008092521+1008094002+1008209391+1009508898
1540+1012648016+1015787690+1017665126+1019094028+1020990099+1023258498
1531+1024927865+1025751380+1026244465+1026685409+1026831156+1026094028
1523+1023416216+1017561955+1008309723+995486438+978938207+962263111+951296837
1513+948057449+950814860+957194909+965375264+972147325+971003870+961614591
1503+948560159+934362827+922033922+916616409+922204475+935784448+949108408
1493+958266663+964035463+967238323+966744066+961211226+950991953+936837012
1483+919419111+901024852+886375778+879879044+882545440+892151180+905117313
1473+917859333+926541842+928892001+925871664+918409186+905411954+886224354
1463+864404666+844370103+826433448+808142298+788220840+771751715+763842678
1453+762182196+763978244+768237616+774486666+781598907+787507345+790878598
1443+791814416+790323438+785802807+778270663+769950238+765777006+768305923
1434+773812045+778047476+778863771+776433150+775084772+781653393+800363581
1424+828031731+855812245+878041531+893452230+898938236+891183338+871608724
1414+845151473+820969347+810669241+819408828+841765843+868887780+894772594
1404+915978626+931430914+942617721+951311030+957826583+961847898+963770440
1394+964630731+965498551+967103559+969816604+973487003+977027882+979039773
1384+979035269+977081565+973024277+966626518+957742911+945709142+929263650
1374+909235566+891226655+881758455+883030257+892692889+905663772+917530136
1364+926796746+933307487+936572483+936500226+933967545+930089016+925739616
1354+921513873+917843659+915178559+913956245+914313146+915957585+918412888
1344+921281245+924337308+927548806+930934312+934289583+937217547+939515379
1334+941280759+942697629+943877552+944812506+945345576+945059141+943293391
1324+939769110+935491041+932652488+933216287+937526627+944299985+951884701
1315+959198779+965576916+970535653+973994094+976303095+977859172+978834419
1305+979243338+979057298+978228908+976747741+974702714+972207550+969316609
1295+966120228+962856775+959739068+956611612+952897897+948008393+941800562
1285+934569847+926673768+918316135+909641091+900809317+891780704+882031808
1275+870614965+856516731+838950923+817521642+792294789+763669595+732275883
1265+699136845+665697736+633559430+604426959+580087362+561811330+549773981
1255+543265030+541208834+542403443+545617841+549808845+554403954+559367874
1245+564940143+571357340+578826791+587562490+597655947+608899831+620767059
1235+632564992+643606854+653232402+660803913+665945729+668911147+670660546
1225+672529528+675734979+680987185+688380431+697520792+707680334+717976306
1215+727684476+736459544+744243629+751081715+757128804+762780118+768701576
1205+775664429+784230563+794495806+806057595+818126104+829673762+839698664
1196+847565558+853115367+856403255+857395719+856045552+852679606+848282940
1186+844465437+843166423+846026018+853487756+864284896+875934306+885841721
1176+891902386+892171111+884694564+868906600+847721054+827180510+812397906
1166+803449695+796174861+787672468+780488711+780342347+789546017+803542252
1156+814214316+815718499+806976012+790351082+769549156+748153010+728425862
1146+710421455+691994184+669878126+641317969+605424050+563734860+519896299
1136+478573575+444025719+419138707+405357914+403051289+411562814+428921478
1126+451901406+476758800+500089212+519403647+533742530+544199984+553421981
1116+563954283+576696488+590534018+603113383+612056165+615813012+613776068
1106+606105273+593858868+579220654+565196836+554709764+549624223+550192773
1096+555025323+561632447+567672070+572365784+576843716+583011007+592124279
1086+604304413+618906777+635022085+651830649+668825748+685789685+702551291
1077+718846778+734451540+749344657+763622391+777250679+789939633+801161612
1067+810023930+814960330+813912702+805677800+791698472+776252416+764159348
1057+758058760+757938929+762684537+771307995+782939572+796555334+811075939
1047+825560631+839310725+851866396+862803298+871535542+877369502+879767420
1037+878913176+876520997+875827062+879850722+889190390+901647456+913934710
1027+923496392+929074400+930712421+930041935+930005529+933156248+939909057
1017+948734106+957809244+966092029+973248266+979258147+984160609+988053392
1007+991390090+994977433+999286972+1003970072+1008289854+1011747740+1014176387
997+1015613928+1016185440+1015889564+1014497561+1011665055+1007007254
989+1000304919+992011706+983355853+975497351+968551343+961612185+953765593
979+945026191+936225577+927924960+919282867+907684364+889550932+862626266
969+828883815+795521158+772196177+765971685+777696930+802327836+832448513
959+861982251+887196701+904757634+910606774+903482377+889635344+880239648
949+881374835+888017501+889330707+878273665+855733880+828662726+806197357
939+795326541+797760556+810544659+829345368+850447428+870358272+885254166
929+891574794+887193616+872794015+852974186+835272133+826351874+828287992
919+838415941+852092853+865181100+875049641+880805298+882894876+882104250
909+878870970+873323012+865299882+853884890+837231205+813956266+786009889
899+760258605+745618046+747028437+762085011+783695643+805421046+824295555
890+840064390+853134865+863281018+869743012+872265450+871904414+870822047
880+871315810+874739018+880985415+888940546+897385307+905408437+912358024
870+917953248+922513247+926953168+932506617+940144647+949892308+960707096
860+971092972+979881430+986734756+992162266+996928730+1001351806+1005191029
850+1007927029+1008705005+1005712251+995264855+971613084+929254209+868088762
840+798054704+737748623+704954207+705159129+728424134+757842361+781340240
830+796504427+806986872+816786736+827486197+838527504+848534203+856300085
820+861157070+863136936+862975825+861625658+859762290+858021778+857359868
810+858627042+861897530+866392739+870833709+873946294+875042422+874038975
800+870355557+861557474+844011103+817139503+788352149+771520692+777029961
790+802888858+836965688+866790613+885618905+891762007+887089890+877324581
781+870675929+873464316+886526708+905763858+925637679+942260943+954344385
771+962450879+967645144+970391016+970152835+965559207+954698757+935428596
761+905971063+866198492+819476518+773447924+737798172+719734405+720608826
751+736234074+759977539+785842915+809812652+829385477+842618606+848298428
741+846923085+840750117+832617091+824843619+818770058+814630331+811791285
731+809426626+807247267+805697484+805227354+805223837+803338749+794417626
721+770055075+724320258+664883662+614853622+597364576+617732469+661790391
711+710426453+753020115+788115633+817083105+840184838+857048751+868662866
701+877778606+887180720+898043452+910063647+922547431+934936560+946518958
691+956006533+961943232+964211816+965057051+967669024+972965472+977664863
681+976246697+966125288+951120053+939122318+936579826+945125906+961215237
671+978619439+992322514+1000342374+1004583235+1008287201+1011108661+1009852348
662+1001121770+985474679+969956798+963094030+966907584+975413062+980815581
652+979346756+971534780+959120414+942505912+920390718+891187719+854654289
642+813044451+772087699+740304012+725160989+728912838+747993565+776398410
632+809622909+844946366+879565706+910719941+936878601+957746737+974145703
622+987864266+1000230256+1011034122+1019486225+1025490738+1029625899+1032571880
612+1034589202+1035238030+1034374962+1031574049+1027233596+1021750490
603+1015544695+1008860317+1001454730+992339730+979482383+960636135+934961057
594+902923145+865599089+826305657+791640099+768834982+762881437+774850664
584+800910534+834642927+870790886+905817233+936973195+962717877+982884118
574+997780259+1007870877+1013755004+1015581718+1013035277+1005917976+994355632
564+979906975+967067092+961297798+964734149+975316062+989335005+1003344630
554+1015121893+1024159638+1030620336+1034289068+1035238030+1035435609
545+1034001647+1031024566+1026709782+1020772713+1011867880+998050959+978105807
535+953779353+930716864+915253531+909868042+912219928+917842364+923276723
526+927769402+932632989+938250303+942428225+942363188+937784184+931039951
516+921951299+902768882+861575862+794337842+714911789+650581925+624452328
506+639783921+681724806+731793165+777284432+813129481+839907104+859381570
496+872590944+881082847+886599520+889081295+887221692+881335282+874178613
486+869243756+869068453+874687433+885702947+900352145+916067419+930717419
476+943485849+954844196+965976641+977208061+986269131+989601324+985733346
466+977372134+970395459+969784703+975691907+983276994+986896979+984638144
456+979030456+973035260+967110223+960443739+952942880+945946089+941443475
446+941075714+945659284+954274659+963361645+969569661+973809473+978793139
436+983712569+984999242+982402510+980043652+981387587+986539337+993830522
426+1001469539+1007304487+1009750720+1009410170+1006600309+998268531+983237873
416+966610906+950833124+935618030+924411971+922808320+931505577+945857912
407+961340436+975673951+987599429+996886956+1004846407+1013311160+1022807867
397+1031169696+1035238030+1037659210+1035084693+1028167686+1018802596
388+1011285508+1009394188+1013530891+1022260852+1034373789+1047836832
380+1060034058+1069835156+1073741823+1061867561+1035238030
##END=
