##TITLE=YCW-280
##JCAMP-DX=5.0
##DATA TYPE=LINK
##BLOCKS=1


$$ === CHEMSPECTRA SPECTRUM ORIG ===
##TITLE=YCW-280
##JCAMP-DX=5.00
##DATA TYPE=INFRARED SPECTRUM
##DATA CLASS=XYDATA
##$CSCATEGORY=SPECTRUM
##ORIGIN=Angelika Moesle
##OWNER=
##XUNITS=1/CM
##YUNITS=TRANSMITTANCE
##XFACTOR=1.0
##YFACTOR=6.4447386e-10
##FIRSTX=3997.453
##LASTX=373.96442
##MAXX=3997.453
##MAXY=0.6919985373122468
##MINX=373.96442
##MINY=0.2804225669221653
##NPOINTS=2559
##XYDATA= (X++(Y..Y))
2559I44910199I44947470I45407032I45900629I46226179I46491428I46728561I46675382
2551I46172537I45600974I45596998I46359451I47493788I48445651I48832333I48527131
2543I47756540I47031267I46774712I47022665I47423037I47464285I46914642I46188907
2535I46057947I46828908I47980170I48787386I48956912I48475987I47412956I46075612
2527I44983818I44656602I45378917I46706180I47586089I47748679I48106599I49123295
2519I49805562I49299202I47988494I46458410I45058361I44578823I45883980I48244957
2511I49534949I48855362I47316492I46423173I46458318I46436121I45682732I44660487
2503I44353805I45312974I46975128I48227108I48654207I48528796I47721858I45590709
2495I42340113I39735713I39626396I41585059I43867791I46088467I47950019I47834691
2487I44896141I40697103I38443781I39786674I41710747I41036526I39294002I39697240
2479I41924852I43288646I44412441I47031452I49060034I48217304I45953993I44400695
2471I43804254I44328094I46987521I49942811I49880383I47731199I47063360I48861837
2463I50438812I49939574I47741095I44528973I41344781I41428666I48010228I55138937
2455I56426616I54084692I51218373I49018971I47516631I46233947I44741320I43651006
2447I44612671I47673211I49987296I49983873I49202185I49312519I49969631I50098649
2439I49755157I49129305I47492401I45286246I45459748I48993630I51353311I51072802
2431I51879832I54485803I55161411I52629059I48855456I46256421I46616652I48835941
2423I49116913I47222250I47372817I51123205I53933478I53943836I53787536I54598266
2415I55046452I54495884I53495188I52416618I51559739I51655277I52711185I53026654
2407I51485380I49902672I50945171I53923581I55461250I54328392I51922006I50163019
2399I50356037I52143139I53713270I54383328I54551004I53541339I50832986I48291293
2391I48656704I51337495I52323949I49835805I45674778I43213178I45693737I51206258
2383I53515720I51926445I50778789I53251118I56090338I55280718I51778005I48270761
2375I47193395I49813331I54333756I57061716I56583935I53945594I50901610I49243896
2367I49894996I51831000I53328065I53990727I54193456I53814171I52289543I49443943
2359I46443334I46150248I50691575I56844282I59674993I58902182I56320813I53652784
2351I52798586I54367421I55961321I55237712I52811811I50429841I48774623I47515800
2343I46906596I48638669I53197939I57123126I57863752I56354015I54138981I51993497
2335I49798440I47010365I44510752I45554825I50213886I52768064I52187810I52429382
2327I54688902I55624857I54149710I52004688I50238395I48727362I47202736I46061277
2319I46424746I48395432I49239364I46691567I42322078I40586398I45223263I52207139
2311I55042752I54245433I52411533I50689541I49039780I47097116I44904186I43067513
2303I42071627I41331093I39896362I38918603I41800921I47590806I49509423I46452029
2295I41752921I37758369I35719151I36319475I38359064I39656916I40098720I40385241
2287I39832268I37868612I36070134I36222088I37397858I37535386I36697187I36373580
2279I36964286I37087940I35840029I34402524I34223101I34714201I34057922I31987258
2271I30315764I31103095I33606221I34437113I32790590I30597290I29377218I29387021
2263I30097867I30690146I30499070I29396640I27600197I25349279I23334385I23168743
2255I25864055I29065171I29783138I28407968I26795109I25960147I25783221I25711823
2247I25434921I25087822I24944931I24766157I23901137I22330728I20928923I20501546
2239I20811835I20989871I20657570I20224088I20387326I21278426I22034220I21634034
2231I20035510I18071483I16622417I16032173I15986300I15989444I15912774I15828334
2223I15626993I15201558I14771777I14628424I14642852I14372516I13742041I13267311
2215I13282757I13171219I12041043I10089501I08454076I07767832I07438305I06790165
2207I06181054I06260684I06889865I07253333I06734211I05432752I04038991I03237787
2199I03000099I02668723I01939195I01283841I01141043I01115240I00471909H99247213
2191H98274817H98121754H98364066H98127488H97082769H95674581H94592313H94159848
2183H94157167H94184173H94101028H94056264H94203780H94448497H94497145H94263896
2175H94045443H94007988H93874531H93513281H93291685H93415062H93529744H93368726
2167H93068148H92658436H91940376H90947172H90025458H89404139H88986197H88600901
2159H88239929H87993547H87944622H88217640H88937827H90016858H91089508H91734318
2151H91732746H91194756H90523680H90213945H90502685H91084142H91304167H90877623
2143H90262870H90037205H90094176H89825041H88946335H87856391H87290656H87704806
2135H88790958H89634614H89543978H88638080H87582078H86949846H86902955H87314332
2127H87973292H88583699H88782913H88403537H87610656H86720851H86083347H85999091
2119H86359602H86570654H86250746H85726999H85481912H85458975H85287784H84992847
2111H85096986H85906514H86884643H87099210H86337867H85357056H84865309H84696708
2103H84283667H83585954H83172728H83490230H84318164H84999598H85066096H84554095
2095H83824197H83214439H82852172H82645837H82410553H82117927H82029327H82369397
2087H82888427H83090231H82947248H82987849H83595479H84628175H85735693H86609128
2079H86883903H86287554H85043622H83790440H82932450H82279037H81442320H80416560
2071H79610362H79370638H79635056H80084536H80494618H80793532H80858642H80555010
2063H80029507H79705159H79887079H80507844H81226457H81670389H81701464H81547938
2055H81505857H81531105H81393302H81120839H80935498H80869093H80712514H80190802
2047H79144234H77809942H76810726H76532251H76721477H76926981H77019374H77120091
2039H77318565H77527306H77477456H76992829H76264505H75653267H75345011H75340572
2031H75534978H75730493H75817059H75889013H76023210H76118748H76053175H75783116
2023H75270746H74488685H73510002H72573214H72065560H72324705H73306441H74463530
2015H75091971H74919115H74269033H73579737H72988104H72528635H72379733H72625190
2007H73049886H73363505H73434904H73283505H73006325H72715365H72512728H72496450
1999H72665053H72838186H72891550H72979782H73251320H73481979H73300060H72659966
1991H71861351H71256217H71128032H71636981H72589214H73378765H73451089H72805168
1983H71897698H71185187H70853164H70765950H70656540H70556285H70868978H71795594
1975H72909770H73559944H73545053H73214418H73017793H73102233H73294141H73343528
1967H73132291H72710186H72223987H71860519H71831756H72285952H73111851H73909171
1959H74315276H74348293H74326004H74438004H74506628H74321471H74131875H74402582
1951H75041104H75439717H75376642H75225335H75182514H74989773H74490259H73870512
1943H73338903H72928637H72541122H72071664H71656773H71709582H72435503H73442118
1935H74099414H74167946H73933125H73910743H74446328H75356943H75991580H75918239
1927H75465428H75327995H75787833H76577199H77287398H77672786H77753618H77720971
1919H77607028H77160136H76237407H75129243H74290397H73886142H73723367H73565770
1911H73484106H73782835H74464918H75030653H75064225H74716294H74334235H73941078
1903H73330487H72353838H70979592H69371727H67944395H67093711H66904763H67192948
1895H67631146H67850151H67681366H67264440H66753271H66145178H65543280H65263696
1887H65474841H66001732H66642566H67503886H68855010H70639337H72252751H72961562
1879H72395457H70394990H66742265H61641677H56282035H52359345H51024313H52334004
1871H55422934H59050226H62231551H64643302H66468878H67864210H68715449H68998917
1863H69154756H69783567H70992633H72280773H73074487H73267411H73276661H73594719
1855H74248871H74783531H74774467H74175345H73227736H72344774H72007849H72406092
1847H73183250H73776546H73952084H73900291H73983067H74462143H75279532H76005175
1839H76008320H74526143H70712309H64381844H57138916H52035736H51263666H54321615
1831H58850642H62915020H66038356H68517528H70541579H72059641H73066718H73733078
1823H74250997H74712224H75220526H75928782H76789454H77437132H77570866H77364068
1815H77266681H77449987H77698867H77866358H78098960H78411007H78417111H77875422
1807H77207305H77025940H77384138H77876254H78234452H78500626H78820811H79292766
1799H79881715H80421739H80830340H81266967H81926112H82735548H83436312H83946094
1791H84474557H85195021H85967277H86548735H86963625H87411904H87911696H88315675
1783H88638635H89105873H89858151H90777460H91641740H92365718H93030228H93670785
1775H94152079H94374231H94493815H94717076H94967989H95015712H94822602H94518509
1767H94147826H93700935H93299454H93141951H93294459H93637120H94036473H94502971
1759H95053539H95456037H95370765H94818255H94216358H93872219H93709535H93519848
1751H93248401H93010066H93005720H93413303H94229213H95210025H96036569H96556895
1743H96855624H97140017H97593845H98233291H98797362H98958102H98759628H98599072
1735H98682957H98836667H98923605H99057061H99306311H99562588H99801110I00183261
1727I00774892I01353297I01623448I01535587I01292812I01139101I01252765I01728050
1719I02540074I03573233I04667155I05551781I05920244I05785400I05596821I05774856
1711I06273447I06754003I07031460I07202280I07459576I07899809I08430215I08810146
1703I08882100I08801452I08885152I09216435I09587580I09835813I10002009I10172923
1695I10381848I10620185I10830496I11008347I11321134I11903054I12580882I13040720
1687I13179543I13129415I13069300I13125161I13324468I13593694I13824076I13892053
1679I13703197I13374040I13254085I13575380I14193001I14794251I15183524I15280356
1671I15109720I14938899I15160032I15818623I16462971I16666624I16497099I16270046
1663I16142231I16223618I16741631I17722442I18730352I19226723I19087439I18670514
1655I18496918I18854098I19608042I20433939I21201201I21949873I22538822I22634453
1647I22194035I21705710I21693318I22113110I22502290I22612996I22603655I22678476
1639I22845783I23037413I23268720I23626917I24139102I24684307I25105302I25372401
1631I25519083I25511499I25373233I25324215I25544979I25891893I26081766I26094713
1623I26156309I26365604I26552148I26503964I26170553I25669557I25203521I24929486
1615I24854203I24891751I24961763I24987105I24955290I25033255I25422435I26043847
1607I26514137I26453466I25777303I24767544I23876906I23393668I23269552I23232372
1599I23026129I22669505I22496186I22762360I23283055I23719680I24086849I24634827
1591I25339568I25845095I25945627I25900494I26118945I26630669I27114000I27419295
1583I27738832I28224198I28759320I29176894I29487924I29849820I30355069I30867164
1575I31158864I31262077I31499581I32080022I32814173I33282521I33212787I32706797
1567I32135791I31791189I31699164I31780368I32000761I32307722I32622450I32959191
1559I33400996I33968303I34632258I35347635I35951845I36229487I36266574
1552I36554852I37460380I38633931I39234811I38866441I38099085I37859548
1545I38361098I38866811I38609793I37738669I37093119I37164980I37718137
1538I38372752I38953192I39201331I38848960I38101583I37456680I37061303
1531I36735384I36398458I36086133I35873694I35980978I36520725I37105974
1524I37179500I36684979I36031198I35552306I35300190I35239150I35416075
1517I35921232I36754991I37761143I38672036I39226025I39367528I39346442
1510I39452245I39680870I39865842I40013449I40256224I40638004I41109220
1503I41520226I41623163I41423024I41414608I42068297I43223167I44330590
1496I45047724I45323795I45262940I45131331I45187934I45417668I45675796
1489I45969531I46304699I46476815I46309786I45939103I45696883I45877970
1482I46591405I47563430I48179478I48063685I47509880I47051891I46791914
1475I46487727I46105392I45932443I46250595I47087776I48140449I48867109
1468I48880334I48335039I47798436I47726482I48089489I48432426I48385906
1461I48240796I48714323I49867250I50704061I50370834I49342023I48775733
1454I49043293I49610416I50081817I50579483I51166211I51558537I51527924
1447I51262582I51202097I51523485I51867716I51781242I51335923I50962096
1440I50819113I50819760I51062443I51659439I52256157I52241173I51452086
1433I50417910I49914325I50337447I51434883I52623417I53524229I54115028
1426I54487468I54718312I54953781I55368487I55958546I56495703I56740235
1419I56658016I56410616I56181807I56079517I56167471I56421160I56620651
1412I56535379I56270500I56132142I56228697I56603911I57444329I58658297
1405I59817884I60930210I62422929I64095903I65081710I65031305I64492945
1398I63993152I63386169I62293819I60749492I59226345I58232400I57876423
1391I57984631I58616216I59812704I61073008I61755274I61675460I60968035
1384I59809190I58547222I57676654I57321138I57032213I56398778I55653990
1377I55492695I56292789I57587497I58515592I58683638I58284747I57531913
1370I56431795I55123400I53939767I52978933I52065821I51228640I50794697
1363I50991599I51829890I53314009I55358406I57507404I59082158I59714762
1356I59597305I59186668I58823107I58648770I58650251I58628979I58315175
1349I57709394I57212559I57200075I57468931I57384491I56768628I56322476
1342I56800906I58079244I59474114I60699828I62113471I64159349I66629458
1335I68419428I68487775I67257437I66376140I66888604I68339150I69684447
1328I70360703I70455964I70343871I70161582I69596864I68437461I67180211
1321I66679401I67307287I68793810I70672103I72392985I73186235I72538650
1314I71054347I70220125I70819062I71932869I72071967I71153306I70680057
1307I71732914I73423554I73873682I72243065I69256701I66351077I64828669
1300I65124438I66409990I67436397I67829276I68060768I68520607I69244401
1293I70161488I71203156I72418696I74000850I75885432I77542036I78431287
1286I78480489I78061899I77682615I77640719I77870268I78241969I78961323
1279I80336956I82075873I83238603I83272453I82810302I83059828I84609150
1272I86799026I87984047I86707744I83040221I78571773I75006540I73053518
1265I72652038I73710352I76325294I80219314I84005495I86096968I86923234
1258I88466730I91248794I93427295I93281723I91441534I89677091I88518707
1251I87515329I86967166I87609110I89003517I89705577I88905390I87049756
1244I85130584I83865193I83291319I82892707I82168358I81081742I80109903
1237I79963868I80930159I82306070I82968730I82658625I82074115I81602438
1230I80816864I79497000I78264813I77792858I78128025I79090340I80552725
1223I82099272I83162303I83606141I83589309I83059459I82016218I81074622
1216I81124009I82344729I83843182I84423531I83708339I82365261I81195408
1209I80393557I79921602I80087059I81184310I82731318I83733125I83897194
1202I83921241I84271114I84563277I84523600I84431115I84277866I83717865
1195I83027643I82886140I83211968I83397494I83467783I83944270I84760641
1188I85184318I84841474I84297565I84480317I85674585I87044669I87377988
1181I86540343I85551209I85175162I85588666I87190982I89783080I91205140
1174I89378824I85546123I82542463I80496124I77858893I75565154I76465594
1167I81266252I87697618I93214301I96884135I99153088A000587172A000706941
1160I98565526I94859622I91844679I90541463I89917924I89371611I89794455
1153I91426366I92992890I93463735I92702392I90726989I87839491I85016733
1146I83445956I84038790I87030334I91122273I93841817I94060638I93136889
1139I93095548I94487090I96045752I96140272I94438904I92369813I92108079
1132I94547390I97905548I99166498I97453200I95080386I94620639I95839694
1125I96432435I95521265I94746974I95605890I97308645I98007374I97215142
1118I95798352I94507899I93836545I94342256I95968710I97761270I98941388
1111I99612649A000115217A000389251A000292049I99924511I99229481I97904345
1104I96167001I94992617I94952200I95426190I95629381I95575092I95362560
1097I94443435I92089859I87864370I81594299I73221380I62544825I49842279
1090I37436611I28958628I26456426I29734676I37294830I46762503I55392163
1083I61552361I65736416I69367961I72976199I76123490I78565390I80620517
1076I82588798I84346860I85628990I86644483I88021781I89852444I91252216
1069I91615684I91548355I91852356I92474692I92875525I93028588I93470670
1062I94403020I95276640I95510907I95297265I95465681I96713129I98663746
1055I99842014I99507493I98376578I97473917I97375603I98061479I98895608
1048I98919190I97661108I95648248I93932730I93301607I93936337I95470490
1041I97390772I99466983A001340283A002080632A001449324A000351702I99500742
1034I98822544I97900645I96658562I95556595I95251669I95805011I96128895
1027I95405196I94308500I93682648I93352659I92901144I92591408I92813836
1020I93374579I93738880I93685886I93499434I93678117I94382026I95079276
1013I95059390I94084591I92393305I90408283I88438522I86460066I84288131
1006I81940011I79571729I77400163I75969501I75774541I75977733I75134818
999I72958628I69925651I66455030I62685219I58632124I54406543I50193077
992I46125369I42417523I39643597I38705885I39784732I41302885I42037499
985I42505477I43174519I43962035I45338963I47946044I50776015I52179486
978I52430215I52468040I52070907I50875160I49508590I48769259I48340403
971I47139013I44810129I41560458I37561744I33090428I28557887I23995565
964I18872780I12856767I06271782H99824231H93652472H86998215H79416604
957H71010390H62116682H53006745H43768992H34476670H25251588H16197512
950H07545747G99642378G92132535G84297514G76230352G68370451G60884563
943G53871970G47806015G43085034G39187962G35662822G33499811G34064529
936G36541482G39666067G43265011G45903259G46849435G47727587G50015129
929G52970373G55407603G59271611G67836207G76824387G79694036G78245247
922G75719045G73897122G74017631G76075624G78768161G82507081G89468392
915G98442376H04534042H07098394H09241104H13256280H18322649H21896853
908H23204786H22884971H22049732H23726406H31573267H38781697H39331711
901H38077234H40205238H46071794H50313560H51215851H50909908H50619688
894H50567989H51762164H56212856H62295921H65168066H64849545H63995068
887H64405983H66173200H68190776H70057323H72044196H73227921H72414416
880H70317949H68785091H68181620H65838125H59998112H51474256H41962374
873H33915376H29783760H30180061H33771560H38718067H43552575H47476005
866H50539873H53476943H57185066H62024753H67417781H72529931H77164853
859H81532678H85644039H89324602H92494273H95230002H97553059H99197455
852I00147005I01686709I05848660I11279700I13852191I13619127I13215057
845I13956330I14493209I13632353I12250246I10914382I09051811I07098696
838I09205338I18443276I25700263I28198857I29867948I31971073I34268142
831I36406505I37706022I37748010I36904725I35510594I33658938I32661110
824I33884234I34628280I33548418I33133527I36353603I43200785I49337954
817I52717383I55333435I58877581I62209102I61971692I53654911I33418938
810I03910159H69428236H30370766G93091705G68808418G60802389G64935531
803G76731070G96489353H28857793H61486578H76387788H80374572H82010182
796H84314834H88251398H94080774I00055167I03474736I04174021I04045096
789I05135872I07681820I09668969I10225918I10318589I10887468I12051586
782I13155865I13527104I13155865I12540650I12459541I13772745I15913144
775I16788614I15901767I14485256I13984631I14842806I15631247I14835500
768I12617322I10628138I11639100I15352956I17078741I16176451I14525394
761I13246502I12729507I12687980I12036419I09622356I04591964H96145888
754H84328615H70943060H59903592H56286660H60022344H65349430H69457277
747H72741816H75393381H76998472H77852763H78791956H80011934H80992376
740H81911684H83390347H81395799H66262449H33700901G90670151G53947623
733G40153976G50183222G70446201G89365825H03933347H14496976H21557430
726H26702596H31853406H37515291H43234423H48973627H54277222H57984420
719H60011338H61498693H63477795H65806865H67398914H67777736H67366452
712H66593178H65518494H64078214H62443712H61036912H60034367H58985486
705H57540674H56127491H55355883H55299929H55829503H57197182H59374481
698H61163988H61473445H60749189H60135731H60418738H61776983H63975739
691H66686959H69634572H72580336H75339925H77767953H79732536H81297949
684H82937074H85255692H88182681H90821760H92605349H93849005H95107273
677H96588340H98167625H99679676I01094060I02532583I04185858I06153401
670I08339116I10380739I11402336I09895004I04462853H95318233H85303137
663H78758475H78274590H82821559H89210660H94678139H98141823H99692253
656H99625017H98165222H95671899H92787823H90387818H89269573H89696025
649H91201415H92783754H93324795H92290896H90409645H89378336H90570939
642H94097236H99049108I04360287I09343604I13673509I17209978I19947372
635I21988440I23449714I24427565I25101047I25814852I27038623I29259299
628I32806127I37583663I42941731I47994043I52174769I55448302I58086273
621I60398878I62577473I64600690I66285874I67422708I67700166I66653320
614I64198100I61362487I60179040I62613635I69360840I79213716I88854800
607I92286484I80642159I45553715H86703464H16880149G56843259G22418308
600G15689924G27782620G47689483G67894335G85032683G98655463H09792781
593H19653889H28930856H37788124H46237621H54525454H63145680H72368172
586H80562688H80750619H60350945H11645178G46066959F91317896F68283211
579F74537236F92905969G09720802G20988571G27301047G29627572G29209583
572G27931615G27621048G29137536G32218791G36239609G40914070G46220671
565G52052498G58157112G64282998G70305530G76207138G81992584G87697382
558G93325510G98676550H03486826H07810349H11950751H16009673H19813334
551H23281087H26583012H29873748H33077085H36080188H38989143H41972641
544H44927098H47484514H49324240H50427595H51135389H52030096H53505336
537H54927119H54331881H50212658H44248807H40855505H42883163H48878459
530H55353941H60281489H63635114H66112529H68433737H71111754H74134836
523H76972761H79060719H80271912H80962966H81666135H82806114H84570187
516H86875025H89477296H92095105H94313746H95278002H92802066H82394275
509H59369487H25031287G90069826G68370775G66548297G80618986H01568856
502H21881685H37900586H49246460H57282916H63437565H68345135H72140473
495H74964618H77042033H78628071H80007681H81361672H82637050H83703411
488H84599228H85502259H86509521H87561546H88542080H89418938H90320211
481H91419959H92677025H93819687H94720313H95621864H96813450H98228667
474H99558890I00633480I01527633I02443519I03617904I05196266I07100085
467I09125245I11133018I13004097I14522528I15513143I16030138I16124195
460I15075314I10902821I01700119H88699398H77424276H73854511H79013921
453H88488901H97180064I03176747I07206721I10244045I12531216I14025140
446I14876656I15454784I16148520I17214603I18761150I20731836I22806846
439I24439774I25254018I25477742I25787291I26646576I27967735I29413380
432I30775788I32031837I33224070I34323448I35167196I35599011I35639335
425I35481832I35426247I35781394I36575106I37376865I37631847I37180333
418I36373395I35798688I35866665I36367476I36308377I34525621I30880944
411I26797328I24210501I23921022I25216100I26890277I28166487I28824801
404I29053703I29240153I29616016I30110259I30592481I31048805I31442332
397I31637662I31603535I31509292I31482009I31402749I31026332I30176665
390I28876870I27447133I26292725I25476262I24838758I24573139I25124909
383I26496657I28243528I30116179I32156877I34255194I36134042I37790276
376I39560269I41632133I43748855I45588952I47256932I49154277I51479924
369I54068322I56670409I59254460I61972061I64870657I67815958I70713537
362I73585496I76409734I79073508I81416172I83015528I82635966I78059772
355I67818918I54502635I45425992I47658504I61768869I81651548A000381206
348A013716263A016349980I99100833I58002573I07196640H73691367H73861356
341I00160324I33015053I58573025I71806163I68777532I41905707H85390906
334H07528453G33851257F88057450F67926263F48797714F13321477E70089109
327E41065140E38726037E59203305E91414333F26631794F60592190F91278636
320G16742273G34112761G40437259G35748556G25402916G17620472G17845443
313G26053275G38936170G53131714G66549314G78371026G88587926G97246165
306H04166966H09444110H13782246H18191782H23568810H30404247H38513582
299H47091542H55339976H63121079H70860100H78787701H86427301H92935338
292H97906632I01872883I06184475I12463610I21039628I27267526I18741265
285H81336608H14240420G37809878F81029504F60199033F71105368F98425287
278G27928701G51702670G68140439G79905551G90667654H02170846H13718246
271H23887424H32178586H39024658H44908786H49942785H54045083H57257760
264H59850690H62156545H64629059H68014592H72815433H78688002H84211250
257H84996546H72430694H40800847G99049822G68797088G64976271G82689372
250H06304219H25441092H38769489H48333256H55652022H61669145H67200162
243H72758371H78232324H82950762H86376434H88569086H89783331H90208488
236H90356096H91090062H92947361H95660060H98444066I00617851I01953715
229I02665486I03337025I04731525I07177773I10116136I12672073I14608910
222I16363087I18361149I20618633I22798892I24555751I25957465I27399318
215I29055830I30671001I31790541I32109525I31864252I31873593I32764971
208I33610568I33170151I32044137I31283627I31285106I31634887I31389986
201I29832063I27154971I24272560I21701734I19051277I15875872I12045482
194I06661332H98319118H87851674H79108719H75298213H75852944H78193110
187H81157279H85325426H91160907H98459142I07156131I17423158I29092732
180I41529475I53647326I64018771I71941747I78616998I86521292I97352298
173A010593204A024012330A035721951A045681926A054940119A063775652A070912962
166A073741823A067782319A045524792I97528297I17840269H11439397F96253721
159E93599678E15616901D64233024D38075466D35118605D50364787D75817187
152E04486427E32764359E59112854E82446869F02141985F18621049F33248224
145F47354058F61268168F74459132F86505215F97354024G06744842G14367655
138G20662096G26441901G31686073G35748325G38761510G41888500G46096832
131G51386924G57213017G62937607G67726797G70693462G71684909G71761857
124G72454113G74499667G77692737G81917671G87477080G93868586G99011996
117H00901756H00197570H00290426H04362387H12820025H23600440H33615722
110H38264333H29854049H00980370G53848848G02038612F61091613F40636263
103F40900032F53772245F70310961F86683990G02338960G16778158G29426970
96G40296219G49582712G57378197G64174558G70759497G77117938G82251544
89G85738719G88676251G92858734G99338100H07504961H15492955H21075580
82H20860828H09487393G84248311G53071876G32341566G30940916G41819968
75G51006207G49059058G35549712G17261072G03879541G02466544G12089732
68G26353577G39739640G49784377G57058381G63610118G70572814G77634471
61G84166091G89891976G94822576G98878816H01719516H03578757H05893766
54H09652480H13630107H15897673H16647547H17676821H19292455H20165520
47H19851715H19069749H18704430H19805010H22562102H24479424H22259026
40H16650692H12524995H12851007H15232238H15425256H12896695H10564760
33H10192782H09346353H05771779H01087282G96859575G92815172G87942284
26G83049974G81304490G84243316G88804159G91215355G91931842G94394830
19H01732926H14848422H29225886H38525235H42462538H44054033H44631144
12H43922702H43071557H45190590H51595690H58209531H59865303H56548487
5H50415757H41482652H26788332H03433462G76358353
$$ === CHEMSPECTRA INTEGRALS AND MULTIPLETS ===
##$OBSERVEDINTEGRALS= (X Y Z)
##$OBSERVEDMULTIPLETS=
##$OBSERVEDMULTIPLETSPEAKS=
$$ === CHEMSPECTRA SIMULATION ===
##$CSSIMULATIONPEAKS=
##END=


$$ === CHEMSPECTRA PEAK TABLE EDIT ===
##TITLE=YCW-280
##JCAMP-DX=5.00
##DATA TYPE=INFRAREDPEAKTABLE
##DATA CLASS=PEAKTABLE
##$CSCATEGORY=EDIT_PEAK
##$CSTHRESHOLD=0.93
##MAXX=3997.453
##MAXY=0.6919985373122468
##MINX=373.96442
##MINY=0.2804225669221653
##$CSSOLVENTNAME=- - -
##$CSSOLVENTVALUE=0
##$CSSOLVENTX=0
##NPOINTS=34
##PEAKTABLE= (XY..XY)
388.12973892103173, 0.543337580596
407.96118541047645, 0.5035303205056314
427.7926318999216, 0.5236511198741307
436.2918232525408, 0.5276336042011998
471.7051205551211, 0.4527213251325398
481.62084379984344, 0.47107231356645574
519.8672048866297, 0.41287332527158516
536.8655875918685, 0.5157064167005202
592.1103313838935, 0.2804225669221653
729.5139249179042, 0.49300721017977606
770.5933497888973, 0.42548101916577735
818.7554341204063, 0.4624876356048619
834.3372849335415, 0.3471948485478928
1087.8964936200155, 0.4940203398440164
1127.5593865989053, 0.5419093936540731
1181.3875984988272, 0.46893274542180524
1194.136385527756, 0.43069106056636447
1222.4670233698198, 0.4612434478833866
1357.0375531196246, 0.5543349946814916
1366.953276364347, 0.5512184467003559
1410.8657650195464, 0.47700988990706733
1436.363339077404, 0.5518543690367076
1512.8560612509773, 0.4903172523360515
1607.7636980218917, 0.5347739427725136
1630.4282082955433, 0.5568222371393963
1638.9273996481625, 0.5481688350632675
1648.8431228928848, 0.5401188699741032
1655.9257823534008, 0.5297895638940056
1677.1737607349492, 0.4987564654582309
1701.2548029007035, 0.4727214545044404
2969.0508463330725, 0.5486171807047707
3025.7121220172007, 0.5484629239529581
3046.960100398749, 0.5576398340789865
3059.708887427678, 0.5586974588629952
##END=


$$ === CHEMSPECTRA PEAK TABLE AUTO ===
##TITLE=YCW-280
##JCAMP-DX=5.00
##DATA TYPE=INFRAREDPEAKTABLE
##DATA CLASS=PEAKTABLE
##$CSCATEGORY=AUTO_PEAK
##$CSTHRESHOLD=0.93
##MAXX=3997.453
##MAXY=0.6919985373122468
##MINX=373.96442
##MINY=0.2804225669221653
##NPOINTS=100
##PEAKTABLE= (XY..XY)
2702.7428506176702, 0.5940072503876674
3545.5793264190775, 0.5932391844865875
3539.9131988506647, 0.5930603707028135
2716.908169538702, 0.5919472541415635
2728.2404246755277, 0.5904297199215817
3527.1644118217355, 0.590329226468118
2738.15614792025, 0.5896542039026801
3517.248688577013, 0.5894541108809966
1466.1105088115714, 0.5890392031212457
3511.5825610086004, 0.5885769091319905
2748.0718711649724, 0.5885683859651919
1570.9338688272087, 0.58854323279491
2759.404126301798, 0.588449296218498
1474.6097001641906, 0.5880563224820983
1459.0278493510555, 0.5868760311214727
2783.4851684675527, 0.5856987797440447
1561.0181455824859, 0.5846013986565604
3498.8337739796716, 0.5840100017302484
2799.067019280688, 0.5836334788335991
1491.608082869429, 0.5826334326331906
2811.815806309617, 0.5807605948183998
2831.647252799062, 0.5791236125242579
3474.7527318139173, 0.5788159935503504
3464.8370085691945, 0.5762609208631546
3460.587412892885, 0.5761958921617328
3447.838625863956, 0.5757031409823279
2871.310145777951, 0.5756066406889009
2850.0621673964033, 0.5755188433704792
3415.2583923455823, 0.5737196173599777
3406.759200992963, 0.5736057130499613
1284.7944266223608, 0.5731810892022969
1294.7101498670836, 0.5731109942918617
3428.007179374511, 0.5722570980065809
3399.676541532447, 0.5718356340142522
3388.3442863956216, 0.5715857708542563
3375.595499366693, 0.5710032547777351
3364.2632442298673, 0.5703547561784794
3348.6813934167317, 0.56918173706089
3326.0168831430806, 0.5690364210949372
3331.6830107114934, 0.5684448450048922
3283.5209263799843, 0.568107482273398
3293.4366496247067, 0.5669469801271175
3304.768904761532, 0.5667313900869965
1310.2920006802187, 0.5660250151572174
2943.553272275215, 0.5653754441534586
2930.8044852462863, 0.5652202928719284
3267.939075566849, 0.5649021232164588
3250.9406928616104, 0.5641341178959217
3100.7883122986705, 0.5641260117037107
641.6889476075057, 0.564106818627686
3144.7008009538704, 0.5634802546962554
3139.034673385457, 0.5633551442747613
3109.28750365129, 0.563212629836678
2984.6326971462076, 0.5632058944403671
1017.0698990148553, 0.5631763904270563
858.4183270992962, 0.5630712477391666
3079.5403339171226, 0.5629376734424691
3164.532247443315, 0.562637146903391
3205.6116723143077, 0.5623011556122708
3218.360459343237, 0.5622259345567532
3232.525778264269, 0.5620234576262616
2991.715356606724, 0.5619862643953272
3153.1999923064895, 0.5618727770598981
3119.2032268960124, 0.5617600050904538
3190.0298215011726, 0.5614192453372435
3174.4479706880375, 0.5610507693412101
3059.708887427678, 0.5586974588629952
3046.960100398749, 0.5576398340789865
1630.4282082955433, 0.5568222371393963
1357.0375531196246, 0.5543349946814916
1436.363339077404, 0.5518543690367076
1366.953276364347, 0.5512184467003559
2969.0508463330725, 0.5486171807047707
3025.7121220172007, 0.5484629239529581
1638.9273996481625, 0.5481688350632675
388.12973892103173, 0.543337580596
1127.5593865989053, 0.5419093936540731
1648.8431228928848, 0.5401188699741032
1607.7636980218917, 0.5347739427725136
1655.9257823534008, 0.5297895638940056
436.2918232525408, 0.5276336042011998
427.7926318999216, 0.5236511198741307
536.8655875918685, 0.5157064167005202
407.96118541047645, 0.5035303205056314
1677.1737607349492, 0.4987564654582309
1087.8964936200155, 0.4940203398440164
729.5139249179042, 0.49300721017977606
1512.8560612509773, 0.4903172523360515
1410.8657650195464, 0.47700988990706733
1701.2548029007035, 0.4727214545044404
481.62084379984344, 0.47107231356645574
1181.3875984988272, 0.46893274542180524
818.7554341204063, 0.4624876356048619
1222.4670233698198, 0.4612434478833866
471.7051205551211, 0.4527213251325398
1194.136385527756, 0.43069106056636447
770.5933497888973, 0.42548101916577735
519.8672048866297, 0.41287332527158516
834.3372849335415, 0.3471948485478928
592.1103313838935, 0.2804225669221653
##END=

##END=

