##TITLE=YM-200
##JCAMP-DX=4.24
##DATA TYPE=INFRARED SPECTRUM
##DATE=9/1/2020
##SAMPLING PROCEDURE=Diamant-ATR
##ORIGIN=Lisa
##XUNITS=1/CM
##YUNITS=TRANSMITTANCE
##RESOLUTION=4
##FIRSTX=3997.453
##LASTX=373.96442
##DELTAX=-1.4165319
##MAXY=0.82232571
##MINY=0.34989962
##XFACTOR=1
##YFACTOR=7.6585049e-010
##NPOINTS=2559
##FIRSTY=0.78077161
##XYDATA=(X++(Y..Y))
3997+1019483069+1020052693+1020616401+1021150068+1021746075+1022317177
3989+1022588875+1022390102+1021786935+1020939465+1019992687+1019202499
3980+1019046610+1019849172+1021187581+1022122140+1022269625+1022166113
3972+1022332510+1022617827+1022671996+1022418587+1021938778+1021395616
3963+1021025855+1020859303+1020637181+1020235666+1019893612+1019896492
3955+1020268121+1020821167+1021421377+1022133036+1022967042+1023553165
3946+1023429885+1022630124+1021622718+1020844126+1020443234+1020294193
3938+1020130365+1019746439+1019217598+1018925431+1019296749+1020359569
3929+1021591275+1022413529+1022634327+1022332510+1021636182+1020752289
3921+1020013857+1019727449+1020039151+1020857513+1021808805+1022453454
3912+1022603118+1022319201+1021695409+1020807703+1019871042+1019328503
3904+1019630009+1020685980+1021783044+1022337958+1022355391+1022052251
3895+1021533371+1021042354+1021095511+1021865230+1022690363+1023068685
3887+1023326296+1023728044+1023819259+1023301702+1022612535+1022014426
3878+1021244318+1020399806+1020082968+1020510866+1021195520+1021782188
3870+1022311963+1022497505+1022142998+1021885310+1022353056+1023148381
3861+1023420079+1023093824+1022642265+1022410727+1022589653+1023211422
3853+1023666171+1023224886+1022351422+1021746542+1021599447+1021775339
3844+1022010768+1022034195+1021682256+1021028656+1020493589+1020676951
3836+1021709340+1023055610+1024104421+1024509438+1024214392+1023426149
3827+1022489100+1021760240+1021563646+1022214133+1023712323+1025015709
3819+1025012518+1024214703+1023604609+1023167371+1022392048+1021437721
3810+1020860314+1020979858+1021750667+1022724841+1023352057+1023564605
3802+1023595581+1023460627+1023145424+1023049695+1023598305+1024572167
3793+1025287251+1025405783+1025074469+1024566953+1024146603+1024080216
3785+1024445385+1024891573+1024929476+1024455269+1023833890+1023532774
3776+1023660956+1023980207+1024265447+1024419780+1024282180+1023678468
3768+1022976303+1022952643+1023711233+1024453557+1024579172+1024293154
3759+1024078971+1024193300+1024620576+1025142102+1025416991+1025232305
3751+1024787984+1024500799+1024430287+1024529595+1024996875+1025805897
3742+1026245081+1025845823+1024906516+1023906660+1023088142+1022365042
3734+1021795885+1021808805+1022387067+1022883532+1022799089+1022295775
3725+1022071319+1022534940+1023148848+1023155775+1022655029+1022372202
3717+1022629034+1023118262+1023419145+1023325673+1022985331+1022907503
3708+1023351590+1024017954+1024506402+1024565240+1024023713+1022992258
3700+1022086417+1021838691+1022230166+1023075767+1024252605+1025332625
3691+1025421972+1023941371+1021871923+1020997525+1021589174+1022755349
3683+1023724231+1024006046+1023339449+1021928037+1020513201+1019926767
3674+1020125695+1020354432+1020547446+1021024376+1021490799+1021364017
3666+1020818754+1020416695+1020323690+1020202123+1019838666+1019719511
3657+1020494756+1021781876+1022371112+1022082837+1021857447+1022178955
3649+1022204638+1021186647+1020021250+1019565334+1019722624+1020074952
3640+1020314973+1020309136+1020069114+1019743248+1019477933+1019167710
3632+1018538782+1017617920+1016955370+1016923149+1016962842+1016643513
3623+1016239819+1016252661+1016955837+1017956317+1018365614+1017960208
3615+1017358753+1017023314+1016893653+1016780024+1016622967+1016378197
3606+1016076458+1015895508+1015883289+1015837370+1015592368+1015310786
3598+1015256617+1015350634+1015266657+1014950675+1014691975+1014687072
3589+1014940169+1015386590+1015688018+1015365421+1014490634+1013615146
3581+1013140784+1012979758+1012833753+1012721914+1012864962+1013042487
3572+1012674672+1011732719+1010922841+1010732940+1010743681+1010421161
3564+1009938005+1009408074+1008638199+1007866067+1007718038+1008189520
3555+1008477017+1008062349+1007395051+1007231068+1007685661+1008335759
3547+1008829656+1009103377+1009287440+1009417413+1009210390+1008355994
3538+1007037120+1005906434+1005460246+1005587106+1005771247+1005588585
3530+1005033359+1004433928+1004024941+1003764918+1003607705+1003611674
3521+1003726782+1003803676+1003811537+1003857222+1004016692+1004230330
3513+1004390967+1004498214+1004570049+1004435017+1003913803+1003176771
3504+1002618355+1002441997+1002482857+1002344323+1001676791+1000473959
3496+999151583+998239672+997990155+998273138+998711932+998948685+998918721
3486+998845719+998976314+999374482+999868846+1000171208+1000170897+1000036410
3476+999940370+999836236+999556678+999020598+998336645+997706783+997202146
3466+996728562+996254512+995876034+995605737+995318085+994939529+994547120
3456+994315348+994369361+994536380+994360022+993640346+992813423+992545850
3446+993018188+993803395+994369906+994443687+993993140+993213926+992516820
3437+992246679+992335870+992437980+992392762+992302482+992190409+991933732
3427+991561636+991350567+991533618+992003700+992351513+992202083+991524590
3417+990612601+989808871+989248431+988799908+988327570+987995633+988079065
3407+988457698+988608062+988156270+987241558+986416425+986321474+987182642
3397+988403997+988975878+988523230+987677706+987267474+987386006+987467259
3387+987137968+986670300+986521959+986752642+987116799+987415348+987494888
3377+987271910+986956785+986821364+986661894+986078417+985299748+985036689
3367+985452758+985919648+985846101+985275232+984691755+984557190+984921426
3357+985349402+985375552+984966877+984363710+983747390+983315133+983294275
3347+983604809+983859151+983856972+983730501+983533674+983124610+982596313
3337+982397540+982728621+983126555+983016974+982449841+981920376+981723627
3327+981832509+982119616+982377461+982348586+981965205+981471386+981267477
3318+981613345+982322358+982821158+982714067+982171138+981660742+981473021
3308+981523298+981476912+981120071+980604382+980228473+980150645+980445769
3298+981111899+981897728+982474668+982809017+983055732+983208041+983173174
3288+983066550+983146090+983466119+983804749+984003989+984207898+984591513
3278+985052333+985346289+985314846+984900023+984263857+983879620+984151629
3268+984954580+985747804+986054758+985806564+985365824+985166428+985274376
3258+985500389+985879956+986619945+987521427+987893990+987287943+986145739
3248+985506693+985991172+987198596+988247407+988752044+988970118+989150524
3238+989201890+989021796+988768232+988680442+988837733+989121416+989321901
3228+989369221+989465961+989753847+989949506+989705204+989212086+988988174
3218+989181733+989497870+989673684+989711119+989804746+990205950+991002987
3208+991966031+992749837+993248326+993567343+993652487+993264825+992544760
3199+992245434+992930865+994148329+994904740+994831582+994440963+994342277
3189+994578251+994791345+994843178+995007784+995503471+996115900+996490642
3179+996607462+996743428+997069294+997487074+997841426+998076466+998137717
3169+997942291+997558054+997165878+996799152+996387520+996059708+996103136
3159+996643107+997536729+998480472+999152595+999452544+999608823+999844175
3149+1000012127+999840750+999505778+999540334+1000016252+1000256585+999699959
3139+998642665+997775972+997395471+997383563+997566226+997848664+998256249
3129+998899109+999750003+1000581595+1001169664+1001389840+1001190366+1000709311
3119+1000292231+1000185995+1000319704+1000482676+1000555679+1000464308
3111+1000089878+999440481+998808984+998527480+998601416+998751002+998748901
3101+998614881+998541100+998645000+998746955+998453232+997537663+996172715
3091+994776168+993716773+993124346+992891251+992842530+992864945+992909618
3081+992968534+993070333+993258988+993605790+994205611+995049189+995887630
3071+996328371+996140338+995472418+994694916+993949401+992977251+991493770
3061+989564880+987492242+985489726+983584963+981817176+980485772+980043242
3051+980631311+981887377+983287659+984474926+985267371+985666240+985912799
3041+986288320+986730383+986693804+985461552+982688695+978635410+973891091
3031+969070655+964844359+961976240+961098573+962405228+965499827+969564708
3021+973864551+978124158+982291616+986067833+988972531+990867099+992123866
3012+993191745+994132452+994608137+994250829+993035544+991245810+988962491
3002+985771074+981320556+976021633+970723334+965822424+961220374+957039841
2992+953744679+951485176+949822068+948181064+946218319+943683381+940307201
2982+936012727+931082554+925997270+921168663+916879871+913444774+911350422
2972+911089153+912710622+915664663+919313709+923496422+928347910+933723727
2962+939128495+944152840+948679942+952680770+956076874+958858449+961198427
2952+963382982+965593298+967705007+969416834+970672823+971764517+972884463
2942+973808515+974163956+973804235+972788501+971142126+968767359+965580145
2932+961674579+957301499+952719762+948115688+943587809+939163907+935005555
2922+931609761+929585143+929235306+930550055+933432494+937647194+942673563
2912+947888664+952864133+957367186+961177257+964064133+966001740+967325673
2902+968530451+969829634+970994642+971710738+971979712+972039173+972007574
2893+971853319+971640226+971548000+971641238+971806078+971922119+972012244
2883+972254834+972812628+973562189+974082159+974043167+973543199+972970619
2873+972594476+972309080+971742725+970650020+969184518+967673253+966196777
2863+964626363+963107082+962247704+962598709+964068725+966115291+968410129
2853+970943509+973540164+975781534+977534144+979172735+981092987+983195589
2843+984979719+986091882+986696917+987240935+987936251+988653903+989260106
2833+989828172+990498194+991270093+991942216+992233370+992049151+991647170
2823+991433532+991579848+991901512+992113515+992140833+992146903+992295321
2813+992577370+992915611+993343587+993936092+994577784+994993464+995111451
2803+995204300+995515457+995956353+996339500+996687002+997127820+997679232
2793+998242863+998707107+999065972+999468654+1000023646+1000595838+1001000077
2783+1001257532+1001423928+1001376531+1001031675+1000603543+1000455514
2775+1000776944+1001436692+1002092705+1002510485+1002774556+1003052402
2766+1003254055+1003198952+1003021504+1003070458+1003415703+1003750675
2758+1003807490+1003657282+1003572683+1003709893+1003950849+1004046655
2749+1003920963+1003725848+1003583656+1003484659+1003468471+1003624438
2741+1003818775+1003705146+1003125249+1002320741+1001676325+1001378632
2732+1001377621+1001548142+1001733295+1001720531+1001429765+1001130127
2724+1001207021+1001689944+1002244080+1002637890+1002990295+1003536415
2715+1004301931+1005033204+1005403587+1005314241+1005018805+1004920197
2707+1005224038+1005797397+1006354257+1006713822+1006837880+1006725886
2698+1006431073+1006154083+1006143499+1006435898+1006761298+1006791339
2690+1006472166+1006061390+1005825882+1005781520+1005773271+1005729375
2681+1005731243+1005855223+1006061701+1006269658+1006457146+1006634905
2673+1006793363+1006938434+1007102651+1007255973+1007290917+1007184526
2664+1007078992+1007123743+1007330454+1007625033+1007940081+1008224776
2656+1008459194+1008653764+1008767082+1008718751+1008562472+1008481842
2647+1008533676+1008591502+1008577181+1008511884+1008362454+1008108423
2639+1007916888+1008005067+1008394986+1008940327+1009465122+1009791299
2630+1009799938+1009564274+1009315925+1009256465+1009435391+1009758689
2622+1010051478+1010144872+1009989293+1009723822+1009588479+1009697438
2614+1009935592+1010150164+1010360767+1010661416+1011033746+1011427166
2605+1011902385+1012499326+1013035483+1013229353+1012978980+1012427023
2597+1011879659+1011709838+1012088394+1012707049+1013043344+1012979758
2588+1012856401+1012874379+1012839979+1012579566+1012245995+1012106683
2580+1012254868+1012605872+1013058442+1013609309+1014246098+1014739372
2571+1014765600+1014381208+1014086551+1014206095+1014533284+1014825528
2563+1015231946+1015888970+1016514007+1016763680+1016632929+1016245890
2554+1015702261+1015333823+1015596960+1016478440+1017410509+1017910165
2546+1017983712+1017898646+1017885493+1018057960+1018351917+1018573882
2537+1018660583+1018757089+1018884805+1018777947+1018291444+1017727658
2529+1017458762+1017443430+1017376731+1017109859+1016747803+1016558447
2520+1016848824+1017648896+1018495354+1018803942+1018477064+1018005115
2512+1017964878+1018401882+1018680974+1018147151+1016997242+1016159578
2503+1016208610+1016829055+1017442885+1017833582+1017955460+1017653176
2495+1016919958+1016175533+1016035910+1016800415+1018114852+1019160550
2486+1019364226+1018919906+1018406085+1018072125+1017855996+1017853817
2478+1018242568+1018880836+1019459721+1019934861+1020433972+1020876503
2469+1021008966+1020715943+1020071138+1019221645+1018449202+1018188011
2461+1018650543+1019446257+1019860924+1019575685+1018925120+1018396045
2452+1018083332+1017746881+1017242322+1016710212+1016330177+1016039101
2444+1015606532+1014977915+1014482773+1014650415+1015712845+1017233995
2435+1018374331+1018642371+1018334717+1018195949+1018666497+1019426177
2427+1019738657+1019385006+1019025207+1019331071+1020093942+1020616401
2418+1020629788+1020356456+1020010899+1019696085+1019543230+1019621759
2410+1019833685+1020015335+1020028488+1019773134+1019300407+1018914925
2401+1018976409+1019502760+1020089272+1020305712+1020042964+1019425866
2393+1018670233+1018134854+1018141314+1018542673+1018784485+1018555126
2384+1018056326+1017592081+1017280224+1017232516+1017579318+1018170422
2376+1018596452+1018648441+1018483913+1018332070+1018346313+1018732107
2367+1019692972+1021126175+1022427382+1022837380+1022299977+1021714399
2359+1021852077+1022405123+1022595646+1022190863+1021473288+1020726528
2350+1020077598+1019591017+1019360257+1019454740+1019638648+1019352085
2342+1018422351+1017438527+1017017399+1017092036+1017259911+1017480709
2333+1017951958+1018483057+1018551701+1018036557+1017384903+1017030319
2325+1017106201+1017587723+1018252297+1018664007+1018587269+1018231205
2316+1017873352+1017494018+1016943852+1016331345+1016025636+1016147359
2308+1016285504+1016042136+1015628558+1015536409+1015917144+1016703052
2299+1017920049+1019443377+1020802332+1021569561+1021702492+1021357480
2291+1020605272+1019494744+1018397057+1018090181+1019051046+1020670492
2282+1021803590+1022165413+1022474001+1023198035+1023958804+1024161546
2274+1023619396+1022684370+1022126810+1022521243+1023506001+1024166683
2265+1024297512+1024569832+1025258066+1025657168+1025202730+1024504068
2257+1024683695+1025966534+1027250464+1027093718+1025288730+1023425060
2248+1023212900+1024266848+1024751950+1024290585+1024447175+1026072069
2240+1028122916+1029416574+1029760496+1029245196+1028056606+1026944989
2231+1026636867+1026911756+1026938762+1026240489+1025092603+1024313155
2223+1024622444+1025957584+1027523173+1028502950+1028505830+1027676572
2214+1026808011+1026879302+1027879470+1028525287+1027785376+1026236442
2206+1025282037+1025680049+1027439508+1030142554+1032554678+1033052933
2197+1031356515+1029025021+1027804210+1028250320+1029851010+1031551086
2189+1032303994+1031843330+1030789772+1029698311+1028504740+1027281050
2180+1026813693+1027626217+1028886954+1029220058+1028550348+1028176539
2172+1028863839+1029825482+1029811240+1028470418+1026238621+1023473547
2163+1020472886+1018144505+1017854751+1020315440+1024674355+1028812784
2155+1030875538+1030775373+1029968452+1029711231+1030132358+1030876628
2146+1031671797+1032266014+1032476928+1032118141+1030825884+1028623272
2138+1026434748+1025309899+1025456527+1026436849+1027809347+1029269090
2129+1030542356+1031335191+1031413797+1030886901+1030288481+1030130646
2121+1030391759+1030492391+1029794351+1028260672+1026641848+1025843955
2112+1026137834+1027128351+1028353754+1029645777+1030841839+1031492481
2104+1031277987+1030515739+1029755670+1029195698+1028923689+1029095844
2095+1029473855+1029619938+1029723839+1030284745+1031056255+1031256195
2087+1030710465+1030004642+1029644299+1029683213+1030079202+1030826506
2078+1031594202+1031729467+1030955623+1029796608+1029126275+1029521719
2070+1030925426+1032550320+1033371250+1033037212+1032049574+1031033218
2061+1030269180+1029810539+1029603906+1029575032+1029669826+1029758239
2053+1029719169+1029578689+1029319600+1028994045+1029286445+1030968076
2044+1033488381+1035260448+1035432137+1034554703+1033722488+1033708401
2036+1034620234+1036108151+1037819278+1039097526+1038713367+1036348717
2027+1033951458+1033895422+1036194851+1038861707+1040431421+1040907184
2019+1040703975+1039953401+1038848398+1037721371+1036586949+1035382093
2010+1034658993+1034940341+1035423809+1034942131+1034064153+1034201130
2002+1035154991+1035528643+1034994976+1034502870+1034647241+1035115766
1993+1035350806+1035035836+1034404884+1034238254+1035003771+1036092118
1985+1036267231+1034802586+1032018988+1028958633+1026826768+1026492185
1976+1028032791+1030661200+1033304629+1035293213+1036428647+1036593175
1968+1035641338+1033750428+1031496606+1029458056+1028126963+1028152724
1959+1029846885+1032271151+1033855730+1034242224+1034481934+1035145029
1951+1035388553+1034334139+1032449999+1031091044+1031053609+1031823639
1942+1032186941+1031633739+1030759263+1030261008+1030211120+1030150492
1934+1029569272+1028418585+1027132865+1026128806+1025473649+1024903014
1925+1023795443+1021455154+1017913433+1013973778+1010084166+1005872890
1917+1001055957+996311560+992938882+991943305+993376431+996263462+999274551
1907+1001574136+1003231251+1004903153+1006953766+1009073958+1010988917
1898+1012985829+1015292418+1017419225+1018669455+1019105603+1019497779
1890+1020413815+1021712843+1022992491+1024051809+1024662681+1024579094
1881+1024055311+1023740030+1023863621+1024024647+1023876384+1023605543
1873+1023635040+1024165049+1025041704+1025836172+1026181262+1026153322
1864+1026101177+1026223445+1026419727+1026466580+1026304853+1026161494
1856+1026348281+1026785986+1026883115+1026271387+1025471081+1025332391
1847+1026043351+1027080176+1027714552+1027488617+1026659749+1025921316
1839+1025730093+1026039304+1026461132+1026667609+1026662006+1026728860
1830+1027072237+1027403084+1027258402+1026641926+1025924352+1025379867
1822+1025076804+1025087934+1025433568+1025787608+1025654833+1024977340
1813+1024220307+1023799023+1023608734+1023165581+1022150392+1020704892
1805+1019288499+1018307710+1017745403+1017113361+1015961895+1014394672
1796+1012874535+1011788522+1011345992+1011478377+1011699253+1011623371
1788+1011434015+1011510365+1011936006+1012484538+1012983105+1013389134
1779+1013660209+1013816721+1013974323+1014280887+1014900554+1015771061
1771+1016399133+1016478284+1016220206+1015903446+1015738684+1016005790
1762+1016777377+1017553790+1017855685+1017834671+1017765560+1017638623
1754+1017437671+1017317971+1017381090+1017477674+1017411131+1017173756
1745+1016804462+1016346054+1016022368+1016090156+1016337649+1016258031
1737+1015882044+1015750748+1016076069+1016261144+1015913797+1015267825
1728+1014564493+1013956811+1013564558+1013366875+1013188493+1012931738
1720+1012768766+1013047858+1013847152+1014651349+1015045548+1015103919
1711+1015025157+1014943515+1014900243+1014761398+1014167414+1012900840
1703+1011317585+1010186821+1009940340+1009822274+1008924528+1007163435
1694+1004748120+1001793144+998208774+993958585+989472421+985409096+982242974
1684+980491687+980301709+981000371+982156040+983789806+986109237+989129510
1674+992003700+993702141+994355196+994748228+995208036+995434671+995270843
1664+994930423+994687444+994648374+994767685+995000157+995305087+995877746
1655+997729431+1001789953+1005572241+1007166782+1008038689+1009590503
1646+1011773423+1013436453+1014295052+1014835101+1015316545+1015792931
1638+1016583430+1018181551+1019996112+1020663565+1020120714+1019077585
1629+1018113140+1017568110+1017656601+1018663696+1020613599+1022609500
1621+1023668506+1023895375+1023823539+1023172585+1020777505+1015858306
1612+1008195124+998265744+988103036+980638938+977494996+978218953+981462825
1602+986049855+991171562+996313583+1001217606+1005734979+1009674635+1012899595
1592+1015503410+1017718863+1019692894+1021422855+1022847731+1023946741
1584+1024725021+1025084431+1024881300+1024277121+1023947597+1024706965
1575+1026254265+1027261982+1027453050+1027509086+1027883206+1028239892
1567+1028011466+1026945611+1024963798+1022159187+1018592094+1014256838
1558+1010650131+1009916369+1011597766+1014696411+1018459086+1022289860
1550+1025860455+1028910536+1031422280+1033742568+1036070482+1038275584
1541+1040569410+1043216030+1045289992+1046290160+1046915898+1047902991
1533+1049254163+1050267796+1050696239+1050974786+1051570170+1052601003
1524+1053984007+1055810709+1058112940+1060483582+1062737950+1065150463
1516+1067630532+1069755315+1071488623+1072942218+1073741823+1072509649
1507+1065442785+1048657611+1024511695+994914780+958899620+917901831+878126409
1497+848547783+834958618+835024538+843425219+858233950+878938856+901463225
1487+920107322+933582313+943653885+952025147+959514228+966043689+971417482
1477+975901311+979872954+983661623+987641205+991526847+994375354+996025386
1468+997111087+998242084+999364365+999639798+998519386+996041496+991619307
1458+983573055+972232186+961066975+951097436+941325114+931331293+921532509
1448+912855927+905964488+899854831+891989840+880713335+867508017+856687273
1438+853924534+863027068+879776207+896522856+910948362+923453694+933529779
1428+940685212+946007872+951169583+956761216+962265994+967534485+972945169
1418+977840786+980995234+982467352+982707918+981384219+977416935+969187787
1408+954327845+929983545+896330388+861210017+835691758+825318681+829418584
1398+843312135+861227995+879884700+897458116+911951565+923016534+932137124
1388+940551970+947901428+952709644+953695336+949583992+938630941+920289673
1378+897593459+876814928+864799757+865682639+877561766+894099525+910226040
1368+923748195+934058932+941756048+948105415+953784761+958407046+961450434
1358+963042718+963757413+964194651+964581300+964561065+963425087+960499920
1349+955404362+948240369+939755556+931250118+923976854+918624931+915605047
1339+915542940+918932429+925455509+934065392+943492703+952625823+960734805
1329+967538221+973101058+977636021+981352854+984461695+987231362+989926158
1319+992636831+995205468+997268066+998177954+996898150+992504601+985308309
1309+977287429+970808789+966587396+963084978+958168737+951214957+943745410
1299+938487348+937722298+941910770+949521263+958198934+966143620+972561321
1289+977247736+980035848+980619403+978755733+974628667+969182650+964094019
1279+961077482+960944941+963258535+966762976+970012919+971775024+971350239
1269+968930254+965634236+962976330+962084577+963248651+966077000+969992840
1259+974527646+979273523+983834324+987985438+991746945+995147641+998030392
1249+1000232926+1001848947+1003182064+1004504129+1005899430+1007272628
1241+1008477639+1009415856+1009973494+1009965867+1009291954+1008088810
1232+1006578479+1004774114+1002469626+999535431+996073639+992197569+987736622
1222+982226785+975049795+965434607+952455691+935356403+914144837+890048186
1213+865550409+843913902+828193960+820200475+820097665+826717173+838105283
1203+851983347+866185252+879126343+890079317+899010630+906113139+911380930
1193+914364624+914121178+909465115+899514022+884123993+863755928+838943258
1183+810180271+778627848+746865602+718676129+697944295+687624219+689167315
1173+702072294+723705221+750021918+777042802+802082963+823969999+842444897
1163+857589767+869760750+879670050+888132916+895657876+902373657+908299874
1153+913531475+918169403+922193424+925440021+927681858+928763901+928652452
1143+927317701+924745562+921336693+918219914+916763907+917568337+920002721
1133+922650197+923938874+922475162+917447393+909334753+900177583+892651223
1123+888445240+887437600+888426250+890489160+893569749+898037468+904037699
1113+911228232+918824871+925818733+931327246+934874337+936375873+935980973
1103+934052472+931226225+928257085+925723393+923907120+922851850+922377176
1094+922209068+922364568+923271965+925271524+928142055+931309345+934396005
1084+937449200+940691671+944055555+946978154+948646709+948102146+943822071
1074+933816731+917248853+896381910+876581055+863957736+862449117+872201593
1064+889947243+910935053+931154467+948487395+962398224+972887109+979511832
1054+980596911+972729585+951425404+913798814+862174384+805441710+755911944
1044+723647784+712625232+720684871+741915894+769453868+797626763+823006410
1034+844353786+861916929+876520660+888723942+898251262+903516173+901326870
1024+888234248+864365088+836651611+816516174+812324744+823827184+844076329
1014+865521690+883724113+896797823+902324937+895196900+871473045+837106127
1004+809323462+803613607+819768141+844437529+865792921+881204119+892845014
994+902082970+908987562+913852438+917511445+920785982+924154925+927764745
984+931399003+934419043+935998640+935451587+932199465+925608597+915169210
975+900920841+883748551+865380432+847994037+833495062+822861105+816101817
965+812991809+813845816+819357131+829645220+843629518+859237932+874144648
955+886632624+895931052+901627131+903293507+901612888+899536514+900908233
945+907324299+916911313+926442524+934107575+940086714+945245001+950005587
935+954329401+958170293+961587567+964491175+966614714+967915454+968791330
925+969669542+970585656+971336152+971744749+971600222+970722556+969279857
915+967719716+966328306+965179954+964470629+964523785+965463248+967109544
905+969158368+971341989+973489342+975499874+977261745+978701409+979977010
895+981478469+983474914+985815592+988096810+990092554+991922836+993866825
885+996136291+998759796+1001508060+1003960655+1005794128+1007038521+1008024991
875+1009095438+1010360222+1011723147+1013094710+1014438489+1015566918
867+1016031863+1015221984+1012307402+1006039832+995148108+979806800+963189657
857+950932130+947763205+954131018+966447850+980347550+993083486+1003514467
847+1011265051+1016177635+1017856930+1015504266+1008548229+997652459+984913409
837+972612921+961411131+949739570+934920177+914733062+887884722+852884440
827+806661431+745947853+672114335+594380893+526377123+479059736+456877187
817+458391254+478096341+508658635+544131217+581713095+620126565+657481963
807+691525038+720986454+745998597+767521631+786599541+803945855+819941464
798+834796580+848645691+861571217+873705542+885413137+897211012+909234199
788+920858985+931141859+939523239+945709868+948541875+944646426+928401534
778+894895472+845072216+788432002+739504703+710339111+704887490+718788046
768+743508022+771237842+797425422+820274412+839181101+854164166+865950134
758+875520025+883430468+889658579+893808370+895571097+895516229+895384544
748+897086331+901366096+907647363+914856341+921905072+927571109+930708046
738+930973984+928897921+924762917+917350886+903363630+877816342+836784230
728+782985907+729490802+694748676+690560826+714519333+753723030+794342186
718+828512588+854818700+874737698+889766448+900972130+909523097+916602725
708+922754020+927739295+931326779+934016594+936622277+939322054+941759783
698+944066218+947005549+950843172+954754187+957757104+959843518+961818794
688+964126551+966275150+967769137+969054156+970727537+972335230+972986106
679+972667790+971963368+971000402+969528206+967555110+965150379+961721742
669+956008464+948245116+941111554+936387859+934994114+937647583+943231901
659+948470429+949921766+945425796+934241672+917209472+897618675+881373161
649+874651620+879865943+893717856+909573063+921441139+926421744+924989708
639+920064205+915859078+916565212+924611931+939280416+957152147+974252758
629+988206158+998900354+1007318624+1014059933+1019227249+1023104719+1026160638
619+1028582802+1030300389+1031194244+1030814521+1028180898+1022336323
611+1012755847+998842216+979591606+954390886+923725392+888458393+848864388
601+805240914+759130756+712926427+668491440+626884452+588976397+556052333
591+530086641+512931940+505200735+506472757+515815274+531744378+552566298
581+576602088+601826507+626399739+649553036+670794605+688744320+701833207
571+709152389+709303609+699405983+677540973+647179748+618219972+601976092
561+603601920+619008137+639490999+658533575+673770749+684744036+691508772
551+695360793+698841263+703900942+710462235+717278882+723871851+730852248
541+738335570+744973757+749252977+751293317+752487277+753688630+754810288
531+755801195+756569358+756089937+752998140+747311245+740586202+734363927
521+729513528+726260005+723695337+720389669+716213338+712194376+708784730
511+705877152+704177076+705179423+709493198+716010441+723252651+730799403
501+738953992+747850126+757323900+767028123+776513105+785471579+793554800
492+800100216+804916137+808940859+813260160+818125502+823169070+827703877
482+830987831+833066540+834934569+837255946+839469531+840688474+841045938
472+841631750+843059817+844821844+846336455+847895351+850204898+853112631
462+855321236+855917009+855977404+857689076+861420697+865589011+869367329
452+872792308+875563142+877592041+879418743+881213380+882738421+884153568
442+885172570+884733231+883188267+882488982+883152544+883271231+881809621
432+880583206+881639255+884420985+886488253+886363962+884958777+884651589
422+887549828+894539487+903318490+906988082+902066626+891821576+880203561
412+870924669+866733317+865984222+864014472+859573760+856464374+857961941
402+863025589+868256101+870035016+866179804+859882270+856698325+856988624
392+857895476+858649863+860489095+863703861+867124092+869443601+870057042
382+869545322+869120926+869330595+869834998+869640895+866660859+860696429
##END=
