##TITLE=X8526
##JCAMP-DX=5.0
##DATA TYPE=LINK
##BLOCKS=1


$$ === CHEMSPECTRA SPECTRUM ORIG ===
##TITLE=X8526
##JCAMP-DX=5.00
##DATA TYPE=INFRARED SPECTRUM
##DATA CLASS=XYDATA
##ORIGIN=ComPlat
##OWNER=
##XUNITS=1/CM
##YUNITS=TRANSMITTANCE
##XFACTOR=1
##YFACTOR=9.0086327e-010
##FIRSTX=3997.453
##LASTX=373.96442
##MAXX=3997.453
##MAXY=0.9672945698035412
##MINX=373.96442
##MINY=0.4516821485292586
##NPOINTS=2559
##XYDATA= (X++(Y..Y))
2559I54589140I54157950I53867755I53938682I54069356I53748064I52990024I52397989
2551I52377611I52695065I52916582I52909635I52814094I52766456I52760038I52706313
2543I52600649I52587417I52823556I53311515I53846119I54138034I54091521I53858557
2535I53527143I53047124I52589666I52528531I52899313I53354455I53743433I54250513
2527I54866631I55159274I54767849I53918172I53151001I52710217I52595621I52944106
2519I53804700I54709624I55034952I54658480I53973683I53379068I53047190I53118514
2511I53690832I54508486I55011001I54825279I54226098I53859484I53945365I54174424
2503I54258056I54271156I54438088I54767319I55085038I55275127I55370536I55434119
2495I55344070I54801658I53757393I52733242I52220008I52170849I52448869I52983805
2487I53531642I53846648I53935771I53983012I54132013I54415261I54702545I54690503
2479I54291601I53756202I53133997I52465807I52235358I52625858I53142995I53324615
2471I53176342I52851080I52536206I52753356I53686862I54700626I55123413I54900706
2463I54379268I53836261I53569488I53773339I53990555I53071803I51005900I50297814
2455I51545864I53163969I54219945I54625199I54593507I54323095I53948210I53554138
2447I53200161I53029061I53170121I53519931I53900638I54308737I54840563I55397994
2439I55715051I55816878I56094303I56523773I56264543I54881452I53512057I52942849
2431I52825474I53178922I54350090I55823891I56581666I56047922I54554801I53333282
2423I53301325I53921943I54045736I53471036I53211806I53636247I54208233I54621295
2415I54998562I55405669I55841358I56388401I56936702I57064398I56571345I55863192
2407I55385290I55041900I54569357I54127249I54069091I54390450I54832491I55184946
2399I55385290I55535615I55750118I55886283I55742245I55490425I55503724I55841160
2391I56241054I56487912I56598406I56649550I56642471I56387806I55556986I54550434
2383I54432331I55321111I56321774I56535351I56295640I56292795I56212472I55420489
2375I53885553I52469777I52096480I52798347I54158677I55706781I56790215I56823694
2367I55921350I54945300I54455158I54293519I54328586I54702015I55474810I56572932
2359I57820321I58726568I58623551I57544484I56208899I55127317I54633800I54825940
2351I55217432I55224048I55132015I55560426I56350357I56949471I57218891I57368951
2343I57399849I57014180I56218162I55581731I55425584I55607667I55932400I56292993
2335I56668142I57040778I57160998I56601118I55696128I55459791I55897730I56320186
2327I56520266I56827201I57217634I57455361I57611905I57865048I58071281I57901901
2319I57364584I57026288I57448877I58424001I59185613I58771560I56796897I54955820
2311I54953372I56226498I57619381I58520798I58841495I58745094I58415135I57946760
2303I57418838I57031449I56923204I56807682I56278305I55823229I56211744I57085372
2295I57806096I58121036I58023577I57715517I57629637I57881721I58042235I57792466
2287I57343544I57047593I56949207I57035154I57470248I58165300I58600394I58394227
2279I57879272I57805302I58266266I58531186I58107208I57463631I57450399I58268979
2271I59322573I59710426I59177871I58564731I58427309I58452517I58335010I58256275
2263I58531848I59143732I59802526I60250323I60418313I60436905I60441074I60330514
2255I59966348I59663317I59751116I59972699I60025829I60085575I60491755I61175626
2247I61740599I61937371I61877559I61882256I62110653I62354137I62249466I61673311
2239I60937568I60506775I60579555I61021331I61571815I62046740I62353343I62443789
2231I62337596I62110588I61850961I61675494I61686543I61835545I61948486I61974290
2223I62134076I62719892I63705668I64645262I65094051I65057264I64823838I64573805
2215I64403896I64452923I64677086I64770576I64538141I64126867I63800348I63686282
2207I63879944I64485410I65321589I65838329I65636199I64949814I64416599I64489776
2199I65132890I65952396I66530536I66640104I66271637I65636066I65113040I65021867
2191I65398935I66005459I66540395I66842367I66943862I67006850I67182383I67478731
2183I67787585I68034442I68204285I68242197I68122572I68044896I68334165I69048007
2175I69866058I70453064I70758146I70903442I70966033I70977678I71023066I71188344
2167I71397025I71383130I70908272I70038018I69214343I68976484I69445983I70128001
2159I70462989I70493358I70669023I71110866I71480722I71488530I71154799I70633162
2151I70027299I69350972I68534443I67489847I66210369I64815501I63522592I62558584
2143I62035161I61876302I61912427I62094046I62579690I63550580I64962782I66507247
2135I67755760I68377436I68396293I68285865I68628065I69556014I70662672I71509437
2127I72042785I72437916I72736183I72818225I72604252I72106501I71435665I70894907
2119I70856929I71369302I72051386I72534052I72865467I73337149I73984563I74433949
2111I74348266I73880818I73508779I73502162I73720437I73811876I73517446I72962926
2103I72671673I73045764I73891074I74716866I75360111I75976692I76554833I76815850
2095I76604985I76145080I75835367I75872352I76160232I76564559I77031875I77376060
2087I77257891I76630459I75981986I75856076I76244921I76675781I76805859I76733343
2079I76747370I76945266I77177700I77253590I77061252I76552253I75792426I75058602
2071I74743464I75043385I75749883I76410000I76755707I76935342I77254186I77724280
2063I77964852I77629269I76913309I76452345I76592877I76987148I77109485I76927666
2055I76826171I77040212I77386911I77507726I77292098I76999852I76887704I76841918
2047I76589305I76113123I75631979I75306254I75153614I75140182I75232878I75401331
2039I75592810I75717595I75711773I75587186I75409867I75284751I75321075I75499849
2031I75602667I75399743I74917012I74409401I74056285I73827623I73710579I73830865
2023I74184643I74467163I74399411I74102864I73974573I74248822I74783228I75273767
2015I75564756I75615769I75332587I74737575I74179350I74048478I74361301I74812340
2007I75090890I75102866I75081363I75365801I75904243I76220838I76016854I75514736
1999I75132309I75090030I75347937I75689674I75855481I75716669I75359582I74968950
1991I74651562I74418334I74302481I74357794I74528431I74674521I74737112I74730032
1983I74614245I74347406I74054697I73996804I74275023I74618811I74599888I74099159
1975I73431036I72955119I72745181I72710908I72823585I73065414I73284814I73279653
1967I73044837I72811014I72762053I72780446I72603590I72188213I71792354I71682258
1959I71884322I72283158I72816572I73407482I73795202I73694236I73144943I72535574
1951I72278725I72537955I73141834I73659169I73716203I73342376I72881014I72531338
1943I72161814I71624629I71043379I70609674I70271510I69886833I69586383I69659031
1935I70067726I70429047I70509436I70406948I70236973I69995872I69758409I69678219
1927I69745176I69761387I69561042I69164059I68787123I68718379I69040663I69474632
1919I69608217I69273428I68642952I67979725I67375516I66785267I66226645I65799226
1911I65550119I65456497I65490109I65612975I65743980I65739679I65416601I64736832
1903I63983953I63550712I63558652I63838393I64200243I64565402I64905617I65190452
1895I65386364I65512472I65659157I65871874I66072351I66154130I66093788I65941347
1887I65775871I65632163I65445713I65135007I64683769I64009228I62896351I61289361
1879I59534959I58123815I57242842I56704069I56262160I55907191I55864052I56332096
1871I57201821I58074721I58654382I59093050I59816156I61013127I62439092I63743447
1863I64834027I65839785I66834360I67716525I68341707I68698132I68899138I68995738
1855I68894441I68533384I68009168I67373134I66429172I64932148I62892182I60479912
1847I57680252I54177865I49618112I43961031I37557158I30793286I23526834I14845400
1839I03726090H90415167H77006321H65920556H57686456H50874418H44397301H39258151
1831H37633694H40524661H46654351H53589653H59608187H64430214H68603701H72679994
1823H76825429H80681462H83479269H84568394H84046096H82845220H82016650H81799037
1815H81520553H80545296H79210506H78662139H79814251H82548343H85797322H88165263
1807H88506338H86296329H81742400H75506120H68335738H61078416H54810112H50530432
1799H48646414H48857477H50518654H53148141H56696247H61326663H66957345H73127726
1791H79269855H84984895H90146740H94831675H99104408I02904334I06134060I08679783
1783I10382908I11239202I11591061I11882977I12278041I12673966I12967337I13065326
1775I12602377I10892503I07451516I02615396H97540690H93630667H91906303H92586931
1767H95067880H98429933I01983862I05275715I07877347I09473750I09986917I09494525
1759I08248460I06753751I05522044I04740185I04366160I04433647I05050030I06182624
1751I07603428I09013646I10188254I11083915I11865575I12807022I14134402I15923806
1743I18097423I20520081I23116882I25841248I28527172I30921247I32941099I34759152
1735I36539954I38197954I39502575I40377461I41029837I41741827I42550549I43220723
1727I43570664I43726745I44003045I44581715I45354906I46067558I46561141I46840352
1719I46984590I47128827I47446943I47997162I48644643I49234560I49729135I50129361
1711I50411484I50581194I50688578I50794904I50985059I51337514I51821702I52274924
1703I52521253I52526149I52434975I52428822I52522047I52568560I52494125I52434776
1695I52584307I52981092I53510139I54050433I54537400I54948675I55345195I55874572
1687I56579218I57237218I57584380I57669401I57791407I58089542I58400579I58537604
1679I58530789I58545808I58645981I58670660I58392176I57841493I57361342I57219685
1671I57311851I57370869I57303382I57150676I56814299I56000747I54519072I52603230
1663I50845850I49782596I49573055I50010729I50724439I51436164I52149941I53042161
1655I54132807I55187989I56001475I56620968I57208966I57810860I58367100I58842223
1647I59225312I59499230I59683365I59817810I59908322I59989968I60144395I60338983
1639I60429958I60413285I60442860I60575453I60734908I60890459I61050774I61153064
1631I61119386I60984610I60900648I61023184I61376102I61844808I62308220I62699910
1623I62964301I63076912I63083595I63055012I63079095I63272691I63633549I63932478
1615I63944387I63721150I63491032I63392514I63445842I63644863I63935984I64186481
1607I64286785I64228826I64033245I63724657I63438366I63394631I63642150I63984218
1599I64281955I64649628I65191709I65714867I65898340I65666700I65248743I64912034
1591I64747882I64710896I64777788I64980183I65309415I65710236I66147447I66539071
1583I66698725I66559384I66389078I66524052I66930828I67272565I67413031I67629519
1575I68214673I69029415I69661413I69929112I69936258I69732076I69322918I68962126
1567I68993422I69383921I69770253I69936324I69909792I69643218I69023725I68273889
1559I67923287I68173585I68624823I68861293I68984821I69266877I69562630
1552I69494746I69140174I69097035I69711499I70572424I71041989I70993359
1545I70709449I70362353I69965238I69603387I69436389I69609871I70195157
1538I71050591I71816372I72221163I72283092I72141435I71851571I71366523
1531I70669553I69993820I69779846I70154202I70664656I70870625I70870294
1524I70869037I70708788I70271775I69875122I69869697I70219506I70676235
1517I71057075I71331456I71695490I72452472I73599886I74685041I75190401
1510I74956710I74244124I73550727I73330533I73678092I74233869I74521351
1503I74403778I74099093I73824645I73649443I73608818I73674453I73676835
1496I73520027I73357925I73350581I73425213I73463986I73548014I73835099
1489I74288917I74644019I74621325I74177497I73586587I73226457I73215011
1482I73345420I73463721I73702043I74136079I74462929I74337945I73843436
1475I73333577I72991641I72778329I72660491I72676966I72798575I72824313
1468I72500242I71833508I71206473I71008841I71225396I71637663I72309624
1461I73438777I74739626I75497071I75365537I74673859I73853360I73024988
1454I72242798I71711767I71542585I71543710I71486743I71468747I71736777
1447I72152749I72238564I71856467I71433150I71374661I71657578I72064156
1440I72433946I72651427I72698403I72744188I73017115I73586852I74307840
1433I74931104I75279391I75378703I75421975I75574284I75805527I75928129
1426I75796264I75443941I75060521I74840261I74775884I74582685I73923891
1419I72691654I70977149I68899337I66567323I64005589I61076181I57820189
1412I54847179I52853197I51697380I50386540I48033751I44720593I41535131
1405I39685320I39408821I39931582I40528778I41265644I42660645I45088927
1398I48509536I52254414I55138763I56077960I54646041I51492007I48320439
1391I46580394I46253346I46652712I47411281I48389184I49333475I49844327
1384I49715307I49300658I49288285I49989623I51059626I51934511I52396269
1377I52831694I53936234I55992278I58601783I61217243I63576979I65567388
1370I67012871I67850506I68437116I69378033I70875918I72461007I73606767
1363I74352898I75017184I75631119I76072234I76478546I77119344I78039419
1356I79070385I80016000I80730438I81210060I81608169I82015408I82361379
1349I82638804I82951230I83192067I83002110I82283438I81545181I81496285
1342I82305603I83336569I83680687I83003036I81758692I80538497I79481793
1335I78528172I77875068I77806456I78297591I79079119I79936273I80792831
1328I81638009I82455265I83179032I83709005I83931779I83757768I83236066
1321I82557555I81888373I81382814I81299315I81746914I82514019I83449444
1314I84540487I85372631I85293234I84402734I83624845I83699809I84683666
1307I86135567I87265515I87361188I86534337I85648204I85241163I84968634
1300I84377592I83778941I83778610I84186510I84219394I83758364I83457913
1293I83600166I83857146I84130867I84616841I85132985I85286618I85282185
1286I85989874I88176724I91711598I95401229I97887602I98938947I99371461
1279I99544413I98837386I97019069I94920085I93089064I91173619I89405719
1272I89147150I90829302I92924051I94178652I95232511I96823091I97987973
1265I97526083I96053340I95183483I95490351I96238665I96524229I96043548
1258I95119304I94476257I94640476I95385349I96132340I96780745I97600980
1251I98453039I98715247I97884890I96035608I94004508I93045396I93708888
1244I95131809I95954425I95719080I94948403I94196317I93454156I92418030
1237I91125915I90086479I89697568I89797806I89966260I90090118I90429341
1230I91124988I91836449I92118373I92063259I92206966I92864570I93857690
1223I94766187I95279156I95462232I95667803I96094825I96686661I97468983
1216I98546926I99768577A000782869A001393099A001585835A001283598A000388797
1209I99248065I98671910I98985130I99468457I99407983I99158678I99422738
1202A000173434A001010076A001848836A002626990A002908451A002358563A001368023
1195A000817341A001176015A002128247A003151075A003951790A004249594A003730141
1188A002431410A000902163I99912615I99904940A000428694A000328389I99111436
1181I97753554I97309991I97513313I97631283I98054799I99863919A002976865
1174A005695341A006311394A004659546A002090665A000409109A000830177A003418774
1167A007133018A010237032A011182911A009916071A008059048A007159152A007158557
1160A007013658A006258198A005219160A004036745A002377618A000399516I99266988
1153I99791138A001141213A001940539A001925520A001795707A002247540A003643599
1146A005778047A007496390A007316292A005275796A003607870A004415467A007350565
1139A010381666A012075198A012510821A012447304A012433078A012618139A012821725
1132A012759862A012474299A012223074A011860033A010972113A009982168A010303130
1125A012541786A015451807A017590622A018613384A018477946A017128599A015443007
1118A014811274A015314649A015555751A014612253A013151685A012355402A012614368
1111A013595446A014927392A016381807A017637069A018304332A018212100A017486414
1104A016504938A015820142A015845218A016520421A017451943A018372018A019226194
1097A019918864A020323920A020408477A020158378A019721034A019646070A020365272
1090A021376125A021738041A021252200A020416615A019644482A018672204A016456970
1083A012095576A006136391A000671648I97955023I98800929A002202615A006407067
1076A010163061A013072090A015271709A017031734A018380355A019013345A018817036
1069A018325968A018289048A019101740A020602271A022126622A022953671A022840663
1062A022114183A021345425A020933422A020808570A020559993A019920055A019097505
1055A018605709A018757886A019468883A020433421A021401928A022288922A023018379
1048A023515998A023876988A024285683A024834976A025529366A026357672A027335972
1041A028470154A029607181A030503106A031217081A032020047A032900159A033615192
1034A033932184A033793173A033474462A033374753A033625977A034130808A034827382
1027A035657607A036493588A037262809A037963154A038600842A039136439A039328513
1020A038776574A037427756A035880777A034995372A035229923A036184139A037020451
1013A037502455A037925044A038269560A038180371A037474732A036231248A034580656
1006A032556371A029935618A026278606A021438054A016413897A013057401A012005263
999A012508704A013875650A015835558A018063429A020061183A021611271A022797921
992A023605121A024012558A024253460A024632845A025293227A026107705A026757633
985A027149985A027437070A027460228A026741820A025312150A024070386A023772383
978A024410402A025600161A026733814A027311954A027026854A025407227A022291966
971A018241212A013421170A007646119A001480369I95841219I91067889I87158858
964I83847685I79701589I71538020I56003394I34508126I09952181H80860104
957H46734012H09761482G70367947G28227949F86795110F49352154F12564618
950E70450424E28681472E04685572E01388128E09303913E22080231E36964500
943E52215978E66687483E79219260E88764861E95773076F01500886F06874257
936F13390741F23180487F36634258F51202164F64656928F77275842F89492282
929G00528689G09708800G17471548G24763540G32202680G39804054G47473048
922G54945005G61751089G67609640G72645243G77242511G82044093G87865724
915G94684709H01306262H07053459H11962027H16194203H20209625H24213931
908H27639303H29941609H30626803H27883647H20451388H14895934H15627442
901H20209757H27140891H34723937H40020690H42011695H41353694H39476029
894H38726458H41720640H50004428H60925643H69658156H75782685H81163532
887H87033860H93450238H99674476I05250176I10211544I14462112I17673643
880I19316162I18128652I12870208I04809723H95981206H86313136H74722408
873H60213454H42316379H21473951G98962604G76597810G56605588G41119327
866G31484934G28209555G31226101G39768855G52121129G66102955G80091000
859G93344030H05580120H16635781H26351224H34524784H41055891H46129605
852H50119289H53441909H56684271H60361067H64221930H67835075H71128715
845H74052366H76476348H78444394H80182255H81970004H83993363H86256963
838H88802355H91818437H95029306H98000662I00609439I02854182I04859213
831I06785642I08716636I10677470I12610978I14271031I15396744I16329523
824I18082470I20563749I22648309I23961663I24658171I25125619I25646461
817I26011488I25910587I25471325I25326625I25949360I27373670I29559131
810I32181405I34685842I36901407I38924766I40790853I42512637I44106724
803I45501327I46767837I48612884I51404406I53881186I55311385I55512391
796I53937822I49860934I43300384I35792764I28072692I16795978H95530299
789H62104023H30866581H22232983H35813789H58341281H80438839H98419215
782I11515105I20518360I26808366I31122981I33044117I31467166I26088105
775I18276992I09116994H98381501H85456644H70624281H56047642H44445799
768H37595650H36885579H41994823H46490793H44860250H39841121H34987336
761H32247223H32501293H34799629H36349850H34903837H30430495H24322771
754H17246738H06316194G85202229G53410135G25054860G11515207G10916755
747G18827379G31889262G46539343G60738715G74538590G87879420H00060528
740H11527264H23945835H37450354H50013559H60772209H70149026H78333106
733H85342842H91382748H96862444I02393416I08388463I14433265I19686283
726I23743984I26583541I28324578I29245580I29661420I29692120I29117553
719I27662476I25484360I23120257I20184762I12886617H93627027H55407903
712H00348076G45370623G12779137G12393004G36502078G68272404G93470998
705H07801376H13942181H16825472H22130165H33438505H49984050H67623483
698H82002424H92026655H99210072I04959253I09863786I14091925I17769250
691I21120584I24306377I27218714I29480065I30715610I30985625I30913374
684I31328817I32868584I35645483I39112142I42529905I45484124I47832216
677I49500870I50499283I51064588I51737078I53131416I55439082I58243307
670I60981832I63430095I65629053I67583601I69106893I69730422I68773692
663I65885769I61669010I57552754I54885819I54098005I54738009I56219551
656I58243241I60598412I62977600I65116878I67025310I68994348I71310284
649I73986614I76844433I79731297I82535985I85123127I87359600I89001590
642I89346370I86806734I78281513I58771295I23693104H75192172H26912691
635G98474049H00913513H28048924H63976395H96295882I20232532I33910996
628I33194044I11821312H68712144H16047120G75453505G62164680G73896469
621G96403251H17741247H35166376H51091237H66956418H81795133H94256578
614I04140673I12118123I18900719I24959084I30519831I35514479I39719593
607I43073508I45770019I48109443I50377806I52809132I55528866I58468992
600I61350762I63841502I65786192I67276667I68522864I69718049I70971194
593I72254311I73417471I74303407I74842776I75037430I74904904I74448240
586I73657515I72557077I71270586I69970862I68760194I67679473I66782952
579I66007246I65007972I63296444I60330911I54831234I43354639I19595109
572H76899731H14677990G43773492F83204791F48615948F43229742F59278463
565F85820516G14643504G41560971G65218145G85538474H02769213H17357497
558H30027953H41418072H51614130H60248985H67078491H72340507H76548930
551H80134022H83379428H86493234H89580906H92723560H96140397I00085090
544I04582516I09421017I14317147I18968669I23101796I26660953I29936265
537I33413973I37449707I42089518I47162108I52444039I57737484I62949546
530I68114964I73216996I78045242I82357938I86087731I89325793I92230852
523I94959187I97586623A000156694A002785717A005483220A007815631A008927978
516A007861350A003617529I94861728I79729775I56041239I21662798H74996327
509H16544474G51899679F93133812F54255232F42128378F51539732F70541943
502F90591530G10594934G32383837G54992644G73891375G84263694G84753505
495G79252902G75215910G79017292G92095451H11268299H32152410H51947993
488H69820456H85918998I00425040I13111641I23296848I29380356I27408142
481I11149417H77464109H33814514G97454927G83131629G91475495H10274914
474H24403755H22759053H00785618G63362842G25328514G03680407G05893789
467G26114475G52364745G75863655G94190994H08879053H22142339H35148247
460H47813542H59510463H69813509H78678151H86279856H92887580H98769486
453I04125521I09082192I13692030I17962448I21915279I25549530I28794408
446I31604324I34026055I36028837I37265706I36907494I33478946I24928649
439I09747602H89374474H69711418H58653111H60564058H73230346H90437861
432I06794111I20038341I30242273I38135033I44224231I48841083I52343669
425I55024895I56989633I58028142I57092783I51325605I35545113I04464281
418H58684671H09309251G73368349G61802830G72034286G92138854H10764262
411H23480041H32283481H40751537H49723761H57064979H60430539H59320176
404H55004965H49574098H45072636H42800302H43030420H45346753H49149987
397H53877135H59069282H64487049H70100660H75885901H81683580H87218060
390H92174862H96287942H99370652I01326722I02133260I01608845H98936021
383H91442428H72280033H31374984G65922129F93175032F45370674F44322572
376F83326136G37314968G85828404H22683163H49924965H70156172H84631249
369H94515146I01505232I07074910I11750383I15440147I18137849I20121443
362I21737232I23171931I24470331I25727049I27015856I28179878I29070510
355I29922040I31138728I32795473I34562909I36064897I37251348I38439387
348I40004826I42049291I44268627I46118372I47300522I48068156I48825667
341I49656090I50532034I51624864I53037464I54531710I55794580I56770829
334I57576375I58254952I58788101I59209962I59400580I58691832I55778635
327I48693868I33964126I05454358H56196180G85523521G06082025F40579083
320F08104641F13104847F46481567F94033509G43291157G86449882H20692357
313H46478421H65369675H79090550H89346884H97509527I04381973I10176014
306I14533768I16859099I17187404I16931614I18239675I22041123I27047019
299I31220573I33907291I36077335I38802363I41956463I44486373I45750698
292I46190821I46664621I47603553I48899175I50280612I51699297I53257128
285I54779957I55872521I56411360I56524434I56094567I54479109I50427562
278I41378653I21583335H82612322H22497374G57794752G18903402G25204390
271G67790598H21012855H65892569H98179966I20608145I35645086I44268032
264I45371580I35275495I12430152H84632109H67128511H69634535H87570912
257I08600518I24359507I33443284I36901010I34167911I21320863H91514348
250H41041004G79412754G30568299G17448457G43502485G91117416H38166975
243H73331510H96548033I12000153I23559850I33313735I41613601I48084763
236I52668600I56031315I59153259I62442268I65476677I67677355I68818418
229I68814118I67230286I63053887I55332955I44719270I34355750I28417274
222I29098828I35090633I43201602I50992271I57623549I63167093I67875649
215I71748157I74522741I76175648I76939378I76785547I76056487I77178428
208I82457250I88756717I92737800I94736943I96183286I97737609I98974279
201I99139821I97557643I92527994I79919732I55423268I21623695H91830611
194H81330662H93183796I16731402I39539362I56581799I68718445I77491979
187I83598379I87827379I91234026I94473743I97500014A000034555A002023178
180A003452253A004332564A005156900A006519149A008046477A008466485A006628650
173A002138965I95481419I87652838I79663479I72919523I69526836I70824508
166I75837484I82173341I88139474I93428022I98216503A002295443A005236693
159A007116411A008487261A009679402A010635405A011230086A011355864A010857252
152A009266936A004641615I91277496I59352413I03135842H35506987G87969998
145G85242523H22307550H72462977I14538995I45039569I67744975I84223364
138I94900368A001444310A005822509A009312391A012757612A016582681A020200259
131A022212238A022081300A021105977A020975701A022032801A023520100A024576473
124A023683260A016823584I98938484I71597435I47598260I41689293I56259183
117I80165398A001169068A014886635A022736322A027256377A030300446A032596136
110A034091771A034963415A035850673A037184008A038868673A040610637A042239857
103A043739728A044952182A045503128A045296763A044817604A044896670A046193747
96A048550109A050935120A052475218A053271169A053856059A054455835A055210236
89A056582674A058806377A060864670A060351304A054319405A039839828A014927855
82I81654417I48903079I29216997I29035179I41692601I53274992I54472824
75I44855038I29846414I16260646I09325013I12257464I25251926I43938668
68I62521466I78028767I90591773A001460057A011024316A018388956A022758487
61A024535783A024454864A022078124A015984162A005209831I90812959I76903252
54I68885178I70034974I79478749I93127241A006911170A017985224A023611076
47A020821671A007369223I84940713I62327870I50664495I54197052I68415216
40I85155150I98455355A006928571A012360629A017506991A024007728A031072976
33A036148609A038246799A039267378A039815678A039799931A040983934A044963165
26A049800210A051854799A050181712A046857107A044377019A044371196A047314233
19A051525765A052957619A050235106A047265603A045562610A043292989A040918697
12A042143126A049344804A060505599A070344173A073741823A070519508A065353892
5A062664792A063577656A065607962A064331527A059617348
##END=


$$ === CHEMSPECTRA PEAK TABLE EDIT ===
##TITLE=X8526
##JCAMP-DX=5.00
##DATA TYPE=INFRAREDPEAKTABLE
##DATA CLASS=PEAKTABLE
##$CSTHRESHOLD=0.93
##MAXX=3997.453
##MAXY=0.9672945698035412
##MINX=373.96442
##MINY=0.4516821485292586
##$CSSOLVENTNAME=- - -
##$CSSOLVENTVALUE=0
##$CSSOLVENTX=0
##NPOINTS=39
##PEAKTABLE= (XY..XY)
433.45875946836395, 0.8564187256385987
449.0406102814991, 0.8728330697076121
474.5381843393275, 0.8191775047039725
484.45390758404983, 0.8369336692989754
541.115183268178, 0.8483332958159682
577.9450124628615, 0.7073961470128303
611.9417778733664, 0.8764674629366203
647.3550751759185, 0.7939584221205848
688.4345000469116, 0.836377021380126
722.4312654573882, 0.6463229630294745
740.8461800547302, 0.781164225929691
759.2610946520717, 0.6476336695398446
825.8380935809223, 0.5478191353934361
906.5804114308053, 0.5804465391467305
940.5771768412819, 0.7592478360167075
960.4086233307271, 0.6862801885290541
990.1557930648942, 0.773529049371133
1036.9013455043, 0.6339198324849509
1048.2336006411256, 0.7054945201413668
1072.3146428068803, 0.6983635396386257
1087.8964936200155, 0.5784698703648761
1175.721470930414, 0.5794620487393763
1255.0472568881937, 0.6866061659033036
1272.045639593432, 0.7193159427922803
1376.8689996090693, 0.641768691108563
1432.1137434010943, 0.6404387926070889
1450.5286579984358, 0.7497409547601992
1459.0278493510555, 0.7539194793137833
1487.3584871931193, 0.7407194937672344
1597.8479747771694, 0.6560172409625449
1638.9273996481625, 0.7555778595893977
1651.6761866770912, 0.7341098158129442
1714.0035899296322, 0.4516821485292586
2361.3586646207973, 0.8462789023529047
2858.5613587490225, 0.8147102561749432
2878.392805238467, 0.8034856286541908
2920.888762001564, 0.7645143835898138
2939.3036765989054, 0.7915544477647345
2966.217782548866, 0.7545934286390193
##END=


$$ === CHEMSPECTRA PEAK TABLE AUTO ===
##TITLE=X8526
##JCAMP-DX=5.00
##DATA TYPE=INFRAREDPEAKTABLE
##DATA CLASS=PEAKTABLE
##$CSTHRESHOLD=0.93
##MAXX=3997.453
##MAXY=0.9672945698035412
##MINX=373.96442
##MINY=0.4516821485292586
##NPOINTS=162
##PEAKTABLE= (XY..XY)
3994.6199362157936, 0.8593044249168589
3986.1207448631744, 0.857962008920248
3973.3719578342457, 0.8581510154394736
3959.2066389132133, 0.8580979672049563
3943.624788100078, 0.8581584061217407
3932.2925329632526, 0.8585652080477113
3922.3768097185302, 0.8592969738767527
3899.7122994448787, 0.8577757446288162
3878.4643210633308, 0.8578338584175007
3869.9651297107116, 0.8581048813305536
3858.6328745738856, 0.8590357271319058
3851.5502151133696, 0.8560883961938918
3837.3848961923377, 0.8585488762974894
3816.13691781079, 0.85836547224694
3804.8046626739642, 0.8587941489348327
3799.138535105551, 0.8587135045557657
3776.4740248319, 0.8594858011241876
3763.725237802971, 0.8607662287191897
3748.1433869898356, 0.8598130306983824
3733.9780680688036, 0.8577087483282896
3721.229281039875, 0.8596879800661471
3705.6474302267397, 0.859994526720526
3699.981302658327, 0.8604433503145891
3685.8159837372946, 0.8607078158438997
3673.067196708366, 0.8607386316737766
3656.0688140031275, 0.8621498312836418
3646.153090758405, 0.8602824173974465
3627.738176161063, 0.8610660396188988
3617.822452916341, 0.862693366236733
3609.3232615637216, 0.8620803918419269
3599.4075383189993, 0.8628516163830575
3592.3248788584833, 0.8625318973059447
3583.825687505864, 0.8634119596430404
3579.576091829554, 0.8632578813945193
3565.410772908522, 0.8645254338516666
3552.6619858795934, 0.866520163140358
3542.746262634871, 0.8652852741836543
3528.5809437138387, 0.8663381302037054
3510.166029116497, 0.8687960473512999
3500.250305871775, 0.8681495752566621
3490.3345826270524, 0.8688074910174187
3477.5857955981237, 0.8693527547271251
3457.7543491086785, 0.8720760905173699
3435.0898388350274, 0.8729153239293427
3406.759200992963, 0.8665190307552275
3392.593882071931, 0.8722931706386786
3374.1789674745896, 0.8746093477610979
3358.597116661454, 0.8769923410113898
3351.514457200938, 0.8762441839751507
3337.349138279906, 0.8790942396972701
3324.6003512509774, 0.8791128956747285
3318.934223682564, 0.8799031932930116
3306.1854366536354, 0.8781105843901673
3290.6035858405003, 0.8796500525158681
3283.5209263799843, 0.8799868186286391
3265.106011782643, 0.8784679730649152
3253.7737566458172, 0.8785982099669958
3241.024969616888, 0.8771800962315334
3232.525778264269, 0.8774179187296337
3219.77699123534, 0.8774844970296031
3212.694331774824, 0.878414985188237
3202.7786085301013, 0.8784227929701981
3190.0298215011726, 0.8777133190027729
3177.281034472244, 0.8774379458209891
3165.9487793354183, 0.8762795293455492
3156.033056090696, 0.8763256039974934
3148.95039663018, 0.8753528563428636
3136.2016096012508, 0.8758901915549308
3116.370163111806, 0.8734647595368524
3103.6213760828773, 0.8735474912161162
3095.1221847302577, 0.8726828066150394
3078.1238020250194, 0.8697442969301652
3066.791546888194, 0.8680274452231482
3025.7121220172007, 0.8611028155601701
2966.217782548866, 0.7545934286390193
2939.3036765989054, 0.7915544477647345
2920.888762001564, 0.7645143835898138
2878.392805238467, 0.8034856286541908
2858.5613587490225, 0.8147102561749432
2780.6521046833464, 0.858008143029168
2774.985977114933, 0.8580135067690775
2750.904934949179, 0.86350518097422
2740.9892117044565, 0.8623240555374699
2725.4073608913213, 0.8554354874311899
2692.8271273729474, 0.865201052476542
2680.0783403440187, 0.865640099902399
2667.3295533150895, 0.8675808873002092
2655.997298178264, 0.8678849304555608
2641.831979257232, 0.8678868375831034
2624.8335965519937, 0.86907261237519
2612.084809523065, 0.870584424899365
2593.6698949257234, 0.872902389334512
2580.921107896794, 0.8719665374359685
2568.1723208678654, 0.8730239238974045
2555.4235338389362, 0.8733296354515321
2538.425151133698, 0.8736390432476564
2525.676364104769, 0.8737199867133292
2507.2614495074276, 0.8768377267492229
2495.929194370602, 0.8770884234843149
2488.846534910086, 0.8768557872560598
2473.2646840969505, 0.876733657222546
2457.6828332838154, 0.8762341105220656
2447.7671100390926, 0.87474619970217
2429.352195441751, 0.8752270300673529
2425.1025997654415, 0.8751605121252227
2416.6034084128223, 0.8750757535036015
2361.3586646207973, 0.8462789023529047
2341.527218131352, 0.8524448835260015
2330.1949629945266, 0.855178948597792
2274.950219202502, 0.884193952797952
2260.78490028147, 0.8808699213792711
2239.5369218999217, 0.8840165097596601
2228.2046667630957, 0.8861114943199432
2211.2062840578574, 0.8862500155606547
2205.5401564894446, 0.8859611114125555
2195.6244332447222, 0.887604531051845
2174.3764548631743, 0.8910863360601805
2161.6276678342456, 0.8965242467453695
2153.1284764816264, 0.8958871328183804
2137.546625668491, 0.894598122699005
2121.9647748553552, 0.8915821874195273
2110.6325197185297, 0.893713351549597
2044.0555207896793, 0.8984399396959306
1902.4023315793588, 0.8990210253327052
1714.0035899296322, 0.4516821485292586
1651.6761866770912, 0.7341098158129442
1638.9273996481625, 0.7555778595893977
1597.8479747771694, 0.6560172409625449
1525.604848279906, 0.8335927692155638
1487.3584871931193, 0.7407194937672344
1459.0278493510555, 0.7539194793137833
1450.5286579984358, 0.7497409547601992
1432.1137434010943, 0.6404387926070889
1376.8689996090693, 0.641768691108563
1342.8722341985927, 0.838625666188373
1306.0424050039092, 0.8595118486847764
1272.045639593432, 0.7193159427922803
1255.0472568881937, 0.6866061659033036
1175.721470930414, 0.5794620487393763
1087.8964936200155, 0.5784698703648761
1072.3146428068803, 0.6983635396386257
1048.2336006411256, 0.7054945201413668
1036.9013455043, 0.6339198324849509
990.1557930648942, 0.773529049371133
960.4086233307271, 0.6862801885290541
940.5771768412819, 0.7592478360167075
906.5804114308053, 0.5804465391467305
825.8380935809223, 0.5478191353934361
801.757051415168, 0.8260300121544178
759.2610946520717, 0.6476336695398446
740.8461800547302, 0.781164225929691
722.4312654573882, 0.6463229630294745
688.4345000469116, 0.836377021380126
670.0195854495696, 0.8792934385835325
647.3550751759185, 0.7939584221205848
610.525245981235, 0.8734111158317137
577.9450124628615, 0.7073961470128303
541.115183268178, 0.8483332958159682
484.45390758404983, 0.8369336692989754
474.5381843393275, 0.8191775047039725
449.0406102814695, 0.8728330697076121
433.4587594683344, 0.8564187256385987
##END=

##END=

