##TITLE=X7821
##JCAMP-DX=4.24
##DATA TYPE=INFRARED SPECTRUM
##DATE=30/10/2018
##SAMPLING PROCEDURE=Diamant-ATR
##ORIGIN=ComPlat
##XUNITS=1/CM
##YUNITS=TRANSMITTANCE
##RESOLUTION=4
##FIRSTX=3997.453
##LASTX=373.96442
##DELTAX=-1.4165319
##MAXY=0.908391
##MINY=0.61604673
##XFACTOR=1
##YFACTOR=8.4600504e-010
##NPOINTS=2559
##FIRSTY=0.88098985
##XYDATA=(X++(Y..Y))
3997+1041352951+1041742070+1041927646+1041535639+1040840185+1040306001
3989+1040023972+1039908921+1040054127+1040488618+1040929944+1041123200
3980+1041147718+1041122495+1040917191+1040386459+1039651199+1039001400
3972+1038694853+1038878880+1039453364+1040056663+1040423800+1040608390
3963+1040702799+1040652072+1040481573+1040373144+1040367225+1040246256
3955+1039814582+1039217624+1038893252+1039123074+1039668249+1039979375
3946+1039739055+1039110815+1038679917+1039114056+1040383500+1041657313
3938+1042262374+1042096948+1041272069+1040007909+1038826462+1038339059
3929+1038705774+1039532061+1040177985+1040190879+1039779496+1039524663
3921+1039443429+1039023311+1038101558+1037275411+1037279357+1038182510
3912+1039539318+1040959605+1042153100+1042627327+1041849230+1039912443
3904+1037819107+1036569812+1036187034+1036381559+1037201575+1038536965
3895+1039830787+1040368282+1039757374+1038678860+1038522945+1039376075
3887+1039888771+1039001963+1037225953+1035738311+1034884476+1034909135
3878+1036152089+1037990593+1039239183+1039238126+1038287205+1037253148
3870+1037091174+1038278116+1039896450+1040401607+1039212621+1037388843
3861+1036467865+1036763984+1037750062+1038860139+1039301253+1037769366
3853+1034445265+1032974391+1034600264+1037360309+1039758994+1041081068
3844+1040960027+1039542981+1037696517+1036286868+1035487776+1035277188
3836+1035851672+1036964638+1037786205+1037858068+1037703280+1038012152
3827+1038714510+1039447516+1040190456+1040671517+1039879893+1037722937
3819+1036212891+1036434892+1037516083+1038556058+1039442654+1040159104
3810+1040399282+1039867353+1038755303+1037957127+1037839045+1037283866
3802+1035309738+1033282770+1033530487+1035850897+1038645606+1040866042
3793+1042200586+1042613448+1042204813+1041442216+1040893519+1040635374
3785+1040433734+1040288035+1040167699+1039727853+1039039797+1038920166
3776+1039676069+1040645872+1041219017+1041168924+1040393928+1039148790
3768+1038166799+1037927888+1038444036+1039549886+1040762826+1041336817
3759+1040880485+1039922589+1039280680+1038917700+1038151792+1036438556
3751+1034179793+1032906121+1033107620+1033529500+1032864694+1031172806
3742+1030232383+1030606002+1031051766+1030520752+1029132874+1028103185
3734+1028350198+1029682417+1031782094+1034313092+1036466597+1037242298
3725+1036281866+1034508885+1033326451+1033305244+1034217416+1035723798
3717+1037520170+1039083408+1039688681+1038873173+1037283725+1036565162
3708+1037129219+1037937540+1038345893+1038483913+1038598542+1038597908
3700+1038357870+1038151440+1038240916+1038542038+1038992381+1039781117
3691+1040839692+1041426928+1040972498+1040176647+1039835789+1039813526
3683+1039633726+1039064527+1038446431+1038328702+1038461086+1037965088
3674+1037275764+1037553565+1037984815+1037378909+1036904118+1038390139
3666+1040923039+1042582800+1042653254+1041699515+1040595638+1039642040
3657+1038760869+1038300873+1038777848+1039651763+1039549956+1037447602
3649+1033997951+1031704806+1031864032+1033810190+1036545224+1039117719
3640+1040896266+1041895660+1042339028+1042046361+1040744367+1038751780
3632+1036645198+1034374317+1031846348+1030513002+1031507323+1033645468
3623+1035635589+1037043194+1037683412+1037417377+1036803509+1036689655
3615+1037016140+1037335720+1037728291+1038394648+1039075588+1039551295
3606+1039898564+1039904693+1039162458+1037726248+1036170407+1035024962
3598+1034236156+1033301651+1031972884+1030761776+1030274514+1030190462
3589+1029639087+1028493995+1028103537+1029617035+1032176427+1034239961
3581+1035199055+1035634955+1036267000+1036898552+1037104771+1037302184
3572+1038049281+1038875709+1038714439+1037185441+1035377726+1034932456
3564+1035947983+1037313809+1038215130+1038568529+1038805748+1039218821
3555+1039455407+1038944613+1037885898+1037337129+1037826011+1038588538
3547+1038513856+1037322052+1035898383+1035546746+1036849868+1039067908
3538+1040631499+1040615718+1039624708+1038789685+1038426775+1038242819
3530+1038056890+1037780639+1037256741+1036612508+1036443911+1037215032
3521+1038537529+1039450686+1039484434+1039116944+1039047547+1039301535
3513+1039376357+1039050999+1038666671+1038685060+1039167672+1039696572
3504+1039779919+1039390166+1039018943+1038985054+1039063822+1039005838
3496+1038954970+1039173731+1039665501+1040238717+1040727669+1041013291
3488+1041027241+1040877103+1040792840+1040801153+1040636924+1040127752
3479+1039444557+1038862816+1038624469+1038953913+1039749483+1040427675
3471+1040517082+1040092243+1039383684+1038481447+1037603446+1037093005
3462+1037011279+1037133305+1037323250+1037614155+1037992918+1038280019
3454+1038244510+1037889420+1037521720+1037347557+1037152892+1036611310
3445+1035730561+1034815431+1034255038+1034337540+1034882151+1035249782
3437+1035113382+1034904204+1035130573+1035606280+1035737325+1035323336
3428+1034764140+1034536362+1034577155+1034305906+1033410221+1032386380
3420+1031926878+1032094911+1032560191+1033120302+1033531473+1033427905
3411+1032849969+1032376798+1032504321+1033245147+1034326761+1035396467
3403+1036059583+1036032669+1035356449+1034379672+1033521046+1033045902
3394+1033077466+1033654275+1034578916+1035396960+1035801086+1035858647
3386+1035713793+1035446631+1035394635+1036061344+1037358407+1038467075
3377+1038799337+1038626865+1038497229+1038583676+1038779891+1038948700
3369+1039050224+1039293855+1039831351+1040252526+1040165726+1040217933
3360+1041372326+1043194836+1044098130+1043350329+1041769476+1040404073
3352+1039560031+1039199094+1039363605+1039929071+1040483334+1040646013
3343+1040262249+1039376427+1038294462+1037443938+1036925677+1036501190
3335+1036169139+1036340906+1037255755+1038541474+1039513743+1039834591
3326+1039821557+1040041445+1040610152+1041061693+1040943541+1040405553
3318+1040064977+1040317203+1040980107+1041667881+1042139291+1042117943
3309+1041352458+1040151988+1039343666+1039478304+1040417671+1041543811
3301+1042126961+1041821401+1040966932+1040130711+1039535372+1039238478
3292+1039427930+1040111265+1040896830+1041410230+1041616943+1041583900
3284+1041306169+1040978768+1041069372+1041781242+1042651000+1043041739
3275+1042894278+1042641418+1042503962+1042293656+1041912217+1041605036
3267+1041562764+1041653156+1041801251+1042219820+1042890121+1043281706
3258+1043024266+1042421601+1041900098+1041367042+1040511868+1039487463
3250+1038959761+1039442654+1040659681+1041707899+1041981614+1041818935
3241+1041979359+1042607741+1043096975+1043019194+1042731388+1042756399
3233+1043014966+1043064989+1042742590+1042250820+1041912076+1041992464
3224+1042463169+1042889981+1042880751+1042636979+1042718143+1043225554
3216+1043608966+1043434944+1042989744+1042857713+1043164329+1043534778
3207+1043657086+1043620380+1043649689+1043681816+1043467494+1043115364
3199+1043154536+1043890642+1044983387+1045752114+1045743518+1045105907
3190+1044466887+1044210857+1044061494+1043725216+1043519419+1043854217
3182+1044547135+1045127678+1045439861+1045591689+1045570553+1045236389
3173+1044618716+1043982374+1043591141+1043610164+1044164286+1045144375
3165+1046049853+1046408254+1046216407+1045735346+1045137612+1044513387
3156+1043900506+1043312283+1042932887+1043054703+1043661877+1044370224
3148+1044796895+1044739052+1044212125+1043537948+1043103105+1042933028
3139+1042815581+1042742943+1042848765+1043060128+1043169613+1043144884
3131+1043158270+1043373085+1043771997+1044157171+1044360220+1044444201
3122+1044576514+1044752016+1044812747+1044706361+1044589689+1044630412
3114+1044744336+1044623296+1044117434+1043518080+1043314608+1043669416
3105+1044223820+1044473228+1044342606+1044247422+1044442863+1044620619
3097+1044456390+1044177743+1044172107+1044379524+1044468790+1044334504
3088+1044170980+1044237629+1044579755+1044890670+1044809013+1044381286
3080+1043970749+1043716972+1043415851+1043012219+1042886810+1043341381
3071+1043928617+1043734727+1042427237+1040670601+1039478657+1039445895
3063+1040481009+1041945260+1043126777+1043703516+1043659623+1042987207
3054+1041883894+1040945584+1040649183+1040801153+1040830744+1040446275
3046+1039716721+1038634122+1036982251+1034802327+1032676370+1031192956
3037+1030315378+1029667692+1029266173+1029530447+1030670749+1032371233
3029+1034044662+1035244850+1035876402+1036086285+1036046690+1035894227
3020+1035642494+1034951408+1033339415+1030987934+1028945536+1028152010
3012+1028595237+1029677978+1030968277+1032324380+1033689854+1035052792
3003+1036416856+1037707226+1038782991+1039510502+1039852557+1039975641
2995+1040134092+1040352219+1040418868+1040242451+1039954716+1039696008
2986+1039495354+1039235308+1038657794+1037596542+1036168998+1034647327
2978+1033444462+1033206115+1034280190+1036012590+1037176071+1037116467
2969+1036052749+1034471403+1032612609+1030350675+1027406956+1023772222
2961+1019862011+1016296815+1013758913+1012892889+1013922507+1016345076
2952+1019191357+1021613997+1023321174+1024545246+1025489192+1025826527
2944+1024971917+1022771560+1019594708+1015722190+1010959836+1004976439
2935+997742056+989539914+980981203+973203478+967478648+964207739+962604130
2925+961548514+960610839+960339308+961720422+965213332+970258420+975854741
2915+981402731+986780997+991873429+996310426+999645096+1001789512+1003234458
2905+1004653124+1006296681+1007916988+1009138735+1009740273+1009642623
2897+1008742430+1006883565+1004134511+1001071794+998639432+997660682+998418206
2887+1000598905+1003571299+1006686857+1009423933+1011528261+1013092063
2878+1014290842+1015040898+1015068305+1014229617+1012687092+1010886070
2870+1009319098+1008177034+1007276911+1006316831+1005048161+1003276308
2861+1000871986+997783483+994056736+989931147+985818451+982114108+979090071
2851+976926280+975771746+975846005+977436228+980627030+985030772+989854633
2842+994245412+997719934+1000355556+1002472284+1004188479+1005471028+1006443014
2832+1007359906+1008376420+1009502701+1010711907+1012003052+1013365214
2823+1014706240+1015885715+1016808172+1017406751+1017666375+1017806086
2815+1018235857+1019167685+1020446077+1021796896+1023047670+1024144854
2806+1025112473+1025945101+1026494996+1026547767+1026039017+1025203077
2798+1024527280+1024428714+1024892374+1025529492+1025963912+1026069946
2789+1025985753+1026012878+1026335770+1026807038+1027151912+1027292609
2781+1027303670+1027192353+1026875379+1026221493+1025037721+1023157579
2772+1020681535+1018088467+1015964694+1014571673+1013726856+1013042111
2764+1012147554+1010824775+1009222927+1007923892+1007550414+1008265948
2755+1009729775+1011451043+1013111227+1014649172+1016154005+1017662007
2747+1019054606+1020188778+1021079672+1021845087+1022524759+1023115800
2738+1023733965+1024519671+1025402815+1026147164+1026598846+1026740882
2730+1026604835+1026321538+1026144980+1026207895+1026341265+1026347254
2721+1026350706+1026630339+1027166566+1027633607+1027826088+1027866670
2713+1027978692+1028264666+1028731355+1029346632+1029990725+1030468263
2704+1030664690+1030649754+1030540550+1030312771+1029883493+1029407082
2696+1029276460+1029632324+1030062729+1030122404+1029989597+1030161013
2687+1030638692+1030959964+1030957498+1030934671+1031098054+1031303710
2679+1031383112+1031327242+1031131590+1030766849+1030344264+1030090629
2670+1030140581+1030477845+1030980325+1031406714+1031525711+1031404107
2662+1031334710+1031400021+1031403684+1031277853+1031257703+1031619134
2653+1032418014+1033378165+1033980407+1033918267+1033509139+1033367385
2645+1033679920+1034078903+1034168238+1033935246+1033650259+1033516678
2636+1033460314+1033283263+1033041464+1033104661+1033696759+1034562923
2628+1035306709+1035866820+1036340766+1036549099+1036225643+1035568376
2619+1035114087+1035035742+1035038982+1035029471+1035324463+1035997653
2611+1036613494+1036908838+1037156344+1037526229+1037717301+1037542644
2602+1037286473+1037171139+1037003035+1036633151+1036334143+1036411008
2594+1036753205+1037082296+1037384404+1037736887+1037923661+1037647128
2585+1037051367+1036684512+1036921449+1037559342+1038037374+1038091413
2577+1038045899+1038242114+1038515195+1038664981+1038949052+1039514095
2568+1039947600+1040065681+1040455293+1041517955+1042599005+1042744986
2560+1041873678+1040645027+1039611886+1038965116+1038743467+1038859293
2551+1039114408+1039360153+1039434411+1039053113+1038213651+1037549690
2543+1037741255+1038676253+1039612379+1039983039+1039779567+1039408132
2534+1039334014+1039666628+1040162767+1040677929+1041235574+1041649140
2526+1041646393+1041364012+1041124186+1040883726+1040523845+1040415134
2517+1040983630+1041883753+1042254976+1041801815+1041157722+1041120945
2509+1041835915+1042770349+1043311579+1043291922+1042927674+1042350160
2500+1041508302+1040606699+1040212015+1040636220+1041504780+1042136825
2492+1042145068+1041634134+1041056057+1040876891+1041237194+1041976400
2483+1042897519+1043741913+1044040357+1043482853+1042488180+1041903551
2475+1041975555+1042056436+1041624059+1041144054+1041449896+1042560959
2466+1043677941+1044211773+1044288779+1044254045+1044160341+1043889304
2458+1043488348+1043178772+1043056393+1042957335+1042777042+1042762247
2449+1043181802+1043829417+1044239179+1044280536+1044166964+1044005764
2441+1043655748+1042968044+1042018532+1041177238+1040896689+1041288697
2432+1042018814+1042710886+1043241336+1043545769+1043467283+1043021237
2424+1042541162+1042308522+1042286470+1042415753+1042785074+1043259513
2415+1043399294+1043040541+1042562650+1042439355+1042856726+1043708659
2407+1044636541+1045232232+1045354259+1045055814+1044341056+1043341592
2398+1042452389+1041912851+1041566145+1041298631+1041310819+1041732770
2390+1042322049+1042612954+1042089832+1040380189+1037623596+1034416308
2381+1031109538+1027515667+1023532677+1019554338+1015952012+1012603533
2373+1009107453+1005053657+1000249030+995059088+990162871+985912366+982577485
2363+980701641+980279268+980440256+980869322+982434393+985721928+990184007
2353+994999625+999551180+1003070370+1004698849+1003921598+1001052631+997603191
2343+995474134+995307933+996299083+997430930+998446810+999597257+1000741716
2333+1001420191+1001793175+1002506736+1003498168+1004045879+1004015373
2325+1003987332+1004362571+1005259524+1007085768+1010137635+1013672395
2316+1016368397+1017695543+1018225430+1018738055+1019608869+1021023872
2308+1023180195+1025988008+1028829639+1030956441+1032199254+1033154331
2299+1034518185+1036316811+1037908443+1038668785+1038573249+1038237464
2291+1038465806+1039601670+1041262981+1042766827+1043680266+1043869788
2282+1043406481+1042693695+1042316624+1042439214+1042601330+1042294219
2274+1041530355+1040719638+1040169179+1039855235+1039672617+1039734124
2265+1040253724+1041155045+1041967312+1042185649+1041702052+1040784596
2257+1039671560+1038488422+1037602460+1037482477+1038011799+1038643844
2248+1039409823+1040866887+1042794163+1043968001+1043760161+1043070907
2240+1043068300+1043722820+1044221848+1044229668+1044053462+1044007737
2231+1044139980+1044254116+1044057196+1043693018+1043806168+1044528817
2223+1045007271+1044462308+1043022505+1041286865+1039887080+1039528890
2214+1040691667+1043144884+1045945017+1047991290+1048828710+1048958909
2206+1049112217+1049385157+1049379521+1048767344+1047553347+1046257623
2197+1045572596+1045319384+1044394531+1042318878+1040138601+1039303719
2189+1039962466+1040716749+1040324882+1039544813+1040332351+1043045896
2180+1046036115+1048191662+1049809714+1050673765+1049557559+1046471311
2172+1043565848+1042732445+1043426560+1043736206+1042935001+1042159793
2163+1043154254+1046805686+1051804697+1054645271+1053163759+1049496545
2155+1047310350+1048210685+1051099661+1053313968+1052978605+1050772824
2146+1048654054+1047411311+1046617926+1045769375+1044391783+1042473173
2138+1041418685+1042941624+1046652801+1050262242+1052210936+1052675229
2129+1052326199+1051527812+1050532434+1049566788+1048869855+1048872039
2121+1049704456+1050495234+1050164592+1048965954+1048069706+1047730821
2112+1047147953+1046044851+1045188339+1045255975+1045948892+1046340970
2104+1045947061+1045304307+1045188198+1045486290+1045541244+1045374549
2095+1045621421+1046354568+1046896150+1046753269+1046075921+1045296204
2087+1044834024+1044964928+1045450640+1045569637+1045110135+1044935408
2078+1045798614+1047083276+1047657760+1047545386+1047618799+1048033140
2070+1048204555+1048161085+1048785169+1050563223+1052709682+1053702523
2061+1052534250+1049608004+1046642867+1045426967+1046275589+1047488388
2053+1046503860+1042344735+1037292109+1035384631+1038355545+1043874156
2044+1048610936+1051554232+1053337358+1053809754+1052075171+1048762835
2036+1046431434+1046772362+1048741699+1050535393+1051759324+1052518257
2027+1052464853+1051993162+1052440053+1053994626+1054835497+1053309388
2019+1050131690+1047660649+1047603581+1049989161+1053367865+1055423579
2010+1054795268+1052779713+1051682881+1051666536+1051047243+1049221140
2002+1047556729+1047694326+1049673738+1051647654+1051812024+1050516793
1993+1049642738+1050167552+1051342658+1051984496+1051243670+1048521177
1985+1044171121+1040106686+1038666742+1040955659+1046564381+1053826663
1976+1059747356+1061593116+1059556636+1056310598+1053858227+1052285688
1968+1051204286+1050683277+1050712656+1051063800+1051822874+1053329468
1959+1055475151+1057370018+1057824166+1056176030+1052941899+1049849521
1951+1048875491+1050674399+1053814122+1055960440+1055962061+1054493090
1942+1052977408+1052426596+1053194900+1055109353+1057308653+1058557454
1934+1058263590+1056854857+1055146271+1053726336+1052713063+1051749531
1925+1050532927+1049397275+1048835685+1048602622+1048242601+1048215687
1917+1049299837+1050899219+1051390919+1050125913+1048165947+1046913200
1908+1046455106+1046035481+1045543428+1045347847+1045264077+1044771602
1900+1043907763+1043094157+1042435692+1041882696+1041671193+1041996128
1891+1042624720+1043243872+1044022180+1045538285+1047955147+1050427880
1883+1051733397+1051710852+1051390496+1051589248+1052255393+1053105141
1874+1054034151+1054953156+1055712160+1056028006+1055565685+1054606028
1866+1054044014+1054325268+1055104703+1055743864+1055886463+1055666646
1857+1055458313+1055538067+1055941488+1056409586+1056497020+1056014197
1849+1055287320+1054765607+1054620048+1054878897+1055483395+1056168844
1840+1056741073+1057173733+1057375866+1057200153+1056663855+1055865186
1832+1054854309+1053958413+1053884858+1054867131+1056299396+1057467245
1823+1058166926+1058552945+1058701251+1058729997+1058921139+1059310962
1815+1059607152+1059647170+1059460184+1059103827+1058849557+1059056129
1806+1059590595+1059866776+1059512321+1058750710+1058144310+1057984379
1798+1058049620+1057972261+1057501979+1056586567+1055722446+1055735409
1789+1056599742+1057554749+1058015591+1057845444+1057354941+1057049452
1781+1057141183+1057428707+1057710524+1057943586+1057979729+1057644015
1772+1057152526+1056998795+1057364664+1058089920+1058794814+1059066909
1764+1058793053+1058175381+1057545027+1057101799+1056816037+1056652935
1755+1056643776+1056563458+1055866807+1054364229+1052994317+1052903853
1747+1053962006+1055312402+1056409304+1057317741+1058313823+1059291517
1738+1059932580+1060154863+1059915882+1059390223+1059386701+1060130416
1730+1061101557+1062091369+1063045319+1063773745+1064253750+1064533031
1721+1064282355+1063164598+1061630034+1060967271+1061881838+1063754793
1713+1065829952+1067745251+1069320608+1070286606+1070661634+1071297624
1704+1072680641+1073741823+1073097660+1070510932+1066782564+1061518857
1696+1053195323+1041613420+1026631466+1005783633+978108643+949000191+923880294
1686+898363599+864065206+827162823+798861002+776664674+756679272+739523523
1676+728680826+728183278+738487352+757346966+783286669+812126620+836777362
1666+855437802+870832406+885257208+898661339+909806214+918556842+925417324
1656+930706465+935301631+940972987+946979845+951145593+953864493+956210267
1646+959229583+963034394+966674060+969663927+972199012+974586424+977128554
1636+980541287+985113556+989572112+993046422+995636179+997629400+999383358
1626+1001096101+1002649617+1004109711+1005750872+1007308686+1008165762
1618+1008126519+1007842799+1008106016+1008543960+1008418974+1007758395
1609+1007342574+1007698509+1008319915+1008324213+1007311152+1005327301
1601+1002390064+998154002+991962836+983125901+971199900+956341030+939881298
1591+924870176+915536962+914932958+922659533+935394208+949394805+962142584
1581+972430454+980142798+986198270+992177228+998618014+1004014950+1007401826
1571+1009247939+1010689151+1012430921+1013641606+1013136872+1010848025
1562+1007221816+1000561353+985047611+960889697+943153898+934470905+930930016
1553+932781765+940393430+951447771+962077485+969875290+975039868+978760345
1543+981784029+984958064+989903035+995926451+1000618210+1003494223+1005362246
1533+1007436560+1010081694+1012508772+1014160079+1015085284+1015488635
1524+1015333635+1014603729+1013950266+1014196222+1015198645+1016659655
1516+1018668728+1020880216+1022510316+1023022236+1022274576+1020796305
1507+1021032045+1025096902+1028947438+1028080006+1020070133+1004009807
1499+984005240+970184091+968608734+973033049+975471963+973749005+969505687
1489+966681810+968266185+973223487+979192018+984947002+990201409+994816021
1479+998526635+1001106458+1002552954+1003390937+1004934025+1008249320
1470+1012405557+1015749949+1017615085+1018155257+1018094455+1018173294
1462+1018302929+1017754866+1015698518+1012318194+1010225280+1010516820
1453+1010966388+1009851591+1006652193+1002224144+999190314+999634175+1001925277
1443+1002462702+999594087+994457620+988769145+983490924+980200852+980693961
1434+984330316+989677371+996299506+1003575879+1009861454+1013733831+1014903724
1424+1013971332+1011652401+1007715559+1001252228+992674987+983437943+973305777
1414+961831036+951167152+945394061+946626940+952837622+960224749+966279094
1404+970514521+973463383+975515927+976697022+976952489+976386530+975586381
1394+975804437+977913273+981449020+985515075+989742118+994051170+998003301
1384+1001040301+1003087702+1004499605+1005711699+1006909281+1007918256
1375+1008577426+1009178682+1010137071+1011316053+1012298889+1012960314
1367+1013420591+1013759194+1014066657+1014695743+1016046562+1017914586
1358+1019574135+1020556267+1021063820+1021635486+1022486220+1023409805
1350+1024198400+1024847494+1025473833+1026176121+1026875802+1027319241
1341+1027424570+1027610287+1028462643+1029935629+1031453777+1032699690
1333+1033638916+1033984917+1033064573+1030165803+1025001014+1018300041
1324+1012142269+1008982326+1009846166+1013745456+1018757782+1023319835
1316+1026703682+1028811039+1029819873+1029878561+1028878957+1026570523
1307+1023061198+1019118508+1015717893+1013252276+1011322041+1009229902
1299+1006559687+1003346198+999873015+996458028+993400595+990899540+988820083
1289+986688561+984229567+981917611+980757723+981495590+984141710+988124982
1279+992723812+997358081+1001633456+1005313562+1008389242+1011100956+1013679863
1269+1016031344+1017862661+1019109560+1019997495+1020666387+1020926504
1261+1020471934+1019311764+1017922265+1016850445+1016188668+1015562048
1252+1014567657+1013119258+1011467318+1009988413+1008862695+1007912972
1244+1006769218+1005068945+1002457629+998561087+992988368+985322030+975296039
1234+963165650+949848108+936750100+925525964+917733866+914330433+915306436
1224+919687139+925872599+932285556+938049558+943171864+948069913+952869186
1214+956972934+959181604+958451627+954908272+950207776+946706905+946037097
1204+948294873+952450969+957362264+962372406+967174779+971373570+974349486
1194+975627104+975297378+973914502+971945588+969429948+966163197+962086714
1184+957475484+952857138+948929948+946688658+947407150+951936583+959655831
1174+968309867+975282723+979280931+980924558+981783254+982729878+983216928
1164+982316734+980206629+978142813+977175688+977466312+978648322+980162314
1154+981135850+980290611+976170024+967822394+955838832+942776827+932060666
1145+926228745+926185909+931568543+941090082+952664234+964018499+973675380
1135+981335729+987392892+992285657+996267308+999488617+1002009822+1003671556
1125+1004035945+1002294035+997049843+987027516+973375809+960972410+955552788
1115+958853005+967446591+976271337+982257552+984837798+984434870+981278802
1105+975813455+970045084+967417916+970181061+977096497+984531745+989596419
1095+991837991+992540420+993164715+994306285+995645690+996709197+997583464
1085+998818245+1000774337+1003234176+1005577555+1007264722+1008281447
1077+1009141905+1010305105+1011660926+1012788828+1013602504+1014447673
1068+1015592836+1016910190+1018119960+1019129639+1019973470+1020594947
1060+1020934325+1021073824+1021027254+1020610094+1019809312+1019003456
1051+1018565724+1018516617+1018678803+1018919615+1019252793+1019885684
1043+1021042754+1022637556+1024274983+1025573525+1026335065+1026539030
1034+1026356272+1026085798+1025972649+1026112782+1026483794+1026969717
1026+1027432602+1027883015+1028483004+1029201285+1029603156+1029313237
1017+1028623208+1028278687+1028623349+1029072424+1028366332+1025578316
1009+1021402634+1018240718+1018248327+1021274830+1025179193+1027906970
1000+1028867614+1028820691+1028991895+1030037506+1031497741+1032264494
992+1031524725+1029302809+1026485556+1024442664+1024132877+1025089082
983+1025341801+1022956291+1018213241+1013952239+1012987157+1015319756
975+1018603910+1020904452+1021867139+1021475907+1019198473+1015043223
966+1010737694+1008989442+1011278430+1016456817+1021574543+1024014655
958+1023076204+1020162005+1017695614+1017300013+1018506119+1019306339
949+1018074658+1014705606+1009889002+1004059970+997822233+992772425+990384027
939+989984410+989428526+988272231+988796974+993172465+1000831123+1009301625
929+1016526567+1021684874+1024742588+1026097212+1026211136+1024977271
921+1021509372+1014716597+1004022770+989547664+971763111+951295097+929648806
911+910346034+898429826+897550698+907201168+923130238+940392866+955854755
901+968425482+978013248+984812998+989266340+992032515+993615692+994100699
891+993395523+991572801+988767454+984844350+979337929+971568094+960690100
881+946062037+928189276+909437456+893489786+883740610+881785505+886905696
871+896647757+908103264+919198469+929157669+938005877+945866809+952709536
861+958499677+963359611+967515143+971147059+974398311+977484559+980605048
851+983686787+986446550+988885042+991499247+994720063+998267363+1001375523
841+1003567072+1004937760+1005869799+1006748222+1007701750+1008412633
833+1008511903+1008236427+1008211627+1008453426+1008019710+1005848099
824+1001786412+996712509+991738298+987530137+984436139+982755171+982389372
815+982550431+982280943+981073498+978725118+974753612+968046579+957212760
805+941687393+922415973+900921722+878220872+855975227+838577115+832172050
795+840211865+860265961+885650483+909804030+929130544+942970858+952288290
785+958339817+961696398+962079528+958969255+952299845+942991712+933193218
775+925633548+922252449+923319408+927647553+933448051+939229737+944353170
765+949012661+953705266+958545191+963014033+966497784+968981930+970920831
755+972480899+973210382+972484844+970162038+966771992+963033971+959296656
745+955725330+952953590+952056284+953749300+957909341+963932052+971194757
735+978950783+986145640+991747316+995090793+995613493+992236621+982569172
725+962140612+925938897+874291287+818745373+778596530+767050982+781682285
715+809765346+839379378+864733041+884941221+900687955+912349119+920146712
705+924499587+925723941+924463655+922817703+923758901+928725221+936532538
696+944867979+952123780+957844453+962257495+965765341+968660729+971118032
686+973350375+975530370+977418896+978502623+978920980+979748043+981827641
676+984875491+987837951+989234354+987501603+982524856+978138093+979469185
666+983021840+981525744+972393958+957005202+939656338+925793197+919383129
656+921127647+928489270+937721946+945904150+951623625+954467299+953892463
646+948484043+936334702+916238122+888825645+857213319+826980910+804852853
636+796043325+801521354+817451974+837955779+858116754+874122760+882134112
626+879019048+865378966+847496622+834583980+833042582+843235620+860925271
616+880688673+898605257+913098893+923887269+930918321+934884120+937824527
606+941863599+947397286+953140293+957792246+961267331+964383170+967685642
596+970804933+972946602+973772818+973776271+974045195+975603642+978548559
586+981594155+982530210+979212450+970402147+957040218+943461642+935202573
577+933929183+935925574+937103992+937868561+941158915+947833962+956045263
567+964086417+971627134+978257442+982910311+985347605+986827637+988425610
557+989828636+990644144+991536658+992863734+993400666+991887661+989179611
547+987411139+987436855+988522978+990163082+992580226+995380923+997265222
537+997514419+996514673+994413023+990395722+983884764+975742155+967603493
527+960234613+952592019+941779617+923560432+894343762+856187928+821171395
517+805256204+813464334+836369432+861929315+884745780+904894496+922621629
507+936163991+943523501+942968321+931065570+905896567+874924459+852623296
497+848764728+862039928+883202339+903696563+920604595+934718129+947121106
487+957612729+964872616+968338401+970011126+972929904+977841269+982626521
477+984922484+984687449+983686294+983230385+983379043+983343041+981536242
467+976698501+970526076+967246853+968861453+972842822+975604558+975883487
458+973293236+966694422+956853021+947723278+943375758+944583485+949475686
448+956911780+966483200+976382584+983805996+987005605+985878055+980757934
438+972185555+962970422+958164245+959698386+963586614+965454427+965943802
428+967764128+970189657+970351913+968315785+967001813+968530318+974274523
418+984300866+994588806+1000665555+1000654212+995602713+989647146+986708147
408+986763735+987522316+988879617+992977518+999549067+1003555659+998714184
398+986569000+979407678+981633469+983829598+978950148+968097800+954692823
388+940644529+929338243+927821716+939642951+957564468+972148637+980228048
378+981706882+976565695+967721574+962416158
##END=
