##TITLE=NiW-a495
##JCAMP-DX=4.24
##DATA TYPE=INFRARED SPECTRUM
##DATE=7/12/2017
##SAMPLING PROCEDURE=Diamant-ATR
##ORIGIN=Angelika Moesle
##XUNITS=1/CM
##YUNITS=TRANSMITTANCE
##RESOLUTION=4
##FIRSTX=3997.453
##LASTX=373.96442
##DELTAX=-1.4165319
##MAXY=1.0186754
##MINY=0.42197752
##XFACTOR=1
##YFACTOR=9.4871544e-010
##NPOINTS=2559
##FIRSTY=0.99957108
##XYDATA=(X++(Y..Y))
3997+1053604740+1052270930+1051220342+1050861350+1051062081+1051394749
3989+1051573616+1051638076+1051759897+1051982806+1052158910+1052112041
3980+1051892839+1051811290+1052095140+1052540833+1052662905+1052260249
3972+1051718432+1051678537+1052454446+1053690373+1054558072+1054487204
3963+1053738184+1053070211+1052895427+1053064305+1053325601+1053483610
3955+1053288219+1052688539+1052065800+1051904964+1052371327+1053236638
3946+1053983019+1054056841+1053274649+1052050031+1051072448+1050722126
3938+1050953580+1051499606+1051991853+1052138051+1051998073+1051952210
3929+1052129507+1052162177+1051785908+1051291839+1051103233+1051136091
3921+1051008176+1050622420+1050201607+1049988562+1049991829+1049941756
3912+1049601612+1049108611+1048816027+1048798122+1048787693+1048598584
3904+1048337288+1048200263+1048247383+1048459423+1048772928+1048989492
3895+1048866603+1048427821+1048195048+1048756028+1049833757+1050691781
3887+1051171777+1051311315+1050792932+1049653381+1048739002+1048821745
3878+1049633842+1050395239+1050687383+1050323051+1049503414+1049059104
3870+1049563665+1050421815+1050804618+1050681540+1050264685+1049664627
3861+1049184820+1049069407+1049119040+1049047795+1048983712+1049430221
3853+1050434254+1051083191+1051067233+1050872031+1050728974+1050493186
3844+1049962614+1049187207+1048479653+1048113185+1048095908+1048230546
3836+1048334838+1048327864+1048111615+1047617797+1047036524+1046814683
3827+1047246114+1048045144+1048590228+1048697411+1048700866+1048783923
3819+1048880173+1049244003+1050067284+1050736702+1050537227+1049587413
3810+1048388680+1047557609+1047778947+1048913597+1049814658+1050013567
3802+1049970531+1049771810+1049153281+1048598521+1048833368+1049671601
3793+1050272224+1050304077+1050057797+1049884835+1049884898+1049847390
3785+1049455603+1048794792+1048444031+1048730646+1049188464+1049186579
3776+1048863650+1048615799+1048325979+1047815764+1047466133+1047780832
3768+1048580239+1049376944+1049998363+1050390904+1050524976+1050544075
3759+1050619719+1050708744+1050599740+1050068477+1048962665+1047488500
3751+1046409514+1046173474+1046190437+1046178249+1046632486+1047632750
3742+1048129897+1047593860+1046565513+1045681039+1045333670+1045568516
3734+1046006104+1046241767+1046302646+1046497409+1047029237+1047737984
3725+1048105269+1047784853+1047058137+1046452048+1046242018+1046434896
3717+1046834222+1047143330+1047277465+1047449987+1047704623+1047692309
3708+1047326847+1046801176+1046197663+1045803739+1046248741+1047616666
3700+1048803651+1048818289+1047884747+1046840128+1046248175+1046064973
3691+1045936869+1045801729+1046037580+1046629156+1046928463+1046593596
3683+1045914063+1045420496+1045315073+1045355031+1045446695+1045846336
3674+1046251882+1046016722+1045566694+1045837980+1046835542+1047576834
3666+1047704372+1047615095+1047628415+1047697084+1047563452+1047080189
3657+1046279589+1045198278+1043928928+1042758781+1042016044+1041946244
3649+1042575139+1043434985+1043930499+1043984278+1043952237+1044149199
3640+1044511771+1044700880+1044560399+1044298286+1044142979+1044005137
3632+1043776511+1043832929+1044638430+1045585228+1045729604+1045359680
3623+1044990636+1044596336+1044034665+1043513078+1043330064+1043378441
3615+1043363174+1043136558+1042736415+1042384900+1042358827+1042701232
3606+1043117522+1043348912+1043463697+1043637412+1043898709+1044129534
3598+1044211711+1044144801+1044068529+1044068215+1043929179+1043383404
3589+1042563579+1042029363+1042215644+1042840079+1043283384+1043206296
3581+1042630112+1041879522+1041406185+1041473913+1041952401+1042379936
3572+1042321884+1041778999+1041246103+1041371254+1042251142+1043002674
3564+1042818027+1041862433+1040772955+1040137526+1040261420+1040917268
3555+1041419505+1041232344+1040516246+1039940250+1039961360+1040444497
3547+1040874043+1040846274+1040507575+1040331661+1040480623+1040670548
3538+1040521083+1039992711+1039517238+1039459187+1039543500+1039233953
3530+1038530671+1038012728+1038119156+1038646712+1039040195+1039031777
3521+1038859632+1038806543+1038765517+1038464452+1037875766+1037209677
3513+1036687525+1036470584+1036669870+1037258808+1037971074+1038410546
3504+1038367322+1038000728+1037622448+1037352419+1037108715+1036805073
3496+1036522165+1036563756+1037155646+1038005314+1038486315+1038344893
3488+1037936393+1037729505+1037871431+1038214904+1038456221+1038312160
3479+1037817148+1037363351+1037315289+1037668815+1038089565+1038239030
3471+1038064748+1037802635+1037644878+1037487183+1037177510+1036870727
3462+1036866392+1037222117+1037693003+1037891410+1037592669+1037140756
3454+1037235876+1037994948+1038687738+1038658649+1038003869+1037217845
3445+1036674268+1036575379+1036979355+1037675726+1038284705+1038632073
3437+1038864532+1039096551+1039218749+1039235398+1039448695+1040032794
3428+1040786777+1041484153+1041995374+1042049782+1041459463+1040557397
3420+1039931518+1039817236+1040100521+1040609794+1041103172+1041286249
3411+1041129937+1040997058+1041254773+1041835480+1042323078+1042478763
3403+1042488061+1042616165+1042891408+1043282316+1043803966+1044177031
3394+1043863965+1042877461+1042101928+1042333130+1043384221+1044525405
3386+1045368602+1045984869+1046483650+1046843646+1047036022+1047091623
3377+1047047959+1046914075+1046696821+1046399902+1046038271+1045731363
3369+1045694672+1046006104+1046470770+1046811102+1046873615+1046671501
3360+1046352970+1046046564+1045693730+1045190174+1044577488+1043882813
3352+1043025103+1042090117+1041349893+1040831196+1040207264+1039197325
3343+1037796416+1036149288+1034390330+1032590848+1030774843+1028954565
3335+1027035713+1024708235+1021601581+1017496611+1012303232+1005986763
3326+998652690+990510478+981621256+971785990+960714357+948201984+934210670
3316+919006487+903337700+888358751+875179535+864374350+855957145+849783858
3306+845812018+843946505+843841145+844979690+846852177+848899384+850431727
3296+850963115+850632961+849951354+849145665+848122218+846956469+845882761
3286+844793409+843218847+840802030+837411337+832930412+827330795+820824966
3276+813647395+805921095+798046775+790961182+785658359+782631369+781952652
3267+783591863+787392061+792930045+799644144+807040729+814683156+822172159
3257+829347532+836409439+843637775+850964874+857926887+864097096+869510117
3247+874516210+879249824+883514499+887234844+890624155+893777489+896509633
3237+898737782+900716257+902782375+905068890+907480492+909850251+912188912
3227+914806523+918048631+921848829+925644503+928786277+931032079+932658976
3217+934134964+935678678+937041514+937569887+936452703+933037381+927076323
3207+918705861+908170077+895748488+882100334+868396389+855801335+844954308
3197+836122761+829564975+825488528+823873380+824514275+827104493+831283976
3187+836764599+843322071+850562595+857885485+864789320+871102774+876890745
3177+882252751+887216813+891778282+895988989+899939091+903629656+906921963
3167+909708640+912146692+914664095+917643399+921109170+924779568+928318155
3157+931443154+933946735+935802824+937203419+938459827+939867270+941437183
3148+942615686+942547771+940722090+937016384+931185628+922874663+912128661
3138+899466885+885585581+871362625+857943725+846368788+837050020+829676995
3128+823526640+817940908+812826941+808804588+806781883+807371260+810646918
3118+816194703+823121030+830072175+835651184+839259509+841612180+844214838
3108+848212437+853767007+860387557+867558721+874945945+882168312+888700591
3098+894204208+898812294+902862856+906413632+909229901+911153026+912175844
3088+912121876+910495984+906728142+900429516+891560901+880870250+870275158
3078+862202557+858075221+857583226+859441073+862439477+865697983+868553141
3068+870752201+872621044+874747852+877532582+881084552+885323531+890019449
3058+894830339+899406446+903431375+906688373+909258675+911503221+913594533
3048+915248571+916251411+917069414+918494952+920735100+923229005+925368254
3038+927029328+928326511+929250063+929795776+930185427+930697213+931394464
3029+932174394+932972733+933820893+934772529+935812687+936843171+937754786
3019+938467366+938893268+939019424+939067172+939415358+940287392+941543989
3009+942705843+943160268+942533635+940927533+938643972+935747976+932186331
2999+928294407+924878143+922752590+922323610+923528689+925943118+928909857
2989+931747424+934030357+935706196+936858877+937431040+937328507+936683214
2979+935741505+934534478+932905320+930800437+928286930+925397594+922173203
2969+918695872+914878145+910442581+905320448+899886819+894625524+889688666
2959+884837629+879634638+873670186+866915941+860076377+854394897+850853859
2949+849554541+849861763+850967513+852245219+853265839+853658317+853029171
2939+851093103+847863686+843583367+838441820+832510981+826011875+819494297
2929+813575333+808519795+804232188+800649685+797953038+796425344+796333366
2919+797892096+801090854+805592449+811017910+817223867+824064122+830978010
2910+837138983+842096008+846093984+849701681+853314090+857057178+860890673
2900+864636400+868092245+871243569+874262956+877296543+880335469+883196973
2890+885571508+887272289+888513493+889726111+891001053+891945966+892213105
2880+891957086+891573152+891138203+890399299+889312523+888327526+887961875
2870+888172030+888310437+887710065+886147000+883701032+880421102+876261661
2860+871185517+865253547+858796032+852499856+847135588+843258176+841362570
2850+842131066+846082550+852898303+861350502+869998344+877898359+884777944
2840+890806918+896278117+901362743+906070158+910364425+914191010+917404406
2830+919893976+921834881+923606531+925385720+926989057+928211161+929181331
2820+930256421+931658084+933346991+935126117+936681392+937688315+938147830
2810+938499345+939146083+939950578+940375538+940063729+939192386+938292394
2800+937779100+937674116+937741027+937736252+937480359+936818794+935633254
2791+933971991+932233451+931091827+930986279+931708157+932674997+933530320
2781+934293161+935096337+936061921+937372108+939174041+941315802+943346926
2771+944891771+945921815+946612280+947120045+947587036+948157502+948857643
2761+949569406+950180773+950721585+951345014+952146494+952952875+953379405
2751+953212977+952676940+952219750+952084107+952126955+952023856+951586269
2741+950850380+949945864+948994040+948086320+947254432+946534124+946094274
2731+946139195+946623589+947246892+947780228+948243198+948747571+949327398
2721+949959749+950630549+951307130+951911397+952413068+952917440+953566252
2711+954383187+955251577+955967362+956329558+956325348+956195108+956180596
2701+956293369+956435860+956592550+956810245+957109237+957469799+957837461
2691+958140600+958347990+958498272+958672930+958880635+958936174+958585538
2681+957866801+957195561+956953804+957106535+957329696+957435307+957552165
2672+957889418+958429854+958936676+959179187+959078539+958757872+958508638
2662+958549727+958760071+958793997+958452974+957826843+957161885+956702371
2652+956540781+956529032+956394018+955969749+955326467+954766053+954641279
2642+954996690+955438047+955550255+955357629+955210426+955379555+955931551
2632+956755334+957528479+957905753+957926926+958005397+958437833+959145010
2622+959886930+960490694+960870922+961012847+960969183+960855341+960854398
2612+961124930+961639480+962223454+962778465+963324806+963810708+964054475
2602+963952005+963657599+963448638+963412072+963392533+963312932+963346921
2592+963603882+963816990+963582584+962831365+961925028+961319001+961167715
2582+961238332+961241348+961169662+961147547+961100239+960911508+960819027
2572+961247819+962261213+963482941+964532398+965314841+965951967+966612841
2563+967345588+967976180+968300051+968393160+968484385+968533515+968312679
2553+967939426+967828851+968011049+967996850+967445985+966544045+965686587
2543+965132581+964885798+964726030+964561549+964732878+965485416+966221305
2533+965970124+964652522+963217498+962467348+962340312+962383977+962347851
2523+962170240+961883374+961789008+962341631+963525475+964651769+965124665
2513+965100791+964992980+964730176+964060318+963192242+962531871+962185507
2503+962287726+963281958+965221984+967267558+968491987+968857450+968963690
2493+969175101+969362136+969270535+968882203+968490416+968498584+969057804
2483+969867263+970391112+970341290+969945042+969706427+969894592+970278401
2473+970386777+970031617+969520711+969300252+969434952+969556522+969326074
2463+968838853+968543191+968811460+969595537+970458902+970944741+970959316
2453+970819464+970873055+971051295+970925264+970309877+969625757+969410324
2444+969552061+969320545+968256764+966809048+965873308+965878774+966558810
2434+967417713+968089770+968382166+968312114+968064451+967797312+967622842
2424+967723616+968214984+968912549+969423078+969443874+968963752+968338376
2414+968126461+968571840+969205761+969215687+968372616+967363620+966971707
2404+967208438+967598654+967937541+968278313+968552552+968706980+968913491
2394+969285551+969663013+969847472+969813232+969627579+969339770+968990705
2384+968702519+968714330+969192756+970024015+970942227+971764189+972298530
2374+972263598+971639227+970886814+970473792+970422525+970547173+970801496
2364+971198623+971633007+971846680+971544673+970801433+970250568+970369876
2354+970748784+970609686+969831891+968929135+968385684+968411003+968935166
2344+969600249+970085648+970453185+970816888+971067064+971186749+971369135
2334+971636085+971765006+971713551+971711100+971790388+971643499+971130268
2325+970539508+970160412+969850300+969262430+968319088+967227160+966254477
2315+965671194+965702671+966373534+967395661+968257266+968548468+968295842
2305+967888851+967636225+967531744+967401755+967081214+966535187+965993998
2295+965841957+966260634+967133108+968262544+969427602+970326023+970813181
2285+971161178+971789885+972738065+973638874+974231393+974657609+975157207
2275+975717181+976201386+976578723+976832669+976871621+976708963+976521614
2265+976453447+976520232+976697906+976988416+977374235+977732096+977855110
2255+977730902+977681269+977946209+978283651+978291127+977971842+977664368
2245+977525019+977428768+977389376+977726881+978578120+979476855+979792811
2235+979508583+979216125+979405107+980108766+981231919+982764576+984437211
2225+985517327+985383255+984272291+983102269+982460306+982154717+981974530
2215+982243554+983004951+983351566+982487761+980936319+979814737+979431934
2206+979381233+979431683+979609734+979867386+980226126+980842393+981487812
2196+981421341+980413036+979546216+980144766+982099618+984027329+984859469
2186+984797459+985050588+986595496+988653070+989251242+987984908+986627160
2176+986375791+986401738+985799167+985228890+985852696+987636659+989177672
2166+989085380+987486881+985896046+985749032+987590607+990860108+993722241
2156+994410318+993017953+990966160+989207892+987812260+986832227+986500627
2146+986520732+986134662+985141875+984174721+983824211+984016586+984412017
2136+985020682+986114118+987667633+989210594+990180323+990154690+988981590
2126+987115889+985559295+985001708+985296742+986056820+987179281+988400443
2116+988955517+988265492+986744960+985568782+985571609+986471099+987259197
2106+987275218+986601590+985518458+984176857+982955380+982569122+983501973
2096+985590709+988189032+990403484+991303790+990483965+988572149+986843284
2087+986204525+986662972+987647277+988590620+989187536+989308163+989048501
2077+988948669+989602192+990769889+991462679+991133153+990224051+989495198
2067+989401461+990069371+991297319+992527842+993130350+992831170+991879660
2057+990767627+989819887+989238677+989334299+990189559+991222744+991672897
2047+991536626+991443580+991716687+992214714+992817662+993523017+994294152
2037+995131883+996074220+997071657+998169176+999692158+1001801689+1004023618
2027+1005489176+1005416485+1003411686+999831130+996067749+994109755+995203442
2017+998651057+1002458228+1005426475+1007595880+1008762069+1008444983
2009+1007449871+1007374228+1008123687+1007920380+1006143264+1004495006
2000+1005122833+1008371790+1012354310+1014409183+1013188774+1009839735
1992+1007204595+1007277600+1009515612+1011965099+1013034158+1011918544
1983+1008839597+1005707436+1005289261+1008480354+1012912714+1015364274
1975+1014937555+1012756966+1010167251+1008446428+1008621777+1010158266
1966+1010862114+1009427843+1007167528+1006382069+1008001615+1011007243
1958+1013513023+1014225980+1013142597+1011133399+1009076140+1007563085
1949+1007008388+1007371086+1007964421+1008188461+1008249340+1008602678
1941+1009125647+1009591067+1010274119+1011332246+1012235819+1012458477
1932+1012310646+1012587209+1013755157+1015741988+1018046471+1019783251
1924+1020079291+1018997729+1017693071+1017194164+1017502077+1017905488
1915+1017882870+1017555857+1017392822+1017624778+1017938032+1017922011
1907+1017690557+1017628799+1017733971+1017638034+1017136175+1016297376
1898+1014943963+1012279170+1007276344+999478296+989453984+979026074+971370580
1888+969356419+972975613+979927071+987806543+994875990+1000319796+1004232956
1878+1007047403+1009219824+1011198236+1013094283+1014627568+1015713276
1870+1016784094+1018294510+1020037197+1021434462+1022315167+1022964669
1861+1023733102+1024824716+1026279845+1027874009+1029184197+1029987624
1853+1030406301+1030667597+1030977459+1031451926+1031968235+1032342808
1844+1032626156+1032906426+1033092205+1033205104+1033446673+1033977810
1836+1034759437+1035504121+1035864746+1035714905+1035125213+1034212279
1827+1033168539+1032170098+1031235551+1030451788+1030114220+1030393296
1819+1031183279+1032291981+1033526903+1034714390+1035804684+1036846602
1810+1037900771+1039015756+1040058742+1040748704+1041087843+1041390290
1802+1041742748+1041877700+1041658623+1041275066+1041003529+1041001016
1793+1041116492+1041001016+1040675386+1040490047+1040559596+1040768432
1785+1040930085+1040911048+1040773395+1040594088+1040224981+1039497511
1776+1038382589+1036798100+1034673741+1032438619+1031096013+1031452994
1768+1033519175+1036392051+1038944825+1040676202+1041399714+1040954462
1759+1039732483+1038477017+1037701045+1037682385+1038476514+1039925486
1751+1041719879+1043237709+1043781537+1043321834+1042358638+1041249182
1742+1040196332+1039517427+1039390894+1039657845+1040223850+1041125664
1734+1042160169+1042996517+1043649915+1044260088+1044873088+1045393984
1725+1045666337+1045796451+1046059569+1046451608+1046820840+1047135414
1717+1047308752+1047430762+1047847994+1048512826+1049259207+1050229628
1708+1051461973+1052678172+1053668007+1054056841+1052994756+1048421476
1700+1039283963+1025345612+1002661598+966122101+920610012+876035108+835773068
1690+802609186+782215959+775075518+774875164+773411051+764386249+747954872
1680+726838133+702556750+675376545+645414876+616220447+592909612+575447563
1670+561220963+551553445+549353631+553987036+564758357+582326017+604536569
1660+626765969+646940183+665002603+682065576+703326629+733769047+761149921
1650+776395758+786727292+797624580+808070836+814801835+818440882+821200607
1640+824050677+826541566+827005918+823203899+815853805+809774193+807361020
1630+807655300+808738558+808848441+807312203+804371349+800376263+795538169
1621+789119166+777617611+753635535+712009842+660672336+609686033+560729345
1611+516381277+484049503+469291295+470938611+484427280+505776227+531931540
1601+560343149+589400679+618662458+648111084+676421541+699567457+712068333
1591+710170905+694486223+670929232+648593530+635366691+634947260+646402763
1581+665306056+687415897+712915551+744553624+778032833+804600541+825126647
1571+846002634+869730639+892043159+909400664+923175351+934603274+943294780
1561+949583291+954610934+956203527+949190185+931500138+901079584+855616436
1551+794889609+724521399+656605377+598938335+549349045+505635118+472491309
1541+457333084+463844002+482035437+499799493+517430702+539070976+563549069
1531+584834687+601306524+615773436+630060286+643509155+655307692+666620201
1521+678452979+689261807+698292515+707401881+717673541+728421239+739231576
1511+750139105+761121083+773845246+791869090+812172099+826832517+836675636
1502+845173322+853640851+862123647+870056772+876061433+878694373+876421053
1492+864636338+833397780+774974932+698870018+626032468+571746506+541771707
1482+534430912+542812682+558740126+576819384+594863961+612604081+630345582
1472+646387999+657890308+665154329+670579979+676092895+682348799+688685749
1462+694310748+699395186+704994049+712378194+720849933+728100635+733977631
1452+739393040+744727591+750071566+755689339+761813873+768380518+775223977
1442+781924317+787626279+791393807+792116753+788957702+783908824+780945729
1432+782574071+789604942+800694732+812599320+823223626+832459777+840305888
1422+846486714+851612617+857049387+863290213+869536756+875150383+879334703
1412+879556607+871124700+848838756+809269192+752833930+689242080+639563827
1402+621061558+634092189+664743568+688311617+679827438+632625563+567308304
1392+515965615+493066169+493652687+508658401+530682295+553958450+575813026
1383+596203929+615297838+632784703+648681801+663669735+678627135+693716408
1373+707892495+720314461+731536940+742335716+752609638+762202833+771673956
1363+781463798+791120071+800087826+808504340+816603579+823733025+827861052
1353+825763961+813574139+788328618+751199870+709292336+672448382+647449895
1343+635106400+632021610+633689030+636508629+639478446+644413796+653617465
1333+667587921+684811354+703144368+721056884+737735358+752579670+764979772
1323+774635605+781964212+787999344+793822560+800076266+806942657+814442341
1313+822582983+831263934+840158056+848517775+854989300+857686575+853796598
1303+839123552+811633046+778972908+758963992+766071009+797388477+835896648
1293+865783741+880135492+876679710+853298257+809894317+752317745+692243373
1283+642211532+610012103+596529748+597636754+607684186+622042219+638024888
1273+654691236+672090018+690379997+709287247+728262916+746974399+765407057
1264+783680198+802043558+820799584+839849891+858209608+873695443+882521712
1254+878900759+855846696+808796672+741075099+665882428+600583765+557107009
1244+536943602+534062433+541198790+553603793+568935578+585780982+602965588
1234+619667999+635488951+650218919+663602887+675350095+685353234+693853181
1224+701385347+708567253+715873808+723540046+731628667+740088469+748681274
1214+756984574+764563357+771053605+776076535+779216802+780126406+778627487
1204+774790787+768938293+761486797+752778265+743103207+732811505+722150068
1194+710851129+698250044+684574120+672296027+665342244+666048479+672931393
1184+681897640+689572988+695363598+700861875+707828851+716654681+726328357
1174+735513555+743467099+750062519+755350327+759377957+762338602+764647482
1164+766757768+768951110+771358126+774075631+777126683+780378467+783673098
1154+787028671+790555761+794191479+797672391+800782438+803488446+805838415
1145+807872178+809653063+811307792+813035274+815045854+817409017+820012617
1135+822742374+825593198+828533612+831394802+833995701+836299430+838347329
1125+840060926+841125901+840628503+836212603+824501898+804787199+782890089
1115+768762818+768388685+779161326+793770980+806695748+816298618+823119460
1105+828151563+832148597+835357532+837555084+838311769+837406373+835395731
1095+833806341+834341499+837635816+842839813+848457587+853500119+857847349
1085+861822330+865731281+869713425+873762416+877863114+882139098+886769173
1075+891815789+897263240+902955463+907749013+907884467+896449508+867097887
1065+821628206+773705582+741416499+734080353+747119466+769114773+791153180
1055+809571514+823791140+834314170+842064344+848127621+853457649+858502317
1045+863125167+867103290+870533250+873609873+876344467+878690918+880721728
1035+882604455+884486240+886430851+888536802+891070602+894233360+897790670
1026+901138641+903741739+905431148+906338868+906646782+906483495+905949720
1016+904919425+902562293+896293133+880286590+847304152+797187935+744318652
1006+710788805+708509202+730549179+760641590+786834411+805350252+817131197
996+824720598+830934345+837959625+846780052+857066162+867557150+876972734
986+884819410+891421803+897408306+903236863+909006678+914524996+919502064
976+923693232+926731970+927503481+923319538+909707132+882405734+842177746
966+798019320+762279356+740664652+729645857+724546655+725628593+734276372
956+748229802+764073875+781202188+800355844+820354772+838536562+853264896
946+864640233+873485287+880348035+884832603+885678062+882591324+878248241
936+877016273+881007778+888390604+895779776+901021469+903409197+902551676
926+897841308+888693680+875230047+859251651+844720153+836578506+838012525
916+848300960+863484850+879251772+893149851+904634757+914066927+922015696
907+928943595+935004925+940102053+944246604+947764647+951062483+954328779
897+957562029+960755886+963994225+967439263+971133283+974773776+977903612
887+980402292+982611907+984964201+987578608+990166250+992301289+993772062
877+994512286+994234278+992348535+988033975+980050400+966605553+945620058
867+915397031+875934209+830448821+785459952+748689504+726152002+720190881
857+729227243+749011051+774468235+801240884+826614571+849662791+870532685
847+889511935+906664185+922012429+935803389+948543195+960764116+972806421
837+984792181+996556478+1007514268+1016666797+1022518851+1022508547+1011944680
827+983914744+933211537+863070445+785407115+710230401+637528368+564722986
817+499079688+455907201+444788292+461902155+495053974+532463306+567351214
807+598010761+625645958+651898653+677439082+702001991+725182901+746919174
798+767380506+786895290+805913367+824539217+842316907+858992742+875152331
788+891577048+908263312+924470272+939331359+951755210+959517572+958338441
778+941561831+901679139+835132299+748121803+657178984+581845958+535248727
768+520137401+531007486+558218099+591802354+624363728+652218629+674607923
758+692220567+706304927+718317201+729419681+739955527+749576806+757862640
748+764616132+769687564+772753883+773278486+770759890+765166619+756869602
738+745931602+731998151+715288955+697089698+678882211+661596203+645885385
728+632395931+621448633+612892392+606443987+601901806+599062543+597779936
718+598046824+599674726+601944466+603821476+604623207+604590097+604822430
708+606525913+610280310+615943130+622880390+630211259+637118487+642742983
698+645682141+644612831+640239780+635824006+634760853+637978710+644097087
688+651417652+659098842+666838901+674363150+681439508+687991892+694014269
679+699471772+704415415+709130872+713869197+718453409+722620829+726715809
669+731514700+736830779+741607744+745788482+749604826+752847689+755564252
659+758489776+762265848+766768574+771381497+775500729+778768596+781189308
649+783227092+785664578+789024487+793043258+796894408+799953063+802241148
639+804222890+806325762+808659522+811193133+814039622+817034507+818937904
629+818012467+814275222+810615819+810424763+814204856+819679573+824810377
619+829389563+834043889+838883491+843354427+846939883+849675042+851899987
609+853502947+853199682+848201505+835300674+813970450+788827399+768043453
599+758503032+761777371+774086437+789605759+803904170+815207947+823687539
589+830464590+836815300+843181528+849009519+853987215+858682692+863420453
579+867561799+870443785+872075771+872393611+870560140+865546570+857232276
569+847087840+838182723+834043701+836556203+844698101+855483872+866138712
560+875434297+883294543+889626154+894062032+896984603+899907740+903953842
550+908430180+911623974+912651065+912078777+911289611+911680016+914056875
540+918474470+924505832+931368956+937899413+943065714+946816090+950116313
530+953973117+958545392+963198210+967243055+970598189+973618016+976503897
520+979503620+983580946+989836473+997765640+1005353784+1011379240+1016578462
510+1022534935+1030255769+1039638997+1048930623+1054056841+1050005274
501+1028087997+978526476+890965556+765652583+627229567+518079953+469025161
492+478852228+522429790+574014235+620585897+659169459+690607304+716456463
482+737899399+756000897+772165260+787321381+801184214+813192969+823621005
472+833225006+842402037+851192055+859424990+866557012+872184901+876953320
462+882230322+888804066+896375687+903897989+910100050+914547991+918105992
452+922032660+926788577+931964741+937175712+942174078+946441643+949593532
442+951743210+952911974+953120056+953591382+956379002+961809175+967798443
432+972655574+976565027+980109834+983266561+986143960+989492937+994153797
422+1000445764+1007936778+1014890749+1018986358+1020656103+1022349407
414+1025436334+1029296405+1031577453+1030413401+1026707443+1023493481
405+1023473314+1027335773+1033572138+1039367585+1042457464+1043986038
397+1048074484+1054056841+1068501072+1073741823+1070229057+1060688700
388+1045923989+1023519366+991683326+956630937+931473877+924330545+935172923
378+961078752+997421853+1032615790+1054056841
##END=
