##TITLE=X7879
##JCAMP-DX=4.24
##DATA TYPE=INFRARED SPECTRUM
##DATE=30/10/2018
##SAMPLING PROCEDURE=Diamant-ATR
##ORIGIN=ComPlat
##XUNITS=1/CM
##YUNITS=TRANSMITTANCE
##RESOLUTION=4
##FIRSTX=3997.453
##LASTX=373.96442
##DELTAX=-1.4165319
##MAXY=0.93149716
##MINY=0.46971631
##XFACTOR=1
##YFACTOR=8.6752433e-010
##NPOINTS=2559
##FIRSTY=0.88608503
##XYDATA=(X++(Y..Y))
3997+1021395022+1021803758+1022436752+1022680111+1022278108+1021426078
3989+1020569100+1020212788+1020622898+1021564041+1022538163+1023318670
3980+1023973031+1024408906+1024295609+1023507407+1022382955+1021449232
3972+1020982920+1020939223+1021201132+1021690461+1022218814+1022477770
3963+1022365572+1022204455+1022427820+1023064524+1023666669+1023685838
3955+1022921820+1021755251+1020877799+1020688925+1021032664+1021471081
3946+1021642504+1021507220+1021475340+1022006442+1022815256+1023163118
3938+1022917767+1022427751+1021750648+1020873952+1020386478+1020945544
3929+1022135679+1022872970+1022626932+1021786306+1021218790+1021292856
3921+1021455347+1021049840+1020175205+1019648295+1020113988+1021384235
3912+1022859916+1024155516+1025039220+1025064092+1023783126+1021443461
3904+1019153951+1017966701+1018123970+1019477627+1021495884+1023138040
3895+1023638361+1022984824+1021843608+1021324942+1021873083+1022628168
3887+1022603915+1021621273+1020304099+1019241208+1018635216+1018920348
3878+1020286991+1021889023+1022590792+1021900359+1020320726+1018852054
3870+1018326861+1019074045+1020488988+1021552360+1021677887+1021050596
3861+1020351988+1020011065+1020073245+1020379401+1020445360+1019400470
3853+1017456279+1017099211+1018973115+1021609868+1023840084+1025013524
3844+1024774219+1023154804+1020802222+1018626490+1017288154+1017254969
3836+1018593167+1020516128+1021815507+1021817499+1020979004+1020280189
3827+1020252913+1020909954+1021892664+1022454478+1021850616+1020440550
3819+1019543929+1019454885+1019810442+1020698063+1021965012+1022802477
3810+1022595189+1021468264+1020401594+1020544778+1021482142+1021454866
3802+1019632561+1017649276+1017839319+1020066443+1022761871+1024695481
3793+1025559535+1025685131+1025388868+1024875424+1024366239+1023966848
3785+1023665638+1023513934+1023428806+1023052981+1022361449+1022021420
3776+1022444722+1023250032+1023961489+1024321855+1024118895+1023408057
3768+1022745519+1022663758+1023310219+1024491285+1025577399+1025727798
3759+1024586100+1022914744+1021836943+1021378739+1020634234+1018769743
3751+1016191666+1014831756+1015276219+1016030068+1015801000+1014791425
3742+1014520996+1015174052+1015356193+1013900163+1011075566+1008904644
3734+1009145186+1011334247+1014332122+1017443362+1019955001+1021153519
3725+1020901572+1020025975+1019609544+1019913365+1020467208+1020961346
3717+1021471081+1021860372+1021567819+1020237866+1018707701+1018621474
3708+1020084375+1021695614+1022430912+1022212493+1021583553+1021174612
3700+1021189727+1021484272+1021968104+1022624321+1023433204+1024335665
3691+1025092674+1025306077+1024910327+1024368506+1023930639+1023485833
3683+1022974312+1022430087+1021894519+1021306185+1020365660+1019103245
3674+1018643392+1019416066+1020175549+1020180152+1020580506+1022557744
3666+1025116034+1026645237+1026446194+1024971269+1023233405+1021852883
3657+1020972545+1020827506+1021392618+1021745357+1020841866+1018514911
3649+1016062085+1015405525+1016932048+1019711024+1022475365+1024166990
3640+1024730041+1024969552+1025174572+1024711421+1023230382+1021342256
3632+1019639157+1017888169+1016134570+1015848614+1017436973+1019378896
3623+1020758662+1021573934+1021881053+1021658856+1021315529+1021202506
3615+1020991783+1020544297+1020435672+1021021465+1022001976+1023229557
3606+1024606163+1025407625+1025003974+1023675326+1022256122+1021329408
3598+1020913252+1020709124+1020391975+1019948955+1019646371+1019389889
3589+1018727008+1017881023+1018294637+1020636502+1023463091+1025143929
3581+1025307313+1024785968+1024558824+1024710597+1024800808+1024844437
3572+1025155472+1025525732+1025302573+1024242911+1023075036+1022745107
3564+1023133162+1023635476+1024051013+1024449718+1024838666+1025066566
3555+1024930114+1024454458+1024140469+1024535395+1025392510+1025916741
3547+1025773282+1025337957+1025150181+1025583377+1026768909+1028219305
3538+1028913723+1028320373+1027016665+1025893175+1025239019+1024914793
3530+1024754569+1024595307+1024338550+1024123980+1024297533+1025127096
3521+1026369105+1027218525+1027079188+1026343478+1025973493+1026243647
3513+1026409711+1025791695+1024730178+1024177571+1024509011+1025161999
3504+1025435451+1025248569+1025052343+1025122905+1025284984+1025325795
3496+1025284159+1025306832+1025435383+1025588667+1025679909+1025762151
3488+1026063086+1026702195+1027350579+1027429179+1026794949+1026026809
3479+1025742982+1025912550+1026211904+1026616861+1027174690+1027571883
3471+1027493214+1027083791+1026610471+1026027290+1025233523+1024423197
3462+1023909272+1023847230+1024249919+1025044648+1026017190+1026823050
3454+1027197913+1027205745+1027198531+1027424301+1027686692+1027482358
3445+1026541353+1025198482+1024186571+1024032325+1024563702+1025153411
3437+1025448780+1025586331+1025739684+1025846523+1025821033+1025723813
3428+1025687330+1025828522+1026100394+1026182361+1025827835+1025331704
3420+1025224385+1025529923+1025798359+1025747517+1025471316+1025177664
3411+1025018952+1025082849+1025384196+1025868578+1026471066+1027166583
3403+1027846503+1028123253+1027555599+1026233066+1024825268+1023898897
3394+1023537500+1023620498+1023973787+1024300762+1024428556+1024508599
3386+1024716368+1025020944+1025430230+1026099981+1026961974+1027610084
3377+1027811531+1027844030+1028037233+1028268911+1028162210+1027566867
3369+1026706936+1026045909+1025932818+1026202560+1026449354+1026798315
3360+1027735405+1029015065+1029625454+1029151379+1028326556+1027865466
3352+1027599778+1027141299+1026644687+1026518542+1026848059+1027331547
3343+1027540621+1027284895+1026848196+1026593295+1026361685+1025800421
3335+1025180275+1025211674+1026094073+1027263528+1027996627+1028043828
3326+1027782881+1027767628+1028077563+1028301822+1028145171+1027785011
3318+1027621764+1027863611+1028386949+1028974322+1029527135+1029871218
3309+1029650395+1028823580+1027974504+1027717884+1028046302+1028492689
3301+1028684655+1028555280+1028179936+1027608023+1026921918+1026357356
3292+1026187445+1026483227+1027064416+1027624718+1027876871+1027692875
3284+1027217563+1026866541+1027094235+1027960487+1028935640+1029425243
3275+1029480827+1029639127+1030114370+1030593255+1030795528+1030743311
3267+1030459484+1029903304+1029326993+1029227162+1029708452+1030274251
3258+1030448010+1030280709+1030048962+1029756821+1029203596+1028443220
3250+1027955266+1028228168+1029143409+1029908938+1029816665+1029104452
3241+1028702656+1029000499+1029400784+1029414937+1029509340+1030235157
3233+1031178498+1031471944+1030879762+1029915808+1029274776+1029373301
3224+1030097675+1030871929+1031196499+1031124564+1031066026+1031185506
3216+1031244113+1031088767+1030963584+1031118792+1031413269+1031577958
3207+1031598433+1031575210+1031402963+1030835927+1029889769+1029079031
3199+1029068519+1030050679+1031569508+1032883040+1033397859+1033027736
3190+1032292026+1031780505+1031558927+1031405711+1031348959+1031528971
3182+1031831967+1032049698+1032195768+1032416316+1032681730+1032763353
3173+1032559776+1032290995+1032242283+1032443524+1032688394+1032740474
3165+1032547065+1032379696+1032546653+1032877475+1032834671+1032190409
3156+1031253801+1030548940+1030505036+1031174032+1032094495+1032705228
3148+1032813166+1032474648+1031820355+1031157131+1030764747+1030606516
3139+1030669795+1031242945+1032339777+1033313624+1033541456+1033154019
3131+1032785546+1032875414+1033363849+1033850704+1034002820+1033842322
3122+1033618819+1033529844+1033624384+1033802747+1033860941+1033650424
3114+1033181227+1032550500+1031889199+1031384962+1031246106+1031565110
3105+1032152208+1032571318+1032576334+1032432462+1032468259+1032515116
3097+1032230534+1031662261+1030976089+1029936283+1028221023+1026089538
3088+1024292998+1023326296+1022985237+1022710616+1022194561+1021492654
3080+1020704384+1019816832+1018813509+1017759413+1016801643+1016071086
3071+1015462895+1014617323+1013285170+1011651053+1010277951+1009726856
3063+1010043662+1010636119+1010939527+1010985835+1010910258+1010354697
3054+1009066654+1007638450+1006920947+1007053207+1007594753+1008271238
3046+1009119146+1010068121+1010812832+1011217652+1011617730+1012420017
3037+1013500566+1014389423+1014978238+1015571314+1016251234+1016660657
3029+1016492738+1015857889+1015073397+1014292478+1013492183+1012794880
3020+1012508992+1012665368+1012849571+1012837891+1013066546+1014046783
3012+1015611851+1017163177+1018396529+1019441350+1020520387+1021763908
3003+1023179882+1024600391+1025707461+1026242960+1026265152+1026193972
2995+1026462477+1027117595+1027883536+1028542157+1029063503+1029490858
2986+1029861462+1030128524+1030123096+1029713605+1028926021+1027831800
2978+1026554613+1025412572+1024654601+1023978940+1022711372+1020540862
2969+1017740312+1014660402+1011378494+1007959516+1004753666+1002164458
2961+1000236207+998682270+997247196+995886324+994723808+993967349+993756900
2951+994048010+994737137+995761828+996865737+997437238+996921114+995382979
2941+993432124+991582611+989890643+988234333+986617804+984975373+982997860
2931+980566058+978187436+976621544+976179211+976581694+977362407+978274487
2921+979390488+980820273+982342124+983528687+984293185+985054866+986268362
2911+987980531+989908575+991833184+993810629+995964512+998140656+999942624
2901+1001110018+1001729889+1002110729+1002586591+1003365724+1004433493
2893+1005651524+1006953308+1008340357+1009710572+1010868553+1011706224
2884+1012263366+1012632870+1012869633+1012915666+1012561140+1011607836
2876+1010148302+1008577463+1007328171+1006683360+1006682947+1007009785
2867+1007099516+1006551787+1005361994+1003773498+1002098568+1000598978
2859+999288194+997955080+996629455+995848261+996128103+997270762+998557156
2849+999612558+1000705542+1002168855+1003925202+1005660662+1007169665
2840+1008526552+1010053418+1011954736+1013920226+1015403395+1016283183
2832+1016877083+1017398016+1017840487+1018302264+1018980260+1019834833
2823+1020565253+1020953720+1021016999+1020814864+1020396853+1019994095
2815+1019936244+1020251195+1020633410+1020894289+1021205804+1021834607
2806+1022811203+1023891751+1024743095+1025141043+1025057840+1024677343
2798+1024329344+1024294922+1024630828+1025171961+1025616631+1025704369
2789+1025504020+1025408587+1025674756+1026151649+1026564301+1026812812
2781+1026933392+1026991106+1027032605+1027026833+1026899658+1026652382
2772+1026395626+1026285077+1026409917+1026733868+1027208975+1027868833
2764+1028657104+1029290578+1029513188+1029409029+1029304595+1029397417
2755+1029555992+1029518341+1029258011+1029035540+1029060617+1029268180
2747+1029472994+1029603537+1029727484+1029877539+1029930649+1029796534
2738+1029687222+1029917045+1030418672+1030754922+1030639220+1030179779
2730+1029636791+1029223109+1029111185+1029351796+1029744729+1030007188
2721+1030123028+1030345293+1030790924+1031219860+1031310552+1031036688
2713+1030688895+1030605485+1030928612+1031553705+1032224556+1032674584
2704+1032763422+1032533118+1032128642+1031678133+1031283276+1031071660
2696+1031131366+1031350127+1031454493+1031333706+1031215806+1031300590
2687+1031359334+1031044383+1030510876+1030285381+1030493425+1030662718
2679+1030394762+1029849026+1029408341+1029195969+1029123484+1029146982
2670+1029272302+1029489003+1029804298+1030184932+1030478241+1030557665
2662+1030467041+1030309291+1030149067+1030077269+1030202178+1030548390
2653+1031037100+1031494549+1031688233+1031528215+1031209004+1031062728
2645+1031319965+1031971647+1032709281+1033124956+1033111215+1032914302
2636+1032744253+1032609244+1032577433+1032870330+1033561999+1034423305
2628+1035187253+1035773939+1036123518+1036055155+1035561361+1035061452
2619+1035027030+1035444079+1035955805+1036417170+1036922232+1037360787
2611+1037438219+1037189364+1037040408+1037256902+1037683570+1038045242
2602+1038172555+1037946029+1037340037+1036568737+1036037429+1036062850
2594+1036618481+1037356802+1037897935+1038064548+1037861795+1037383735
2585+1036825219+1036478594+1036589761+1037095098+1037541141+1037483978
2577+1036995542+1036541529+1036436408+1036709242+1037285278+1037912501
2568+1038178533+1038046204+1038081931+1038696855+1039422053+1039421572
2560+1038544120+1037346770+1036283467+1035454385+1034969934+1034946231
2551+1035229508+1035506739+1035536352+1035162107+1034480263+1033999591
2543+1034192863+1034943001+1035766656+1036351143+1036641566+1036716044
2534+1036768055+1036970739+1037363878+1037958534+1038727361+1039441635
2526+1039832094+1039881769+1039636624+1038934374+1037815281+1036991214
2517+1037259376+1038401279+1039222117+1038909021+1037953381+1037473465
2509+1037959771+1038960963+1039759128+1040045703+1039941200+1039568536
2500+1038887653+1038048883+1037580167+1037888178+1038756286+1039562902
2492+1039818147+1039407075+1038579023+1037825106+1037642621+1038313266
2483+1039705743+1041121717+1041641001+1041005672+1039953087+1039325108
2475+1039117065+1038765081+1038147752+1037832526+1038308251+1039315833
2466+1040145534+1040457736+1040562926+1040841051+1041168300+1041182935
2458+1040934560+1040844486+1041091898+1041521727+1042090480+1042849276
2449+1043523974+1043705429+1043496354+1043449771+1043805534+1044164183
2441+1043986507+1043189236+1042184952+1041499947+1041457417+1042069112
2432+1043003522+1043713192+1043847583+1043563000+1043328229+1043455130
2424+1043833085+1044064008+1043937313+1043721987+1043724460+1043733392
2415+1043367461+1042786203+1042506292+1042703824+1043158043+1043678358
2407+1044261815+1044989005+1045811217+1046334006+1046053202+1044994158
2398+1043774685+1042896340+1042355756+1042020537+1041979175+1042385712
2390+1043136950+1043701100+1043282196+1041422102+1038457481+1035047023
2381+1031302514+1026848471+1021717462+1016600401+1012043230+1007866212
2373+1003523337+998706867+993543910+988297131+982959453+977586322+973100468
2363+970755718+970523352+971173798+972173891+974258174+977983377+982978759
2353+988586042+994093494+998447569+1000496124+999577792+996190557+992310695
2343+989988344+989396642+989420071+989499840+990095388+991626378+993520550
2333+994824326+995548906+996552297+998067071+999366313+999975328+1000272278
2323+1000922655+1002385075+1004892110+1008263886+1011634632+1013949838
2315+1014941687+1015306999+1015885166+1017044040+1018930585+1021757312
2306+1025424458+1029130355+1031842960+1033265118+1034125599+1035423467
2298+1037476282+1039670496+1041007527+1041018451+1040317094+1040100187
2289+1040986434+1042576098+1044099392+1045025214+1045054483+1044222514
2281+1043161547+1042675517+1042900256+1043285494+1043336818+1043021935
2272+1042603787+1042361047+1042304158+1042098862+1041565562+1041196951
2264+1041634200+1042621651+1043135370+1042702244+1041890406+1041283109
2255+1040797010+1040348149+1040231348+1040431559+1040623594+1041181080
2247+1042928907+1045455454+1046888056+1045961410+1043339910+1040353577
2238+1037422485+1034543541+1032564310+1032701792+1034897174+1037649286
2230+1039538854+1040352272+1040929270+1042226657+1044197368+1045744434
2221+1046180240+1045999267+1045739487+1045269809+1044761518+1045124082
2213+1046863184+1049227103+1050988122+1051853069+1052604238+1053641914
2204+1054067964+1052949420+1050812164+1048981202+1048009416+1047382125
2196+1046406216+1045089386+1044100629+1043683992+1042998644+1041079737
2187+1038198114+1035897336+1035830759+1038398943+1042218687+1045366273
2179+1047189609+1048187229+1048414235+1047289989+1045131709+1043506179
2170+1043319985+1043627584+1043152890+1042078113+1041427324+1042058738
2162+1044884571+1049680498+1053192779+1052286196+1048792122+1046833159
2153+1047930953+1050781521+1053253378+1053897022+1052736224+1050862938
2145+1049141976+1047815938+1046744940+1045199797+1042561532+1040074560
2136+1040343203+1044092590+1049007654+1052555663+1054207644+1054448117
2128+1053509516+1051680066+1049735532+1048625989+1048955849+1050444034
2119+1051821945+1052022156+1051493253+1051428943+1051878628+1051755918
2111+1050662384+1049564109+1049453697+1050158696+1050759672+1050808866
2102+1050727792+1050941745+1051071394+1050486014+1049356134+1048517913
2094+1048471537+1049073750+1049917536+1050522497+1050520230+1050091088
2085+1049868479+1050112388+1050369144+1050223211+1049935193+1049954431
2077+1050205073+1050392161+1050630367+1051026048+1051060745+1050377801
2068+1049838386+1050777261+1053370248+1056302783+1057855003+1057124583
2060+1054611570+1051911401+1050642115+1051387101+1053171068+1053848446
2051+1051974955+1048844613+1047774646+1050501336+1055119037+1058536778
2043+1059990404+1060971877+1062092070+1061667807+1058443956+1054175902
2034+1051508643+1050554789+1049944262+1049812689+1050974243+1052690534
2026+1053919351+1055398192+1058092796+1060646827+1060567058+1057413013
2017+1053453864+1051738604+1053891113+1058464842+1061424516+1060180927
2009+1056941686+1055695829+1056801593+1057398379+1056131772+1054745273
2000+1055542888+1058545573+1061044844+1060363824+1057077038+1054471959
1992+1054815217+1057139836+1058941735+1058586797+1055630970+1050542628
1983+1044965164+1041614618+1042951649+1049236310+1057576741+1063694239
1975+1065637468+1064821852+1063145411+1060808493+1057624423+1054861731
1966+1054042955+1054623044+1054854586+1054359348+1054196926+1054787459
1958+1055058782+1053747241+1050806530+1047603497+1046057599+1047275492
1949+1050547369+1053770052+1055217563+1054794880+1053499829+1052306670
1941+1051772682+1052061456+1052903456+1053684718+1053815742+1053053580
1932+1051589236+1050133687+1049674314+1050530261+1051789241+1052314709
1924+1052076366+1051842488+1051859871+1051920127+1052367819+1053601034
1915+1054733112+1054355776+1052427662+1050433179+1049682284+1050008572
1907+1050563927+1051027697+1051403453+1051522109+1051325677+1051031063
1898+1050701615+1050188446+1049592897+1049218171+1049058978+1048853064
1890+1048609431+1048847843+1050215447+1052685587+1055122129+1056095358
1881+1055532514+1054794399+1054872518+1055414201+1055586036+1055097532
1873+1054222279+1053305595+1052418387+1051485145+1050811271+1050962426
1864+1051982925+1053258875+1054008945+1053867203+1053183160+1052773325
1856+1053217101+1054342034+1055455356+1055976427+1055795797+1055213440
1847+1054669696+1054516687+1055006977+1056114115+1057328229+1058145769
1839+1058512800+1058633174+1058499608+1057816870+1056398011+1054468592
1830+1052885592+1052746392+1054052573+1055675148+1056680876+1057010873
1822+1057030386+1056954190+1057006201+1057480208+1058284281+1058900236
1813+1058931223+1058340140+1057396043+1056658752+1056631888+1057178243
1805+1057581138+1057341970+1056754323+1056513850+1056839657+1057331115
1796+1057484468+1056949381+1055728396+1054528023+1054168756+1054399130
1788+1054412459+1053788053+1052640378+1051456082+1050736793+1050648642
1779+1050906911+1051057515+1050872832+1050295903+1049294916+1048190183
1771+1047716108+1048151776+1049126036+1050104555+1050658330+1050680591
1762+1050462173+1050363716+1050362754+1050337333+1050435171+1050671178
1754+1050587562+1049620998+1047753553+1046038361+1045622343+1046239946
1745+1046908187+1047183769+1047271645+1047461137+1047804258+1048141470
1737+1048199733+1047811610+1047335542+1047521049+1048463017+1049888816
1728+1051550898+1052970994+1053759334+1053973423+1053804405+1053124622
1720+1051654301+1049691766+1048637188+1049393991+1051019589+1052621827
1711+1053972118+1054839195+1054967814+1054600096+1054551315+1055161292
1703+1055704692+1055334982+1054177757+1053407281+1053710415+1055037139
1694+1056889881+1058436741+1059251189+1059401519+1059056750+1058118561
1686+1056433188+1054955859+1055496305+1057521157+1059453049+1060709968
1677+1061208778+1061137529+1060918492+1060639063+1060099991+1059865564
1669+1061080228+1063328995+1065056553+1065698204+1065799546+1066203610
1660+1066975597+1067502027+1067354308+1066399080+1064792583+1063770572
1652+1064390374+1065038964+1064815118+1064661009+1066181899+1068902886
1643+1070967657+1071834940+1071827657+1071169723+1069673843+1067098170
1635+1063693414+1059453805+1053563039+1045399665+1035569331+1026435751
1626+1020553504+1018742604+1020452574+1024080557+1027624581+1030344194
1618+1032894652+1036019977+1038793663+1039639372+1038246827+1035185192
1609+1031267748+1027035422+1022281475+1016075483+1007376747+996051701+983703408
1599+973391922+968309832+970324378+978917787+991199229+1003612381+1013877078
1589+1021268671+1025709384+1027161430+1025909870+1023089190+1020478476
1581+1019371613+1019767913+1021107966+1023446601+1026684400+1029145127
1572+1029380447+1027349548+1024376476+1022399650+1021692797+1021306322
1564+1020718400+1019690687+1018112702+1017588127+1021724539+1027991886
1555+1031808194+1033035844+1032078692+1028762156+1023382910+1017184270
1547+1011225759+1006064038+1002883266+1003511451+1010124049+1023525339
1538+1037295309+1045848113+1050377251+1053612095+1057328229+1061200602
1530+1064011938+1065463228+1065945136+1065829022+1065061500+1063652328
1521+1062357209+1061640255+1060626283+1058798619+1056643018+1054032855
1513+1049798192+1043139905+1034137966+1023195822+1012766848+1008636894
1504+1009904119+1011207758+1010390081+1006766976+999787691+989501008+977719200
1494+966510269+955505121+943783157+934653768+936501907+951261801+968855637
1485+977751286+970893475+948274851+919609771+898982333+894515649+905166133
1475+924208098+943486688+955701416+957781027+951360189+937517115+915227596
1465+886085280+857725533+835766492+818162419+798133484+767782757+730727640
1455+701231898+680558633+663397786+647733712+634700964+626732236+625524099
1445+630660192+640518214+653244600+667174313+682557789+702335120+727488537
1435+751643372+769294715+781967784+792635651+802184219+810031131+816133445
1425+821428525+826852498+832733096+839493894+848271093+859149821+869806077
1415+878519173+885446515+891472771+897605522+904289162+911212176+918270336
1405+925845170+933650445+940660992+946573950+951928805+956994955+961434638
1395+965067224+968027929+970093867+970671690+969423772+966814982+964331170
1385+963348803+963800687+964990891+966815120+969620135+973344445+977388103
1375+981347252+985257688+988987220+992088086+994323661+995718543+996269157
1366+995895668+994660804+993051009+991751698+990750094+989258748+986571427
1356+982523578+977318297+971131955+964060947+956460761+949045258+942478968
1346+936967943+932089775+926568238+918035497+903595363+882219779+857033452
1336+833866343+818540718+815503268+826090542+847223592+872976543+897864133
1326+918599441+933771713+943087846+946872824+945560528+939227772+927283199
1316+908520320+882231802+850341979+818486989+794098552+783039882+787180210
1306+803389676+824938882+845152295+860497501+871158085+879469660+887723314
1296+896751430+905800570+913374373+918346394+920619483+921074802+921022723
1286+921531083+923074164+925757500+929725306+935172571+942048934+949923328
1276+958117827+965910872+972772806+978598026+983685750+988366937+992734615
1266+996850415+1000962642+1005240796+1009462267+1013218388+1016356424
1258+1019082496+1021701110+1024318763+1026720608+1028514812+1029488179
1249+1029821543+1029754279+1029026951+1027158681+1024572840+1022759604
1241+1022588319+1022799179+1020605858+1013343090+999270467+977623698+948748308
1231+914002969+875106035+833947348+793588268+758869863+734755015+723694490
1221+725012626+736372781+754950357+777678569+801593274+824315233+844188135
1211+860374791+873024362+882964008+891006047+897660693+903347950+908459446
1201+913091645+916991500+919930081+921995539+923504542+924865689+926592766
1191+929246146+933232022+938586877+944842888+951172414+956852526+961560096
1181+965250739+968058572+970337501+972453664+974471508+976289622+978023158
1171+979960272+982159914+984317713+986020194+986920388+986576992+984373503
1162+979982945+973899938+966861291+958227207+945573857+927331225+906383408
1152+890003618+884913764+892239743+907557535+925100184+941148602+954354285
1142+964624822+972250430+977495767+980608450+982081176+982658793+983024724
1132+983696880+985159781+987584368+989964502+989663430+983581660+970577905
1122+953000147+935813192+924111221+920831581+925846200+936695110+950179466
1112+963430976+974178612+981205167+984996741+987316413+989717365+992564497
1102+995356046+997568468+999109282+1000216557+1001151585+1002053497+1003005221
1092+1004099923+1005348047+1006538732+1007242769+1006982371+1005517065
1084+1003150123+1000711588+998999970+998296345+998649978+1000303540+1003279016
1074+1006796794+1009771240+1011836080+1013411659+1014853124+1016028281
1065+1016787283+1017390939+1018144170+1018851985+1019008293+1018352763
1057+1016949225+1015059793+1013335120+1012784231+1014093160+1017017656
1048+1020548694+1023622422+1025810933+1027472533+1029192671+1031145107
1040+1033061746+1034504722+1034785182+1032614878+1025904992+1012155703
1031+990257536+963296930+939143469+926269021+927847761+939994950+955395465
1021+968019134+975286025+977913022+978594935+979932858+982641066+985407469
1011+986346619+984495938+980179103+974660314+970021176+968806443+972557411
1001+980334861+989274276+996811184+1002135395+1005808244+1008702303+1011416007
992+1014178494+1016896595+1019309915+1021219546+1022521192+1023010383
983+1022407758+1020787450+1018818868+1017353494+1016768801+1016785222
975+1016945652+1017192652+1017779406+1018688532+1019581306+1020384073
966+1021430063+1022893651+1024500354+1025907603+1027067576+1028148743
958+1029278005+1030440521+1031598433+1032771529+1033916731+1034866668
949+1035546658+1036093974+1036583097+1036730129+1035993800+1033936381
941+1030528603+1026311117+1022333898+1019539669+1017713998+1015285357
932+1010897067+1005111353+999780957+995776256+992264250+988540764+985832969
922+986435182+990786989+995932495+997891183+995853895+993257678+994325035
912+1000119475+1008204386+1015426480+1020407709+1023669073+1026235608
904+1028617460+1030787626+1032525148+1033645958+1034195061+1034497645
895+1034843995+1035120402+1034978591+1034421862+1033955344+1033999110
887+1034423648+1034867355+1035195910+1035389800+1035299245+1034767387
878+1033736170+1032163545+1030169748+1028209892+1026674712+1025438062
870+1024200931+1023127322+1022689729+1022924706+1023152606+1022593815
861+1021336141+1020544229+1021328995+1023479512+1025813475+1027608229
853+1028978719+1030005814+1030335331+1029711544+1028440609+1027308530
844+1027027727+1027489366+1027819089+1027703250+1028339748+1031352395
836+1036813058+1042907333+1047684502+1050769704+1053120225+1055425950
827+1057270516+1057867370+1057161753+1055923111+1054908795+1054177826
819+1053190512+1051454846+1049206972+1047604597+1048002270+1050775544
810+1055048407+1059612861+1063701522+1066884011+1068771244+1069081798
802+1067746898+1064553896+1058776358+1050275291+1041675149+1037847435
793+1041520971+1050334447+1059395473+1065668798+1069055140+1070717359
785+1071699588+1072569620+1073401313+1073741823+1072778831+1069941455
776+1065108427+1057776127+1046943502+1033023820+1019228497+1009966573
768+1007877549+1012033474+1018093739+1020517433+1015683855+1003250641+984587181
758+960368655+930102437+893675642+852012511+805136885+751243637+690517379
748+629618943+579912469+550243345+541444538+547357943+560882150+579347563
738+604489299+638076863+678635604+721710861+761211452+790634022+805783346
728+806834900+795288275+769605269+728561734+680287723+643467857+634855417
718+655753559+693514292+734038886+769510934+797490803+817562886+830093183
708+837076315+842181902+848390505+855998387+863831488+871452699+879068894
698+886369520+892751813+898115668+902789228+907158281+911597277+916330749
688+921146463+925428945+928805050+931777847+935247187+939351444+943405683
679+946984541+950254219+953173288+954863332+953862483+949109292+941395328
669+935489377+937237479+943696861+949131072+953418021+958628729+964886869
659+969907604+971389743+968884975+964048099+959778396+958616843+961378917
649+967166348+974329835+981261232+986631958+989173896+987771594+982866973
639+977792236+976968169+981969391+990318341+998283291+1003974052+1007696851
629+1010456657+1012845105+1014504232+1012443102+1000010231+972400898+935908763
619+907275975+899917155+912603760+933126077+949593605+956763620+956779010
609+956462204+960941393+968956086+974662238+972393202+960371953+942924531
599+928820509+924681761+930294953+941112463+953076892+964184001+973691345
589+981601948+988325987+993905994+997640678+998121556+992707819+978301764
579+955763458+932936584+919563738+918449317+924304081+932003548+941748068
569+955197659+970550423+983210163+988856952+984355708+968908129+947162422
560+928808142+921515692+924381445+929626025+929887523+923153795+913289726
550+908010586+913789086+930111918+949790450+965735945+976248123+983421848
540+988898726+992886319+995182425+994562417+988204789+974022098+953474016
530+931536481+915008147+910777676+921693161+942207234+962549059+976678502
520+983860746+986748965+989350334+993931690+999385895+1003563805+1006056137
510+1007889641+1009574052+1010874393+1012032168+1013335464+1013613451
501+1011509655+1008547232+1007975525+1010633302+1014161798+1015653762
493+1013456800+1006383593+993787887+977799244+963912266+958116315+962659882
483+974534924+988677353+1001252103+1009638156+1012392809+1010526601+1006797756
473+1003215394+1000254896+998003930+996654532+995879385+994933295+993699324
463+992863096+992814864+993399901+994809898+996844918+997347232+994693509
453+990144445+984782101+976623949+963564130+947609565+932563782+918329561
443+902250294+886934837+879964141+884240921+895645322+908408054+917564513
433+917948721+906272378+886301363+867909568+857509176+852149718+843783934
424+827750081+808211368+797605405+812245957+852596998+894248036+922017388
414+936746090+942607999+943945579+943100213+939198572+931948514+924604878
404+921205963+922247486+924118779+922766633+920119368+924171546+935834147
394+947870787+955901146+960321247+961626260+958275920+950154045+942374397
384+941515564+947020200+953374048+957920433+960147145+958244109+951359296
374+944724369
##END=
