##TITLE=X8291
##JCAMP-DX=5.0
##DATA TYPE=LINK
##BLOCKS=1


$$ === CHEMSPECTRA SPECTRUM ORIG ===
##TITLE=X8291
##JCAMP-DX=5.00
##DATA TYPE=INFRARED SPECTRUM
##DATA CLASS=XYDATA
##ORIGIN=ComPlat
##OWNER=
##XUNITS=1/CM
##YUNITS=TRANSMITTANCE
##XFACTOR=1
##YFACTOR=9.3119579e-010
##FIRSTX=3997.453
##LASTX=373.96442
##MAXX=3997.453
##MAXY=0.9998638651245252
##MINX=373.96442
##MINY=0.36999288273441416
##NPOINTS=2559
##XYDATA= (X++(Y..Y))
2559A064625702A065255292A066055273A066360146A066103919A065607020A065076259
2552A064679085A064702704A065237049A066001249A066738886A067451687A068090046
2545A068382053A068164360A067671237A067323861A067264973A067205957A066798350
2538A066104175A065570599A065520672A065834058A066204477A066563630A067048112
2531A067531506A067453543A066389526A064787196A063791604A064161639A065518624
2524A066847060A067628031A068062394A068377445A068458480A068108416A067398047
2517A066631159A066066602A065827082A066076651A066928351A067930152A068276951
2510A067869216A067397791A067409697A067707594A067692615A067110072A066237441
2503A065543459A065268926A065313668A065587305A066227456A067341848A068665804
2496A069647378A069968381A069860015A069840556A070087502A070276647A070087438
2489A069488700A068761369A068353377A068502006A068924143A068948851A068420843
2482A068052152A068395879A069086533A069192852A068544187A067864735A067790101
2475A068387750A069356906A070233505A070388791A069634512A068807071A068981431
2468A070180314A071502286A072284793A072139237A070882490A069152654A068068091
2461A068189451A069308772A070878777A072135588A072043992A070830259A069910389
2454A069764001A070154967A070731109A071188387A071392895A071510479A071763826
2447A071979919A071815993A071467529A071281584A070983560A070175257A069177426
2440A068724180A069042047A069804775A070806511A072156263A073513248A073741823
2433A072607333A071280304A070401400A069694040A068902956A068140804A067510191
2426A067082740A067144893A067959980A069081797A069687511A069376429A068653770
2419A068610052A069481787A070521801A070920255A070555725A069798054A068918446
2412A068195724A068080380A068679950A069372780A069481147A069048128A068423979
2405A067660163A066729476A065929816A065749119A066524584A068120194A069658131
2398A069968381A068963637A067839644A067590906A068209358A069129291A069846509
2391A070001026A069554693A069078788A069138316A069642833A070074892A070132756
2384A070101519A070185243A070010115A068963508A066862614A064781179A063636127
2377A063122649A062797741A062781419A063222439A063298161A062489155A061821160
2370A062082828A062920446A063691495A064129058A064309179A064382277A064380869
2363A064169192A063728812A063430211A063728748A064700656A065870479A066314700
2356A065594154A064463376A063631455A063086676A062583504A061985599A061352168
2349A060960115A061025788A061448693A062169816A063598682A066200572A069498749
2342A071618334A070707362A067657091A064782075A062960387A062086540A061990975
2335A062535113A063556244A064900107A066219071A066839123A066625782A065901460
2328A064494484A062617813A061375724A061042238A060838114A060099262A058815247
2321A057383180A056210924A055692902A056021203A056686573A056993111A056978005
2314A057185265A057445076A056503892A054589328A053129929A052508468A052206731
2307A051863965A051615675A051445860A050839761A049439251A047645662A046193561
2300A045354022A044828511A044258897A043678786A043346901A043628219A044954160
2293A047213988A049186096A049641838A049005784A048181159A047233574A046137553
2286A045371753A045268763A045414383A045002935A043728905A041998942A040347453
2279A038974530A037802146A036759380A035736777A034524004A033202160A032237485
2272A031912385A032119837A032534805A032673832A032279731A031527692A030559240
2265A029458866A028597629A028313367A028232972A027705284A026855440A026387088
2258A026554151A027068845A027534701A027272009A025543645A022733215A020010732
2251A018104105A017001171A016310389A015686240A014873777A013664780A012167617
2244A010911574A010267582A010017500A009616485A008568983A006796197A004868447
2237A003558637A003048615A002739453A001928783A000542866I99028164I97764632
2230I96887456I96353432I95887128I95090476I93846658I92467335I91355311I90519229
2222I89470895I87761030I85646310I83977539I83247135I83033346I82563202I81549496
2214I80354774I79484191I79054821I78759164I78196976I77233453I76059213I74921714
2206I73902119I72934051I71989667I71152433I70419853I69651557I68865594I68323312
2198I68152600I68099153I67728287I66754010I65288979I63807241I62721397I62118691
2190I61831484I61505488I60800176I59781669I58801952I57904293I56847958I55697017
2182I54792830I54246643I53968398I53965645I54232177I54567327I54674286I54368580
2174I53829115I53621470I54118370I54875849I54968022I54036183I52648218I51604940
2166I51153934I50776795I49811928I48371988I47329542I47254972I47764801I48112176
2158I48054376I47915221I48050856I48451935I48760457I48643705I48175673I47730044
2150I47514335I47404048I47196212I46816000I46312635I45793397I45412481I45400959
2142I45926215I46783099I47402960I47380813I46852101I46241202I45833274I45639520
2134I45482506I45181089I44747238I44419834I44511046I45186402I46247602I47129707
2126I47329926I46947666I46640616I46919054I47611180I48190203I48491428I48760008
2118I49089653I49227144I48993128I48622838I48558765I48861206I48997225I48609460
2110I48318092I49034542I50569663I51734301I51810088I51197204I50608516I50349537
2102I50466289I50939441I51487676I51622606I51181330I50544059I50169992I50141509
2094I50185803I49942569I49332438I48819601I49078132I50258644I51754464I52704545
2086I52715107I52234786I52176602I52963717I54078941I54707826I54582881I54038231
2078I53543828I53432069I53845437I54571616I54949267I54343681I52906173I51584201
2070I51239194I51954555I53106456I53865343I53758513I52976454I52090574I51541315
2062I51545156I52223200I53421763I54596579I55246139I55322630I54992089I54345857
2054I53684263I53635488I54470738I55576552I56091759I55862927I55389903I55097639
2046I55088038I55388943I55939546I56360531I56231106I55760257I55713211I56371861
2038I57015084I56814033I55862415I54902733I54367428I54136228I54046744I54219248
2030I54792638I55554341I56018469I55945563I55747968I56116786I57074356I57708683
2022I57274192I56273735I55820938I56205310I56754441I56864600I56551533I56169657
2014I56083693I56478307I57148734I57643010I57786197I57827739I57955820I58044408
2006I58048889I58210703I58612550I58919792I58807584I58390247I58036151I57919335
1998I57872161I57686152I57496046I57687688I58415211I59408434I60225249I60521034
1990I60237859I59683928I59207767I58810721I58366436I58039288I58100928I58533115
1982I59100552I59604237I59878514I59748128I59207319I58549309I58150023I58131204
1974I58371429I58770011I59287586I59829547I60319342I60738535I60959237I60785838
1966I60215776I59435062I58701842I58384679I58755801I59584330I60292330I60532875
1958I60345650I59932729I59524738I59241627I59050369I59050625I59543236I60518153
1950I61408066I61673510I61393408I61067092I61041936I61325623I61761010I62156648
1942I62302524I62111010I61787830I61649251I61737263I61834492I61776052I61481996
1934I60801968I59682519I58470130I57756369I57779220I58090751I58015348I57417059
1926I56733638I56207486I55555558I54570207I53544212I52798318I52185819I51394031
1918I50473778I49784916I49540275I49582072I49533042I49062770I48096558I46856389
1910I45587161I44228320I42614852I40982182I39823624I39149676I38356544I36991558
1902I35278109I33821399I33050286I32947872I33204419I33640126I34316954I35136842
1894I35757406I36199515I37046542I38677676I40689726I42341791I43315235I43844075
1886I44203740I44300713I43965116I43492731I43410672I43708633I43887921I43795237
1878I43752351I43819368I43577287I42794588I41829401I41218822I41134074I41404191
1870I41935719I42781083I43687126I44028228I43568902I42922734I42833442I43341607
1862I43986047I44383989I44326381I43756063I42921582I42263380I42019123I42037941
1854I41911588I41307026I40319499I39340038I38484050I37462983I36058567I34326812
1846I32381523I30302904I28141714I25827094I23216563I20260961I17036778I13791152
1838I10924778I08565032I06199846I03145927H99352194H95430444H91936465H88852653
1830H85816080H82689510H79677324H76933142H74375994H71908394H69549801H67393988
1822H65577612H64154699H62978090H61932060H61196280H60971481H61022560H60788928
1814H59967889H58834998H57981762H57854641H58540366H59774454H61016799H61745667
1806H61911129H62027433H62765582H64515516H67172902H70231622H73244640H76186417
1798H79193290H82144476H84805446H87193163H89560781H92123050H94824474H97290602
1790H99194093I00765763I02614526I04929850I07237940I09033576I10301973I11335970
1782I12329385I13275114I14130014I14962831I15891534I16907672I17872732I18697292
1774I19390634I19958712I20411957I20827246I21256424I21644317I21938437I22168164
1766I22383042I22696748I23396300I24742595I26605760I28520133I30172646I31686388
1758I33394845I35475064I37852027I40332301I42750294I45077651I47471833I50101823
1750I52849333I55364236I57500462I59460665I61442311I63411987I65243981I66833957
1742I68145880I69312758I70519899I71731712I72835990I74021047I75590029I77453259
1734I79235581I80808275I82315361I83767910I85000782I85973843I86776896I87393428
1726I87775176I88099572I88640702I89419176I90244632I91054790I91987077I93134113
1718I94365641I95417496I96116919I96462759I96500012I96321171I96239368I96654145
1710I97593793I98626061I99311978I99600082I99792492A000238569A001026964
1703A001934351A002683317A003163319A003366418A003271813A002941016A002638703
1696A002646512A002927831A003192507A003355089A003641336A004208837A005024052
1689A006075971A007261413A008156702A008382461A008127066A007930368A008059025
1682A008352633A008564502A008633311A008661859A008749871A008884738A009004626
1675A009151910A009450383A009852421A010064098A009920591A009713202A009889866
1668A010513119A011228993A011699329A011856022A011773323A011538539A011299530
1661A011237762A011372628A011546092A011675838A011830675A012024813A012196933
1654A012389983A012696457A013048760A013301723A013490165A013828387A014409138
1647A014991361A015204894A014984064A014606349A014255453A013802591A013128963
1640A012416674A011943010A011737734A011630455A011555437A011554989A011503782
1633A011176826A010670261A010381837A010427732A010446486A010127851A009600547
1626A009128739A008716971A008242282A007757416A007424763A007298154A007331438
1619A007446206A007498885A007379893A007164439A006977854A006806247A006627982
1612A006591177A006902964A007606100A008453255A008991696A008972174A008666212
1605A008524049A008645345A008855870A009060826A009220015A009218991A009019476
1598A008746479A008548436A008578584A009035798A009909325A010770882A011175866
1591A011206974A011237890A011272711A011015588A010563622A010463449A010961692
1584A011679806A012192964A012509231A012806552A013112001A013435437A013838948
1577A014209879A014339752A014327015A014478779A014740255A014685015A014217432
1570A013875241A014193364A015064971A016024462A016889155A017730102A018427285
1563A018728062A018683128A018665013A018961757A019494886A019949604A020202950
1556A020493038A020936810A021185548A021025398A020877922A021111234A021413675
1549A021550526A022089159A023517834A025132069A025668078A024815162A023363445
1542A022086471A021200526A020716364A020611134A020696522A020755986A020687432
1535A020394400A019931489A019793487A020512561A021912815A023188125A023675295
1528A023341106A022716445A022500415A023011141A024015053A025120612A026047906
1521A026506785A026332937A025817155A025406731A025138214A024838910A024710892
1514A025188333A026266688A027351188A027856280A027895646A028219594A029274713
1507A030501120A030992835A030678104A030252895A030099850A029967800A029664590
1500A029425646A029533373A030001532A030619793A031044874A031013446A030730208
1493A030814635A031641564A033008150A034512226A035777999A036295381A035757452
1486A034701500A034112300A034268097A034586989A034653942A034793417A035492776
1479A036651078A037614985A037915506A037825317A037961336A038408757A038637972
1472A038312488A037726040A037331490A037289244A037623946A038391667A039427136
1465A040251632A040547352A040503762A040454283A040464205A040506258A040663592
1458A040857922A040771255A040360895A040096347A040424839A041282236A042262722
1451A042977443A043222596A043052717A042721472A042440730A042321738A042523493
1444A043116150A043784401A044057718A043886431A043675778A043775504A044182727
1437A044686924A045130824A045564995A046109197A046613522A046687324A046240991
1430A045695573A045418735A045273371A045006391A044764054A044891879A045369641
1423A045615946A044757461A042182775A038018752A032902791A027150904A020470891
1416A012638273A004030573I95272324I86678194I78144233I69382528I60390968
1409I51663316I43648081I36424825I30416327I26590846I25325330I26028914
1402I28429177I33131641I40446685I49770898I60130580I70047963I77278259
1395I79739202I76643740I69375743I61626080I56958565I55890643I56693248
1388I57837660I59030399I60628632I62501847I64049578I65261263I66804705
1381I68898750I71018015I72806290I74528444I76735721I80026281I84894464
1374I91132433I97420521A002183921A005004465A006845804A008883457A011519976
1367A014627087A018198326A022227546A026128685A029000628A030729119A032280243
1360A034547367A037350949A039795122A041179566A041524893A041617642A042402837
1353A044032755A045835560A047298927A048454348A049266811A049518685A049387916
1346A049336645A049401485A049238007A048764599A048254193A047954376A047928069
1339A048074521A048204202A048309305A048715824A049665137A050792011A051357912
1332A051105397A050517669A049992606A049320194A048459469A048039380A048362688
1325A048919756A049615531A051134777A053325860A054794284A055017802A055269740
1318A056465935A057552355A057152749A055736940A054955137A055530384A056808126
1311A057732476A057529248A056320891A055567893A056725939A059195075A060840099
1304A060513782A058864022A057023451A055735596A055413376A056017810A056891209
1297A057374795A057698935A058731140A060580415A062028228A061883441A060329373
1290A058434331A057027292A056359745A056196138A056001936A055373242A054324332
1283A053134410A051970859A050719233A049416527A048865028A050090411A052918188
1276A055972108A058210365A059513710A059762320A058451101A055711016A053028475
1269A052107646A053059775A054430266A055170655A055809590A057689846A061538882
1262A066007906A067711050A065173809A061583880A060579455A062218078A064225840
1255A064854725A064045591A062928767A062410488A062032709A060687502A058105902
1248A054877111A051864541A050418904A051847642A055597593A059184321A060759640
1241A060569854A059669699A058554731A057254010A055923077A055050574A055067921
1234A055640287A055804981A055294384A055065937A055783858A056516246A055852796
1227A053841194A051926309A051232135A051625340A052360608A053046142A053689237
1220A054106702A053849003A052866469A051833240A051430562A051543729A051563636
1213A051284238A051047662A051118839A051415776A051797012A052115775A052084731
1206A051637886A051295375A051606522A052397989A053122760A053724570A054440699
1199A054986246A054862773A054490242A055070929A056943376A058714497A058649464
1192A056547162A053686549A051508204A050983717A052469679A054864565A055489930
1185A052614595A048076249A045957753A048347390A053619596A058914012A062755431
1178A065112040A065936152A064445453A060503797A056149540A054056007A054734691
1171A056965395A059839578A062284327A062550283A060673996A059412192A060490483
1164A061828969A060580031A057241081A054654296A054478337A056548250A059801365
1157A062144340A061727515A059514478A058033060A057409296A055696294A052727442
1150A050565420A050565292A051754766A051984109A050328396A048184104A047673826
1143A049268539A051504748A052664458A051911459A049421968A046222301A043510827
1136A042131184A042862931A046396276A051945192A056378307A056701615A053358504
1129A049313089A046457213A044711183A044082105A045250328A047800884A049961114
1122A050591727A050362576A050643959A051493482A051334421A049008856A045610889
1115A043651775A044725073A048243312A051974828A053866925A053686037A052616067
1108A051540849A050540777A049718905A049327427A049263867A049156332A048729458
1101A047867645A046713567A045741787A045297375A045211859A045300191A045756125
1094A046421816A046348014A045014008A043346325A042624179A042744643A042804619
1087A042697725A042989797A043739979A044342877A044582013A044920235A045568644
1080A046084682A046127248A045969914A045967802A046034755A045884271A045465334
1073A044975987A044521205A044025330A043790097A044734226A047190688A049852747
1066A050855955A049955673A048606881A048021842A048188904A048516373A048677931
1059A048926733A049773632A051037292A051348374A049860812A047801908A046667417
1052A046558218A046635285A046183959A045134152A043995373A043472806A043808404
1045A044455276A044672202A044331867A043935717A043995117A044435753A044469102
1038A043462501A041926292A040671017A039835639A038998917A037705749A036021872
1031A034467612A033347908A032494672A031807602A031495432A031399931A030845167
1024A029434223A027482021A025544670A024006796A022867761A021744152A020357467
1017A018725885A016728365A014035455A010690359A007204317A003933280A000785779
1010I97459822I93708848I89421032I84688868I79851281I75212954I70598501
1003I65223626I58406890I50859366I43990527I38103454I32573549I26960049
996I21583189I16883413I12691930I08699067I05112082I02320854I00290434
989H98423812H95914158H92632367H89076875H85409112H81654681H78061360
982H74631581H70948712H66831735H62489320H57765797H52400330H46838101
975H41621263H36341504H29815880H21448277H12150563H02852977G93529852
968G84035952G74321157G63981829G53132545G43144433G34523547G25419460
961G13681990G00724642F88854930F77403963F65689792F54139484F42902370
954F31901513F21789672F13312806F06283625E99940170E94040934E89187538
947E85605354E83132569E81774304E81370794E81591816E82379571E83677540
940E85081891E86866646E90390902E96000945F01518496F05958077F10027879
933F13277729F15351612F17026208F18845335F20488823F21604943F22476998
926F23293173F23291829F22129558F20492791F19072630F18477221F19226763
919F21122957F23443209F26461028F31129183F36646927F40763327F43313626
912F45681181F48582375F51269205F52675669F52891698F52620301F52342951
905F52107655F51237073F49236865F47161510F45902075F45906363F47024211
898F48479641F50270605F52952954F56750591F61709731F68414643F77463491
891F86723824F93442563F98811677G05246345G13857694G23886195G34000148
884G44333907G55385267G65612387G73396999G80046224G88395841G99059053
877H08779480H15835609H21496987H26410808H29315204H27992080H21214069
870H09794914G95698275G80311413G63885496G47219484G33764852G29203463
863G37864866G58690869G85459441H11030539H30331022H40953844H43242220
856H39767827H33722716H27300978H21539489H17632973H18630421H29114792
849H47806361H65736866H79787355H93064554I07096993I19277275I27828327
842I34052342I38991895I42822304I46613028I52897468I61098776I65682440
835I67221530I68511369I70307262I72427935I74526780I76343156I78102371
828I80344148I83109709I85850306I88348630I90370153I91144979I91119439
821I91321451I92240488I93528983I94444500I95019810I95779273I96846747
814I97843490I98548610I99041606I99177880I98843435I98347047I97820895
807I97098237I96285838I95819727I95992679I96738828I97796956I98686741
800I98532352I97321435I95676860I93691181I90971323I86578469I79300486
793I69695787I60707299I54441742I51235866I50678478I51523585I52156247
786I52052809I51477306I50682510I49839835I49102839I48557741I48158967
779I47734909I46976214I45308531I42228879I38188585I33973099I29667489
772I24785289I19006838I12998788I07701491I02884835H96289825H83017875
765H60765181H34672541H07234566G78111049G49678058G27428373G17759665
758G23761890G42299518G66985758G91514730H11364472H25785315H36783676
751H45296323H50162970H51641315H51566809H51104602H50323824H48932850
744H46914592H44292539H41085638H37680247H34507207H31523248H28642216
737H26239905H24580095H23575542H23026220H22644984H22185977H21653553
730H21177200H20759991H20338174H20032404H20135458H20779770H21615660
723H22070249H22013410H21789891H21700855H21760063H21823304H21668403
716H21039965H19847227H18283430H16689741H15374618H14510500H14170934
709H14343438H14759238H14866709H14286470H13111142H11554962H09827879
702H08400676H07901088H08619778H10129808H11522573H12353023H12833920
695H13236023H13722489H14374482H15079602H15648959H16053238H16362784
688H16597760H16784410H17063680H17654672H18663066H19801077H20430794
681H20196714H19340982H18185177H16674187H14406678H10969730H06225212
674H00174725G92625729G83262342G72017803G59253058G45905193G33744689
667G25043985G21503855G23548421G30209808G39302630G48330995G55570316
660G60296080G62498556G62553155G60808149G57380227G52350742G45992436
653G38697747G30722518G22085118G12778763G02954193F92736866F82035826
646F70767924F59141509F47518423F36129544F25098923F14636954F05030590
639E96413929E88672908E81654480E75402749E70143921E66078280E63193087
632E61313151E60374911E60507985E61716534E63624698E65647373E67338099
625E68596062E69601767E70525861E71335955E71928420E72317593E72624067
618E72978739E73443762E73961785E74417079E74717216E74738915E74309608
611E73339108E71873629E70004638E67849657E65630411E63691907E62380560
604E61844871E61993756E62702972E63925283E65532093E67281323E69089890
597E71188479E73906289E77361288E81346150E85450645E89308258E92762104
590E95840155E98656475F01346377F03999730F06592147F09014301F11217673
583F13296420F15357756F17352588F19108859F20441456F21114508F20776670
576F19006957F15376895F09553638F01540323E91827577E81277917E70972770
569E62140208E55959334E53224690E54100457E58065861E64051444E70762437
562E77077601E82343342E86395094E89317155E91256939E92548635E93877520
555E96100159E99845117F05269663F12048570F19501873F26860762F33590959
548F39559771F44936887F49935904F54619037F58901924F62695081F65999915
541F68870193F71302653F73182460F74346267F74684937F74175300F72873938
534F70912839F68446712F65585522F62421507F59082813F55680750F52230552
527F48653937F44840426F40747965F36522174F32508507F29083593F26498025
520F24917330F24508954F25253440F26627835F27736786F27960944F27389986
513F26603703F26227204F26673089F28020472F30041163F32434961F34969706
506F37358191F39201578F40183856F40194034F39195882F37088267F33741123
499F29124431F23350781F16495319F08399305E99037839E89406255E81727642
492E78165877E79176639E83312882E88556732E93582696E97854318F01099431
485F03165057F04240595F04792478F05197205F05621199F06199006F07091415
478F08340289F09768708F11057843F11985585F12654668F13408435F14494535
471F15919049F17554984F19153217F20262168F20288284F18527148F14070669
464F06165785E95298386E83962442E75839545E73636173E77357127E84490834
457E91796981E97184658F00436237F02580785F04703378F07200294F09857488
450F12292699F14094160F14531724F12501880F07466122F00909389E96362274
443E96960244F02705346F10580850F17332297F21647189F23943117F25082984
436F25650294F25907737F25999141F26108980F26401436F26870812F27404068
429F27966385F28640461F29523589F30641245F31962577F33485984F35212171
422F36988861F38559251F39887880F41246977F42846299F44550595F46071378
415F47295352F48333190F49368274F50558260F52017979F53775658F55723828
408F57644025F59299482F60513088F61182427F61256485F60750048F59799903
401F58621950F57375124F56197300F55370692F55184810F55560285F56105320
394F56634544F57342736F58387934F59610501F60814185F62091479F63685808
387F65608885F67532603F69108050F70341050F71549854F72925978F74262031
380F75179852F75496887F75273305F74647172F73787087F72914712F72195062
373F71628265F71161705F70943564F71387592F72852752F75191886F77767917
366F80102314F82387682F85119061F88333771F91500858F94079961F95916307
359F97129849F97868509F98216140F98265363F98244432F98479664F99163085
352G00247585G01568213G02920141G04046182G04711425G04775689G04195578
345G03129449G01950729G00871158F99687765F98213516F96750853F95834504
338F95697141F96201018F97099060F98225806F99561156G01183328G03143019
331G05396062G07855213G10513302G13490988G16802415G20089646G22918767
324G25397249G28077678G31123532G33976081G36044522G37473005G38981434
317G41041811G43450842G45698124G47424759G48368696G48224100G46902512
310G44822357G42716599G41125342G40070286G39159250G37955310G36274698
303G34248566G32145751G30047482G27769860G25269615G22867240G20766282
296G18646826G16032518G12828754G09391166G06266196G03788291G01796404
289F99967803F98374370F97333524F96847122F96611314F96406422F96150643
282F95748028F95114662F94269555F93384571F92847986F93217060F94899913
275F97728202G00927934G03736380G05994543G07931319G09601946G10861702
268G11628462G11824393G11257852G09741101G07104198G03041437F97134841
261F89053933F78806394F67073661F55280951F44994303F37060423F31326010
254F27061942F23381889F19237133F13459130F05124107E93699320E78795659
247E60174244E38221751E14238678D90044633D67317507D47427119D31639434
240D20894195D15155526D13137267D12743805D11977173D09747333D06069457
233D01824367C98432065C97330923C99375137D04646671D12586152D22142557
226D32138478D41674720D50317688D58522517D67921813D80353073D96328272
219E14576132E32748686E48632129E61135271E70364239E76841985E80558267
212E80773784E76912587E70074536E64999413E66909689E72291349E75316465
205E75672482E75449603E75883262E76816894E77746620E78289350E78132849
198E77206515E75715496E74054149E72851426E72888871E74838960E79034603
191E85264508E92797885F00755000F08410059F15336249F21518723F27205449
184F32475735F37072137F40740284F43518006F45586000F47128161F48395854
177F49341391F49087468F46698151F42963755F40583142F41739652F45877111
170F50523632F53659995F54806839F54751407F54813240F55847493F57593650
163F59179786F60161872F60754144F61273959F61750312F61936577F61595027
156F61005187F60989889F61957380F63220720F63815425F63601892F63231602
149F63349506F63971158F64480476F64229882F63196397F61927616F61042696
142F60991681F61917119F63239155F63742903F62880770F61699617F61525706
135F62198693F62486284F61708642F60052673F57798030F55331582F53599442
128F53429691F54341752F54613725F52777379F49060905F45182425F42701383
121F41893081F42125112F42620732F42720906F42164862F41388884F41037220
114F41175671F41420376F41648440F42124024F42965163F43781722F44044286
107F43805725F43511285F43113791F42219269F41108462F40759999F41490594
100F42477416F42947176F43064824F43411432F44009721F44478905F44979133
93F45868598F46436867F45545674F43739284F42803797F43402342F44675284
86F45574094F45783594F45705248F46150940F47724851F50077811F51940017
79F52271198F51510838F51202124F52284767F54229416F55836611F56682166
72F57468001F58874913F60562694F61747176F62139485F61725925F60628047
65F59398248F58617534F58371804F58737806F60203029F62600604F64391376
58F64731710F64661620F65174970F65708867F65312333F64398545F64103528
51F64420180F64122347F62542868F60447543F58983087F58751568F59862503
44F62022413F64358347F65591731F65219392F64537828F65222465F66913639
37F67475828F65597428F61969990F58169537F56360202F58000362F60818537
30F61701473F59891179F56539683F53392566F50852509F47873479F44605322
23F43752854F47983638F56581800F65006115F67317214F62891395F60992193
16F66478764F72092392F72103658F68635601F65586226F63474643F61751976
9F62410114F67872618F76749986F85526349F91890479F94776568F93586518
2F88134640F80544615
##END=


$$ === CHEMSPECTRA PEAK TABLE EDIT ===
##TITLE=X8291
##JCAMP-DX=5.00
##DATA TYPE=INFRAREDPEAKTABLE
##DATA CLASS=PEAKTABLE
##$CSTHRESHOLD=0.93
##MAXX=3997.453
##MAXY=0.9998638651245252
##MINX=373.96442
##MINY=0.36999288273441416
##$CSSOLVENTNAME=- - -
##$CSSOLVENTVALUE=0
##$CSSOLVENTX=0
##NPOINTS=24
##PEAKTABLE= (XY..XY)
386.71320702892854, 0.6162206540753811
405.12812162627006, 0.5994599474452846
648.7716070680217, 0.5334368361866966
668.6030535574664, 0.5261250747380712
699.7667551837371, 0.36999288273441416
1001.4880482017197, 0.5553300388636264
1024.1525584753713, 0.5341675892893116
1069.481579022674, 0.5383856305840579
1175.721470930414, 0.5151605022520551
1228.1331509382326, 0.5231875785082931
1266.3795120250193, 0.5218187579448247
1315.9581282486315, 0.6718613522447705
1447.6955942142295, 0.6683747782798104
1579.4330601798279, 0.7613763822227837
1596.4314428850662, 0.6790311947990207
1648.8431228928848, 0.6014612929922643
1677.1737607349492, 0.5759233844060996
1709.7539942533226, 0.5413700358017572
2342.9437500234694, 0.8911157869324413
2361.3586646207973, 0.8616590516763607
2937.8871447068022, 0.7988306301311614
2946.3863360594214, 0.801733018417265
3062.541951211884, 0.8687571306958589
3403.9261372087617, 0.8822176477855385
##END=


$$ === CHEMSPECTRA PEAK TABLE AUTO ===
##TITLE=X8291
##JCAMP-DX=5.00
##DATA TYPE=INFRAREDPEAKTABLE
##DATA CLASS=PEAKTABLE
##$CSTHRESHOLD=0.93
##MAXX=3997.453
##MAXY=0.9998638651245252
##MINX=373.96442
##MINY=0.36999288273441416
##NPOINTS=96
##PEAKTABLE= (XY..XY)
3459.1708810007817, 0.8883287924286346
3450.6716896481626, 0.8880082981176113
3433.6733069429242, 0.8820798419829678
3428.007179374511, 0.8826946630721196
3408.1757328850663, 0.8803533928827626
3391.177350179828, 0.8794397734132988
3381.2616269351056, 0.8815077562622067
3367.0963080140737, 0.8832939285355994
3361.430180445661, 0.8830698148512327
3351.514457200938, 0.8849614878828492
3340.1822020641125, 0.8847677730850472
3334.5160744956997, 0.8835368179206798
3324.6003512509774, 0.8866628431189056
3314.6846280062546, 0.8878319287037896
3304.768904761532, 0.8857899327357933
3294.85318151681, 0.8860712665390639
3280.687862595778, 0.8880213516201956
3270.7721393510556, 0.8893739600649601
3262.2729479984364, 0.8899561185305817
3250.9406928616104, 0.8884043114760077
3242.441501508991, 0.8899884841026547
3233.942310156372, 0.8900564334594511
3225.443118803753, 0.8903011098092525
3199.945544745895, 0.8916162869768464
3184.36369393276, 0.8921221516401975
3170.198375011728, 0.8922077434324311
3153.1999923064895, 0.8924437782853014
3140.4512052775603, 0.8930636660107465
3129.118950140735, 0.8949182048166494
3119.2032268960124, 0.8954837339878533
3107.870971759187, 0.8918586986584865
3086.6229933776385, 0.8842079065154422
3062.541951211884, 0.8687571306958589
3038.46090904613, 0.8785000460074709
3032.794781477717, 0.8788182160538023
3024.2955901250975, 0.8763800875343485
3012.963334988272, 0.8779625318616092
3001.6310798514464, 0.8772042414370922
2946.3863360594214, 0.801733018417265
2937.8871447068022, 0.7988306301311614
2797.6504873885847, 0.9276939053138608
2361.3586646207973, 0.8616590516763607
2341.527218131352, 0.890121342461993
1709.7539942533226, 0.5413700358017572
1677.1737607349492, 0.5759233844060996
1648.8431228928848, 0.6014612929922643
1596.4314428850662, 0.6790311947990207
1579.4330601798279, 0.7613763822227837
1536.9371034167316, 0.9229262489839618
1512.8560612509773, 0.9273031373813494
1490.1915509773257, 0.8852677963572076
1447.6955942142295, 0.6683747782798104
1402.3665736669273, 0.7636107222683791
1392.4508504222044, 0.7651643768154005
1378.2855315011725, 0.7581525460811679
1365.5367444722438, 0.7523140918820195
1315.9581282486315, 0.6718613522447705
1266.3795120250193, 0.5218187579448247
1228.1331509382326, 0.5231875785082931
1175.721470930414, 0.5151605022520551
1107.7279401094602, 0.5815401087821037
1097.8122168647378, 0.5831401359482712
1069.481579022674, 0.5383856305840579
1024.1525584753713, 0.5341675892893116
1001.4880482017197, 0.5553300388636264
934.9110492728691, 0.61010533674395
898.0812200781857, 0.6247798221243955
875.4167098045345, 0.6502022754693413
851.3356676387803, 0.6478302488142365
766.3437541125877, 0.6451771276731789
699.7667551837371, 0.36999288273441416
668.6030535574664, 0.5261250747380712
661.5203940969504, 0.5358562476707713
648.7716070680217, 0.5334368361866966
617.607905441751, 0.5965083249753722
609.1087140891318, 0.6097017536949766
592.1103313838935, 0.6155110018693674
585.0276719233775, 0.6175984755773556
573.6954167865515, 0.615512670572223
565.1962254339323, 0.6160099524039777
553.8639702971068, 0.608470977320201
543.9482470523844, 0.597728134657329
535.4490556997653, 0.5969311604973038
517.0341411024233, 0.5966730134692042
498.61922650508177, 0.5985761895624147
491.5365670445658, 0.6012780085185059
481.62084379984344, 0.606396676307858
461.7893973103983, 0.6130730521395051
453.2902059577791, 0.6189301023185798
446.20754649726314, 0.6184104093977472
437.708355144644, 0.6134266867774987
429.2091637920248, 0.6188148277293442
419.29344054730245, 0.6111998568259496
405.12812162627006, 0.5994599474452846
396.6289302736509, 0.6155131473444675
386.71320702892854, 0.6162206540753811
##END=

##END=

