##TITLE=X8423
##JCAMP-DX=4.24
##DATA TYPE=INFRARED SPECTRUM
##DATE=31/10/2018
##SAMPLING PROCEDURE=Diamant-ATR
##ORIGIN=ComPlat
##XUNITS=1/CM
##YUNITS=TRANSMITTANCE
##RESOLUTION=4
##FIRSTX=3997.453
##LASTX=373.96442
##DELTAX=-1.4165319
##MAXY=0.99478775
##MINY=0.10746312
##XFACTOR=1
##YFACTOR=9.2646829e-010
##NPOINTS=2559
##FIRSTY=0.98506355
##XYDATA=(X++(Y..Y))
3997+1063245835+1062137466+1061361711+1061261734+1061677919+1062037232
3989+1062028675+1061981903+1062261183+1062624613+1062578485+1062102789
3980+1061641441+1061472689+1061436468+1061296346+1061092789+1061015458
3972+1061153843+1061528597+1062120353+1062715455+1062957034+1062657939
3963+1061970516+1061313266+1061110932+1061402885+1061806461+1062045016
3955+1062281191+1062709214+1063114463+1063173587+1062976528+1062867544
3946+1062869924+1062750003+1062569285+1062648546+1062981288+1063227242
3938+1063307469+1063418447+1063542872+1063394836+1062892892+1062391848
3929+1062260540+1062457921+1062696347+1062771234+1062689978+1062534351
3921+1062289555+1061994449+1061961831+1062492340+1063299234+1063728865
3912+1063544995+1063083968+1062772327+1062696090+1062647967+1062442158
3904+1062133992+1061952373+1061975599+1062073131+1062109545+1061924516
3895+1061359652+1060608344+1060408068+1061332953+1062605570+1062948284
3887+1062204246+1061237158+1060892899+1061116593+1061495657+1061922265
3878+1062284794+1062294702+1061827177+1061069307+1060382463+1060105692
3870+1060494535+1061384614+1062086706+1062245357+1062249860+1062521548
3861+1062673315+1062190157+1061363963+1060821873+1060736178+1060859188
3853+1061130490+1061662800+1062145701+1062317863+1062238408+1062016323
3844+1061681522+1061278525+1060927447+1060713468+1060635751+1060659684
3836+1060709286+1060762234+1061027360+1061783944+1062853390+1063552265
3827+1063414587+1062664180+1061852075+1061272606+1061043380+1061243334
3819+1061587978+1061736657+1061834962+1062246643+1062962117+1063591509
3810+1063755307+1063315382+1062539047+1061968200+1061825440+1061913129
3802+1062033114+1061943817+1061481568+1060962510+1060896309+1061393621
3793+1062053637+1062530555+1062839751+1063066661+1063086477+1062722403
3785+1062101889+1061575240+1061226864+1060873084+1060531270+1060430521
3776+1060554367+1060710251+1060880483+1061154422+1061515151+1061855163
3768+1062139589+1062426396+1062737136+1062945389+1062856285+1062499352
3759+1062260733+1062416038+1062534801+1062000432+1060788869+1059497402
3751+1059015787+1059573768+1060253985+1060535002+1060889618+1061836634
3742+1062808612+1062921907+1062041028+1060467836+1058907125+1058382535
3734+1059156103+1060371526+1061444446+1062287303+1062635615+1062224898
3725+1061381462+1060784752+1060560093+1060462625+1060668047+1061446826
3717+1062474455+1063109251+1063020790+1062342439+1061558255+1061095942
3708+1060760947+1060168419+1059418076+1058971396+1059139954+1059742198
3700+1060302623+1060576176+1060602490+1060512484+1060449950+1060430135
3691+1060281199+1059913008+1059567141+1059422322+1059250354+1058819951
3683+1058105507+1057221861+1056358738+1055642235+1055044946+1054649992
3674+1054756016+1055272951+1055889669+1056726994+1057937784+1058938392
3666+1059025373+1058178077+1056942517+1055916497+1055219038+1054635323
3657+1054217658+1054205692+1054265202+1053715392+1052481698+1051267497
3649+1051071532+1052086036+1053474328+1054521771+1054986144+1055084062
3640+1055295082+1055688107+1055736487+1055156890+1054477959+1054392071
3632+1054827043+1055171044+1055291415+1055747874+1056479882+1056834498
3623+1056695598+1056380548+1056238431+1056476343+1056892207+1056886352
3615+1056220996+1055382771+1055012843+1055171237+1055615987+1056317949
3606+1057112684+1057575641+1057631162+1057652779+1057974327+1058523815
3598+1058948364+1058928999+1058342904+1057428635+1056726801+1056579022
3589+1056906425+1057482226+1058151442+1058719137+1058907318+1058659048
3581+1058299478+1058253993+1058610089+1059080251+1059350331+1059313145
3572+1059015080+1058486565+1057721039+1056962783+1056897160+1057802745
3564+1058800457+1058965670+1058266345+1057365586+1056937306+1057120147
3555+1057662751+1058388067+1059295968+1060256623+1060885951+1060917347
3547+1060524322+1060177490+1060246136+1060818335+1061748430+1062635422
3538+1062996472+1062691458+1062034851+1061451137+1061193281+1061335591
3530+1061797647+1062357429+1062699049+1062572244+1062122347+1061943624
3521+1062448592+1063397474+1064319077+1064988100+1065356549+1065460000
3513+1065466241+1065528260+1065591952+1065476148+1065043364+1064296624
3504+1063452416+1062806361+1062366050+1061867065+1061275823+1060909819
3496+1060962639+1061122898+1060909884+1060354091+1059979595+1060055897
3488+1060298183+1060487908+1060801414+1061216635+1061255493+1060697706
3479+1060003206+1059707392+1059931987+1060539698+1061265272+1061725527
3471+1061717357+1061511676+1061607214+1062198713+1063008181+1063611968
3462+1063843125+1063920134+1064240588+1065027538+1066131468+1067161541
3454+1067849865+1068238321+1068467484+1068550669+1068505313+1068523520
3445+1068753326+1069068762+1069278559+1069356984+1069301141+1068996771
3437+1068467484+1068080378+1068189941+1068640610+1068981008+1069155100
3428+1069531140+1070199841+1070776865+1071017286+1071131674+1071350800
3420+1071576553+1071613289+1071437782+1071106326+1070624068+1070046144
3411+1069590328+1069484625+1069709799+1069977177+1069951507+1069503669
3403+1068877879+1068613010+1069105433+1070211615+1071338963+1071877771
3394+1071605375+1070902447+1070534385+1070912226+1071624998+1071933228
3386+1071585367+1070983767+1070680619+1070840300+1071124533+1071046301
3377+1070492181+1069855840+1069590200+1069717391+1069905314+1069970872
3369+1070118650+1070628636+1071446081+1072167473+1072382096+1071993768
3360+1071281511+1070651990+1070284507+1070019638+1069593223+1068956432
3352+1068356698+1068090479+1068203323+1068523713+1068921884+1069352995
3343+1069715075+1069890324+1069888844+1069808039+1069720286+1069644885
3335+1069553786+1069467255+1069575660+1070064094+1070774356+1071275464
3326+1071312521+1070986534+1070508715+1070017644+1069651511+1069583316
3318+1069870830+1070371488+1070909975+1071419639+1071794200+1071808804
3309+1071440034+1071092301+1071184622+1071625512+1072013905+1072259987
3301+1072658159+1073296558+1073741823+1073527779+1072751831+1071962822
3292+1071579062+1071608592+1071851008+1072155378+1072457111+1072725968
3284+1072951335+1073107991+1073156822+1073118092+1073045007+1072915050
3275+1072695602+1072466439+1072299682+1072117163+1071858857+1071637736
3267+1071582408+1071704580+1071990294+1072420247+1072834309+1072963172
3258+1072703901+1072271954+1071964945+1071814980+1071611616+1071218656
3250+1070683579+1070084359+1069475490+1068965439+1068702436+1068762719
3241+1069085618+1069502382+1069840979+1069994869+1069919854+1069710700
3233+1069637100+1069845161+1070068211+1069944173+1069543428+1069219950
3224+1069037302+1068747471+1068269267+1067814352+1067520982+1067277859
3216+1066976384+1066710743+1066670984+1066939198+1067335632+1067429819
3207+1066909539+1066004213+1065298904+1065084925+1065147781+1065179498
3199+1065106863+1064984112+1064853189+1064785444+1064835497+1064887544
3190+1064746586+1064453731+1064323130+1064576676+1065071222+1065423200
3182+1065335511+1064818255+1064175545+1063740188+1063554581+1063373605
3173+1063011655+1062629632+1062594311+1062995635+1063402621+1063293829
3165+1062656781+1061940278+1061507816+1061394007+1061471145+1061561794
3156+1061489545+1061228794+1060931565+1060736178+1060696869+1060851660
3148+1061145158+1061370396+1061426368+1061528404+1061893121+1062306925
3139+1062277396+1061610174+1060652349+1059951159+1059788969+1060036532
3131+1060315297+1060288211+1059898468+1059369825+1058953832+1058732390
3122+1058664967+1058645666+1058488688+1058064075+1057498631+1057089008
3114+1057002156+1057159842+1057368867+1057448450+1057286582+1056915753
3105+1056549685+1056410592+1056469910+1056502978+1056426097+1056366780
3097+1056391356+1056422623+1056429893+1056408727+1056188571+1055551265
3088+1054582697+1053688693+1053185848+1053016132+1052929858+1052810130
3080+1052682167+1052513673+1052225386+1051904546+1051774074+1051857324
3071+1051848960+1051456900+1050765424+1050141307+1049884159+1050021837
3063+1050321189+1050473149+1050340361+1050023895+1049704149+1049538936
3054+1049629327+1049882679+1049980855+1049635696+1048831762+1047823434
3046+1046987396+1046548822+1046368876+1046135532+1045690846+1044999885
3037+1044056150+1043050975+1042334858+1042038980+1041989956+1041969691
3029+1041789809+1041301761+1040598705+1039983209+1039549910+1039038766
3020+1038232966+1037310976+1036667108+1036461235+1036439747+1036250602
3012+1035864268+1035539053+1035382075+1035122095+1034390924+1033132139
3003+1031622060+1030124012+1028666109+1027193023+1025794888+1024668698
2995+1023885608+1023293594+1022698557+1022101911+1021660892+1021413330
2986+1021176254+1020778019+1020262821+1019768211+1019310980+1018814311
2978+1018303167+1017925390+1017743385+1017616323+1017360140+1016910436
2969+1016264895+1015452597+1014656383+1014140478+1013914983+1013711554
2961+1013414454+1013254838+1013435106+1013861906+1014437772+1015326436
2952+1016670401+1018248032+1019666819+1020774480+1021674853+1022472418
2944+1023247659+1024176275+1025421292+1026926739+1028503663+1030105998
2935+1031876764+1033873990+1035872567+1037561434+1038900445+1040126419
2927+1041406950+1042630608+1043539344+1043975538+1044022889+1043921689
2918+1043786585+1043517020+1043086166+1042698224+1042512231+1042462692
2910+1042494217+1042680468+1042966181+1043097811+1043003109+1043023246
2901+1043530337+1044420481+1045215344+1045633073+1045832062+1046088181
2893+1046477539+1046961341+1047587967+1048480684+1049645539+1050873122
2884+1051892772+1052580324+1052944076+1053012143+1052885660+1052796619
2876+1052923617+1053206822+1053489382+1053759462+1054104621+1054480854
2867+1054699916+1054688336+1054607080+1054641435+1054826978+1055122342
2859+1055475671+1055781264+1055930072+1055925375+1055835692+1055682767
2850+1055447364+1055117517+1054709888+1054303610+1054022143+1053902479
2842+1053870054+1053904538+1054145603+1054693868+1055348545+1055719438
2833+1055664238+1055441638+1055336192+1055316120+1055206750+1055025967
2825+1054950116+1055021271+1055067335+1054916147+1054601933+1054335456
2816+1054295440+1054458401+1054627153+1054634487+1054490054+1054296147
2808+1054087765+1053868124+1053722341+1053732956+1053828429+1053888454
2799+1053943718+1054091497+1054281672+1054362027+1054278262+1054098831
2791+1053937414+1053922230+1054116909+1054405003+1054557220+1054450166
2782+1054143608+1053769949+1053420479+1053151107+1053060266+1053285311
2774+1053826821+1054415296+1054693997+1054560887+1054228209+1053970418
2765+1053937414+1054160271+1054524859+1054717222+1054461811+1053898748
2757+1053487324+1053454641+1053578487+1053573855+1053442868+1053378404
2748+1053490862+1053670808+1053687728+1053448851+1053108967+1052860890
2740+1052737560+1052702947+1052772687+1052943561+1053125116+1053219689
2731+1053204248+1053091468+1052881992+1052603227+1052347945+1052213999
2723+1052246938+1052443225+1052719288+1052868289+1052706100+1052285282
2714+1051829852+1051487009+1051281136+1051244465+1051422095+1051755416
2706+1052093241+1052347945+1052546419+1052698379+1052741677+1052675219
2697+1052587658+1052483306+1052270421+1051981748+1051779349+1051693719
2689+1051584606+1051384459+1051171252+1050987124+1050758476+1050431717
2680+1050108239+1049987096+1050161444+1050509563+1050808593+1050932182
2672+1050917963+1050889206+1050916355+1050961647+1050984422+1051028749
2663+1051098810+1051049272+1050789614+1050497146+1050404632+1050460025
2655+1050443941+1050341197+1050354965+1050576471+1050861155+1051035247
2646+1051042195+1050895510+1050664868+1050545333+1050744773+1051224007
2638+1051688508+1051902744+1051879455+1051735537+1051549029+1051395203
2629+1051318773+1051233400+1051003143+1050650328+1050377804+1050374073
2621+1050634438+1050964671+1051177621+1051271550+1051352098+1051436635
2612+1051467709+1051458895+1051459024+1051433868+1051350683+1051332991
2604+1051534875+1051856359+1051999698+1051856101+1051608861+1051402794
2595+1051233979+1051249162+1051709224+1052475136+1052982356+1052929343
2587+1052576850+1052210332+1051772530+1051230311+1050845972+1050787105
2578+1050803382+1050600919+1050306134+1050236652+1050394145+1050553504
2570+1050763173+1051332412+1052259870+1053061231+1053274631+1052865137
2561+1052106237+1051381306+1051084528+1051349203+1051879133+1052306770
2553+1052570481+1052742256+1052761364+1052570352+1052259419+1051946557
2544+1051711861+1051612206+1051565113+1051379955+1051064455+1050888112
2536+1051034603+1051405625+1051780700+1051981877+1051951511+1051819108
2527+1051786040+1051865945+1051882800+1051727173+1051457351+1051188493
2519+1051042838+1051145003+1051500134+1051895603+1052030450+1051739719
2510+1051101126+1050414153+1050047056+1050108368+1050236974+1049961940
2502+1049290022+1048690417+1048540709+1048850805+1049374237+1049699710
2493+1049463921+1048751793+1048057100+1047699781+1047564034+1047445335
2485+1047338024+1047305792+1047276455+1047055527+1046539558+1045887520
2476+1045385575+1045148049+1045074964+1045033918+1044934327+1044724144
2468+1044465451+1044302940+1044265883+1044290524+1044447630+1044835637
2459+1045239405+1045301618+1045075479+1044967589+1045098318+1045165355
2451+1044986182+1044790795+1044893539+1045316929+1045858118+1046462098
2442+1047298393+1048317465+1049034933+1049108790+1048854987+1048815678
2434+1049040723+1049138062+1048852220+1048311031+1047797378+1047509864
2425+1047529808+1047804069+1048108890+1048270372+1048403546+1048665776
2417+1048906584+1048935535+1048918872+1049089425+1049290280+1049207223
2408+1048876925+1048682954+1048937593+1049594200+1050307421+1050732099
2400+1050770507+1050559358+1050298607+1050126124+1050017526+1049753687
2391+1049151701+1048364108+1047725065+1047294919+1046853064+1046322040
2383+1045807036+1045186457+1044079825+1042315815+1040125390+1037852551
2374+1035764612+1034114154+1033064716+1032485119+1031978349+1031208513
2366+1030199285+1029212381+1028372804+1027641891+1027085648+1026861696
2357+1026976856+1027322209+1028005257+1029396701+1031515392+1033614590
2349+1034746184+1034478806+1033125899+1031473124+1030117643+1029265200
2340+1029091687+1029648960+1030656580+1031729886+1032506671+1032649238
2332+1032184866+1031679576+1031619680+1031877793+1032149481+1032493418
2323+1033102609+1033888337+1034638358+1035370044+1036245905+1037345525
2315+1038575809+1039621966+1040181619+1040453243+1041027371+1042098876
2306+1043196373+1043823320+1043940411+1043755897+1043480284+1043361521
2298+1043610435+1044177808+1044764868+1045122058+1045307472+1045642016
2289+1046415584+1047649214+1049092963+1050340296+1050976959+1050819981
2281+1050063526+1049120563+1048379227+1048121049+1048385274+1048779264
2272+1048712355+1048011743+1047110212+1046557636+1046588968+1047234830
2264+1048495674+1050098653+1051289564+1051352549+1050382629+1049201239
2255+1048520507+1048506418+1048936435+1049332677+1049201497+1048552032
2247+1047871235+1047388913+1046771873+1045660930+1044214351+1043119106
2238+1043047501+1043943499+1045076894+1045859469+1046061096+1045401788
2230+1043877169+1042306744+1041590627+1041553892+1041196251+1039954194
2221+1038298974+1037078790+1036492245+1035999887+1035186366+1034258265
2213+1033641932+1033432457+1033248007+1032578534+1031361760+1030022941
2204+1029025100+1028745756+1029376436+1030406637+1030823337+1030160555
2196+1028686825+1026795238+1025075233+1024415281+1025201973+1026879710
2187+1028496843+1029234448+1028737328+1027314681+1025352518+1022665939
2179+1019133479+1015563962+1013034747+1011700432+1010997440+1010803597
2170+1011563526+1013342913+1015510628+1017389734+1018548027+1018476486
2162+1016667441+1013124559+1008476396+1003563299+999019745+995078820+991409519
2152+987037740+981133880+974156005+967254625+960330085+951799477+940275218
2142+925371295+907211554+886179434+862705401+836634923+807357265+774871590
2132+740130832+704254106+668045409+632336470+598195832+566614132+538455362
2122+514907859+497533491+487657889+485962524+492692933+507901066+531188204
2112+561291799+596323288+634426982+673769581+712196496+747901125+780345626
2102+809654615+835545147+857855933+877399398+895111687+911004444+924785458
2092+936665556+946920222+955441565+962158238+967481987+972141730+976695771
2082+981154467+985102340+988326956+991278596+994735720+999028881+1003697117
2072+1007870099+1010860277+1012524053+1013320975+1013995080+1015082347
2064+1016727144+1018796362+1020933967+1022719981+1024051915+1025130690
2055+1025962353+1026314010+1026328549+1026685868+1027782978+1028912128
2047+1028919076+1027950572+1027462460+1028111667+1028967971+1029254713
2038+1029648896+1031342588+1034648201+1038502981+1040974295+1041027050
2030+1039826038+1039271274+1039611930+1039577124+1038360157+1036614997
2021+1035757407+1036551112+1038229685+1039315472+1039388557+1039319332
2013+1039797280+1040393540+1040032618+1038351214+1036579805+1036205052
2004+1036933071+1037497742+1037825595+1038786314+1040501816+1042093343
1996+1042647271+1041854016+1040193907+1038806001+1038652947+1039597004
1987+1040662011+1041143496+1041209762+1041299381+1041368027+1041288701
1979+1041425221+1042072756+1042921532+1043636684+1044126533+1044080662
1970+1043144518+1041659016+1040591885+1040335573+1040169781+1039719177
1962+1039878021+1041271459+1042977761+1043842492+1043769858+1043073814
1953+1041893067+1040479556+1039284527+1038702357+1038764569+1038972951
1945+1038848527+1038611129+1038748549+1039171490+1039357226+1038896778
1936+1037786929+1036628250+1036198876+1036638093+1037414428+1037940691
1928+1038039252+1038100049+1038676494+1039682119+1040330877+1040150159
1919+1039578733+1039441184+1040025606+1040746869+1040984717+1040767328
1911+1040400359+1040002895+1039608648+1039277386+1038977197+1038613381
1902+1038138650+1037718412+1037764090+1038350893+1038843380+1038697789
1894+1038194815+1037820448+1037617277+1037429032+1037185844+1037008986
1885+1037154449+1037647579+1038222544+1038672119+1038868020+1038734653
1877+1038497384+1038385119+1038206074+1037790403+1037283698+1036728549
1868+1036126241+1035788996+1035855454+1036078698+1036222680+1036082300
1860+1035542720+1034791734+1034081857+1033540540+1033318712+1033365419
1851+1033341873+1033193773+1033162377+1033186438+1032987835+1032471866
1843+1031760574+1031188119+1030961144+1030778367+1030270246+1029550334
1834+1028799412+1027894536+1026845419+1025957785+1025537739+1025640033
1826+1025879553+1025683009+1025037468+1024359502+1023718015+1022982855
1817+1022120633+1021069844+1019937413+1018975986+1018063389+1016911658
1809+1015619612+1014294111+1012858468+1011458917+1010271158+1009234330
1800+1008286799+1007265476+1005957603+1004554128+1003106776+1000955853
1792+997896515+994970222+992581194+990038340+986753249+982463498+977265139
1782+971403418+964596290+956427761+947117667+936667743+923751460+905863343
1772+881375514+852090843+819837226+783711071+744503447+704432057+661594055
1762+612780201+562351466+517002521+475148109+434078428+396756955+364834825
1752+334860769+303959769+274417339+250466968+232836031+219969109+211014741
1742+206470656+207566142+214729479+226361066+242191112+267675028+308356478
1732+355127749+396964050+436671463+476730630+514938997+550937671+585443862
1723+616208310+641386907+663400784+686575529+711588141+733387139+749435330
1713+762009349+773137302+783466082+793751693+805094141+817031498+827448996
1703+836092898+845373978+856609500+867095451+875462197+883599136+891454480
1693+897610600+902586037+907516311+912158234+915919792+919726835+924877522
1683+930141889+933853909+936442376+938503294+940499748+942964628+945762314
1673+948132878+949864914+951319536+952753377+954014028+954910991+955591145
1663+956406338+957464332+958444867+958988179+958893413+958238479+957701086
1653+958287374+959201901+959187297+958814859+959115691+960564652+962260531
1643+963398108+964124583+964672012+965108720+965800518+967500901+969991643
1633+971929745+973053105+973875246+974781087+975862114+976952662+978019599
1623+979297749+980663846+981625659+982232920+983132457+984688986+986257738
1613+987225856+987761705+988299677+989125421+990145715+991086234+991878845
1604+992596055+993250925+993846155+994408189+994912578+995309913+995595240
1594+995829613+996100272+996417896+996717891+996995241+997313572+997692958
1584+998120595+998561742+998875441+998887150+998588698+998256535+998247721
1574+998428439+998422327+998167624+997897866+997794028+997768166+997722101
1564+997563579+997112910+996303057+995586426+995892212+996741760+997110015
1554+996954517+996535372+996134498+995929269+995922256+996010138+996045909
1544+995848721+995364405+994953430+995202537+995866928+996298875+996457591
1534+996544894+996623769+996565610+996306853+995902441+995409632+994877129
1524+994359873+993996957+994071908+994636386+995327669+995896715+996325703
1514+996604854+996718856+996691578+996543350+996372025+996580600+997311899
1504+997822143+997818604+997511017+997139416+996954002+997136907+997524592
1494+997710006+997493840+996919904+996245606+995932679+996137715+996495484
1485+996636636+996414229+995864097+995110473+994185138+992991589+991458671
1475+989569271+987378138+985249282+983490740+981758254+979403903+975887140
1465+971213886+966217540+961558182+956928226+951461138+944691903+938182325
1455+933612651+930221472+926990937+923500295+919533379+914998960+910122664
1445+905194256+900153003+894893976+889630316+884498802+879369281+874761328
1435+871927228+871042166+871593649+873694519+877553545+882643435+888426988
1425+894885548+901645519+907882893+913559071+919428190+925356562+930216839
1415+933864717+936983758+940054870+943108031+945811016+947785146+948905739
1405+949261191+948937392+947780321+945323676+941106624+935011623+926846311
1395+916068471+903084829+889628708+876615279+863322248+848795523+833236024
1385+817391647+800460517+780204860+754942112+725043875+692788070+660332053
1375+628281928+597467685+570770388+550499998+536916911+530795951+533802245
1366+546987610+571492423+607511331+650214357+692407205+731135080+766581661
1356+798520550+826005569+848596277+866885010+881957942+894665135+905438151
1346+914492963+922008423+928251845+933564014+938127447+941822612+944464349
1336+946104514+946992663+947412644+947657697+948102448+949134644+950890419
1326+953056525+954939942+955771026+955061150+952743084+949050171+944346808
1316+939020165+933486811+928302670+924094818+921257823+919842253+919643070
1306+920182972+920760125+920746679+919782035+917688048+914410099+910090560
1296+905065585+899729291+894426322+889451336+885048225+881350488+878360503
1286+876006409+874167513+872623143+871042745+869083992+866516433+863227482
1276+859118899+854054100+847941665+840812281+832759427+823827625+813970615
1266+803041715+790815365+777073145+761716944+744838828+726647562+707240938
1256+686530558+664481489+641276700+617118011+592029612+566018580+539362844
1247+512651040+486578953+461721036+438399542+416700457+396626869+378180868
1237+361173115+345013817+328883727+312165644+294715779+276834642+259031078
1227+241741424+225234377+209701785+195270293+181895830+169371028+157507496
1217+146336035+136157350+127428766+120683022+116590056+115992228+119827193
1207+129016385+144227429+165477839+191909624+221979942+253888320+285961092
1197+316911565+346017545+373163870+398650280+422877711+446130012+468498313
1187+489924552+510359833+529870777+548490805+566001210+581968917+595977421
1177+607756963+617159507+624111390+628651020+631091967+632216291+633228286
1167+635344146+639308618+645274433+653056371+662317699+672458620+682574257
1157+691792931+699600474+705748487+710053743+712432478+712918853+711471758
1147+707862996+701805696+693138440+681946344+668595734+653593957+637351923
1137+620122986+602149174+583754802+565258330+546863829+528729340+511191046
1128+494941646+480974252+470319935+463816212+462077936+465494207+474030090
1118+487071537+503632384+522698578+543329053+564591172+585615315+605740758
1108+624509819+641469899+656021651+667457899+675078226+678246677+676365383
1098+668826569+655152094+635451972+610792175+583001950+554139061+526178830
1088+500975753+480211010+465267231+457088152+455992264+461493610+472248258
1078+486180686+500828747+513842723+523454679+528818701+530106888+528153667
1068+523781341+517333558+508692261+497555237+483716675+467263267+448671836
1058+428820912+408902050+390189379+373758039+360309510+350172256+343458993
1048+340226078+340442695+343836127+349845947+357703318+366590987+375929807
1038+385638620+396101024+407883944+421420805+436705046+453056128+469173801
1028+483518200+494785021+502243802+505818627+505932919+503373145+499318218
1018+495241159+492504623+492060871+494569498+500529491+510050991+522628710
1009+537300060+552896810+568116427+581693434+592803952+601272348+607324951
999+611214923+613068231+612938273+610929724+607387871+603051670+598946947
989+596035452+594977457+596167982+599789418+605737413+613620035+622911022
979+633067190+643512739+653518942+661991841+667349751+667793794+661912515
969+649205965+630328950+607180004+582711218+560124370+541755475+528525525
959+520222440+515976855+514496820+514344120+514464492+514604099+515206921
949+516900131+520052691+524724401+530825899+538098044+545922603+553341175
939+559434953+563790133+566640253+568541876+569939626+571128543+572563542
929+574925614+578711169+583786326+589367609+594415231+598138445+600330285
919+601342988+601738972+601925287+602065988+602239308+602584917+603275686
909+604352402+605619100+606806087+607864403+608961642+610134926+611060068
899+611167122+609935486+607264862+603800598+600851530+599849893+601819005
890+607175629+615758477+626905281+639554057+652479154+664717793+675879072
880+685974573+695066056+703229051+710615455+717260394+722972921+727620891
870+731359096+734446548+737020155+739148496+740933287+742493805+743988057
860+745625906+747506492+749521217+751591850+753879421+756541424+759414898
850+762214964+764969546+767955477+771217729+774463704+777479615+780322915
840+782990130+785210663+786755869+787772303+788702978+789964144+791718054
830+793971527+796878584+800686013+805212068+809698814+813442937+816330435
820+818620066+820505219+822019673+823152297+823973022+824697310+825558052
810+826526620+827167915+826757970+824535249+819894484+812456998+802092061
800+788967075+773598844+756821154+739608751+722843285+707199506+693184569
790+681284591+672164608+666787268+666235206+671188255+681422848+695799993
781+712725911+730615444+748027801+763669264+776680120+787012632+795241828
771+801927106+807364149+811772985+815335168+818106605+820149381+821665314
761+822927445+824238856+825902568+827998613+830236582+832190832+833609490
751+834465600+834843056+834793196+834251685+833152902+831519943+829258041
741+826096860+822103759+817995755+814502797+811631769+808933416+806192024
731+803363778+800143409+796262122+792111400+788435794+785432492+782645935
721+779705875+776790777+774405480+772906596+772238345+772060264+772094491
711+772244328+772435082+772597014+772777925+773038354+773324132+773567513
701+773731182+773736457+773563202+773312552+772952081+772181215+770683681
691+768310544+765080782+761298507+757572527+754474973+752300632+751181841
681+751220764+752556365+755318410+759235788+763491956+767290765+770278369
671+772467700+774443181+777672364+782559597+786769058+789173720+790732694
662+792413133+794071247+794768320+794079160+792599512+791206202+790279837
652+789639379+788892961+787774684+786184121+783968670+780914736+777034930
642+772618888+767993242+763467187+759440567+756304799+754153104+752742552
632+752023990+752663033+755572599+760796177+767243993+773675725+779514413
622+784479685+787941827+789064414+787530274+783926144+778959392+772328800
612+763208816+751821527+739368652+726233371+711507400+694740712+677251088
602+661463712+649850863+644612487+647229134+657390320+672385406+688235316
592+702201938+714321041+726383787+739932615+755244939+771307155+786546201
582+799825077+810624278+818763533+824374475+827591756+828066294+825179825
572+818551934+808218458+795207152+782317697+773249889+770174338+772512091
562+778016301+784386978+789911389+793676807+796067251+798583213+802343934
552+806956713+811374620+815462552+819930769+824809768+828939195+831326487
543+832214893+832385703+832196751+831785969+831637677+832405905+834295047
533+836771057+838839953+839771721+839695934+839399413+839546097+840131806
523+840766345+841235865+841479503+841053152+838853206+833703291+825225696
513+814088349+801607102+788926865+776681986+765879247+758284590+755003360
503+755514246+758555764+763403559+770104535+778583545+787515091+794135325
493+795600048+790898679+781548375+770422544+760346152+753578075+751199469
483+752447574+755542039+759651909+765473163+773666782+783459391+793414126
473+802544210+809593368+812323760+808697949+798379656+783241616+766268154
463+749940877+736223426+727303718+725417085+730819258+739724812+747789632
453+754198460+759698359+763754959+764509870+760233050+751026664+739920327
443+731794003+730349481+735189686+742488079+748212315+749658252+746224096
433+740455854+737110160+740236986+750630487+765662952+781768209+796795527
424+810340366+822327518+831085872+833850040+832344786+832427264+834953713
414+837591332+839439108+840743571+840625451+837009419+829143396+818873804
404+808886902+800502014+793577795+787732158+782827361+779054544+777782377
394+780285086+785374011+790403232+794305299+797994995+801149806+799931552
384+790882338+777527803+767129347+763026747+763934326+767186348+771890226
374+778686289
##END=
