##TITLE=NiW-1293.1 x12603
##JCAMP-DX=4.24
##DATA TYPE=INFRARED SPECTRUM
##DATE=25/2/2020
##SAMPLING PROCEDURE=Diamant-ATR
##ORIGIN=Angelika Moesle
##XUNITS=1/CM
##YUNITS=TRANSMITTANCE
##RESOLUTION=4
##FIRSTX=3997.453
##LASTX=373.96442
##DELTAX=-1.4165319
##MAXY=0.97521383
##MINY=0.45348513
##XFACTOR=1
##YFACTOR=9.0823865e-010
##NPOINTS=2559
##FIRSTY=0.97400928
##XYDATA=(X++(Y..Y))
3997+1072415574+1072794568+1072534096+1071545693+1070527299+1070197854
3989+1070517258+1070874727+1070874595+1070622261+1070321035+1070010227
3980+1069824372+1070065747+1070762899+1071503233+1071931119+1072091051
3972+1072116645+1071964523+1071643740+1071372045+1071343695+1071574766
3963+1071988607+1072397396+1072459413+1071988017+1071284827+1070858714
3955+1070829379+1070882077+1070814547+1070799715+1071027243+1071362201
3946+1071542215+1071514127+1071379658+1071195903+1070936088+1070554337
3938+1070066141+1069689182+1069893412+1070984783+1072438216+1073046706
3929+1072317003+1071101335+1070477095+1070694385+1071224123+1071560131
3921+1071716323+1071888396+1072042553+1071963604+1071534406+1070882077
3912+1070361658+1070303775+1070596863+1070741111+1070544362+1070451107
3904+1070912068+1071675897+1072273230+1072699738+1072919324+1072533834
3895+1071392258+1070016396+1069401409+1070117002+1071263302+1071497327
3887+1070748789+1070035559+1070049931+1070422362+1070812447+1071308912
3878+1071625495+1071312916+1070594829+1070152112+1070319460+1070859108
3870+1071421725+1071788906+1072025883+1072470569+1073215957+1073741823
3861+1073565944+1072872795+1071998714+1071000992+1069937710+1069424903
3853+1070355751+1071891152+1072434934+1071971807+1071255230+1070859698
3844+1070812250+1070686509+1070175475+1069566263+1069496502+1070195097
3836+1071194722+1072110214+1072942425+1073519742+1073485420+1072921818
3827+1072356314+1072040518+1071705100+1071191178+1070825835+1070809625
3819+1070784884+1070727723+1071137758+1072016499+1072721198+1072948397
3810+1072771861+1072339054+1072004030+1071961766+1071684494+1070757714
3802+1069765571+1069577354+1069987323+1070320182+1070514502+1070747214
3793+1071024158+1071284696+1071455457+1071422578+1071167421+1070838435
3785+1070565756+1070336916+1070212291+1070460951+1071152787+1071799078
3776+1071963407+1071778930+1071431044+1070887458+1070308238+1070061153
3768+1070155984+1070379114+1070754105+1071160137+1071169981+1070694516
3759+1070206976+1070074672+1070054591+1069795497+1069305134+1068928700
3751+1069271993+1070537931+1071925212+1072642905+1072577213+1072261942
3742+1072341154+1072569075+1072252886+1071113279+1069768130+1069527215
3734+1070705016+1071920356+1072143224+1071608761+1070936219+1070633746
3725+1070938909+1071539393+1071851907+1071720523+1071397049+1071033740
3717+1070574288+1069989161+1069393337+1069074260+1069420965+1070445988
3708+1071504480+1071884327+1071398887+1070574747+1070285596+1070747411
3700+1071083682+1070643721+1069856201+1069401277+1069416831+1069581554
3691+1069578076+1069377980+1069262018+1069396290+1069575188+1069688000
3683+1069882255+1070113261+1069834282+1068601223+1067011418+1066524337
3674+1067437204+1068220851+1068357945+1068697826+1069570397+1070200676
3666+1070178559+1069896102+1069829229+1070049537+1070203366+1070027093
3657+1069713595+1069473926+1068998789+1068028565+1067028087+1066836523
3649+1067498958+1067702270+1066888959+1065959686+1065702626+1066134712
3640+1066670356+1066741693+1066431213+1066304291+1066568766+1066644368
3632+1065888415+1064615127+1064092674+1064926000+1065945182+1066266293
3623+1066040538+1065640018+1065428832+1065556738+1065511915+1064707529
3615+1063472436+1062606230+1062396619+1062492106+1062640225+1062882584
3606+1063066601+1062904635+1062416766+1061860187+1061415107+1061096555
3598+1060935114+1061059345+1061438404+1061622421+1061108171+1059980509
3589+1058912698+1058609765+1059036273+1059381206+1059180979+1058654982
3581+1058161076+1057831368+1057559017+1057241712+1056997581+1057039517
3572+1057367256+1057735487+1057932564+1057925017+1057722099+1057264550
3564+1056573371+1055808492+1055140938+1054717515+1054602603+1054622225
3555+1054429611+1053898692+1053289480+1052864022+1052583862+1052362175
3547+1052272661+1052366835+1052547964+1052723975+1052880757+1052966072
3538+1052835015+1052399058+1051850419+1051531605+1051482713+1051402386
3530+1051105885+1050742773+1050506189+1050368766+1050160074+1049753714
3521+1049202581+1048733351+1048509826+1048407908+1048106157+1047466494
3513+1046809572+1046677793+1047218819+1047898383+1048019399+1047412680
3504+1046450725+1045593969+1044973470+1044393921+1043778934+1043347898
3496+1043239811+1043280762+1043320400+1043458610+1043740542+1043963279
3488+1043923903+1043608698+1043079222+1042403465+1041714320+1041163056
3479+1040825735+1040748427+1040974642+1041377721+1041541197+1041064419
3471+1040075885+1039215061+1038912784+1038913966+1038790784+1038604470
3462+1038613068+1038683222+1038521387+1038198964+1037995783+1037981542
3454+1038011403+1037903709+1037561401+1037124459+1036875668+1036777425
3445+1036402697+1035569173+1034646791+1034037119+1033687789+1033291273
3437+1032725834+1032103102+1031519025+1030971174+1030569408+1030569474
3428+1030960543+1031216093+1030805664+1029822118+1028789745+1028015613
3420+1027409748+1026762735+1025994707+1025246038+1024739072+1024416321
3411+1023904302+1023054830+1022222685+1021761920+1021554737+1021273067
3403+1020819390+1020281646+1019663312+1018894102+1018005714+1017071913
3394+1016054503+1014950991+1013971317+1013273968+1012728414+1012225452
3386+1011882421+1011640784+1011102777+1010094817+1008948123+1007981377
3377+1007123965+1006187473+1005154051+1004097790+1003071849+1002180639
3369+1001637644+1001569524+1001671705+1001276107+1000056174+998498854+997326696
3359+996625804+995867816+994614085+992904052+991108507+989643655+988721995
3349+988172962+987549706+986566422+985423206+984505680+983748546+982654878
3339+981123349+979804976+979286001+979295254+979077242+978223243+976830580
3329+975143385+973344165+971617988+970209247+969292377+968787971+968406614
3319+967859288+966990523+965853476+964681712+963571244+962221173+960312160
3309+958051519+956028644+954664594+954068114+954162419+954597392+954726283
3299+954034316+952579505+950817627+949066249+947403729+946051820+945423774
3289+945608250+946082599+946146323+945512895+944416864+943269776+942289708
3279+941434134+940618592+939870842+939215428+938557784+937839829+937218476
3269+936924009+936991867+937258245+937582835+937933281+938235820+938280380
3259+937890492+937187500+936589904+936464097+936844798+937522589+938209438
3250+938601163+938592107+938506792+938818519+939606235+940547387+941403355
3240+942190743+942886648+943269973+943238144+943147908+943566080+944654433
3230+946008507+947129147+947864559+948395741+948930926+949468868+949886385
3220+950226790+950665963+951175817+951498765+951496468+951331155+951322033
3210+951681667+952299345+952784654+952859205+952694680+952743571+953214639
3200+953834220+954245896+954482152+954829580+955407356+956123671+956855408
3190+957543438+958313632+959412944+960784409+961986033+962774012+963400287
3180+964170153+965119179+966213700+967477472+968811137+969958290+970792077
3170+971460681+972067005+972433136+972496794+972665980+973320408+974210371
3160+974816236+975050064+975188602+975323596+975274638+974976168+974660636
3150+974561014+974610497+974618831+974583852+974553598+974332109+973687524
3140+972766126+971992650+971597906+971454446+971307049+970957521+970267392
3131+969205028+967991460+967055559+966648674+966477257+965877626+964505964
3121+962751174+961278446+960320035+959681619+959226826+958939644+958657384
3111+958193141+957626980+957157684+956827320+956599202+956486521+956447342
3101+956322979+955945101+955209426+954117202+952818386+951531579+950400241
3091+949454299+948623859+947810286+947071199+946614044+946462643+946331652
3081+945991444+945567430+945364447+945541245+945982191+946381726+946460609
3071+946136741+945491369+944692562+944004335+943716694+943939168+944479078
3061+944926192+944913855+944430646+943840400+943482472+943360538+943343475
3051+943487985+943957018+944723669+945563361+946374507+947365009+948846202
3041+950869143+953112524+955122931+956672310+957898937+959091111+960349042
3031+961554341+962617098+963568028+964421437+965166299+965876970+966620651
3021+967300346+967760717+967979713+968063846+968172655+968455637+968890020
3012+969224060+969252017+969049493+968786789+968467647+968000057+967376998
3002+966652939+965828472+964839085+963580563+961914368+959739633+957125921
2992+954274116+951254634+947879850+943908914+939236232+933776031+927358993
2982+919965168+911912977+903548600+894796304+885288186+874971155+864296523
2972+853720660+843354277+833287546+823953470+815952795+809774639+805832250
2962+804438143+805550055+808804086+813934776+820907475+829492554+838921789
2952+848178097+856531121+863609150+869025447+872264975+873113068+871994199
2942+869664454+866673258+863304511+859926708+857142827+855512399+855210910
2932+856088929+858081550+861391954+866126653+871925357+878171569+884432284
2922+890487719+896079568+900895841+904767812+907760386+910085932+911969022
2912+913590722+915144236+916861422+918849253+920908026+922652054+923882225
2902+924803492+925831008+927211530+928875952+930639012+932455032+934407884
2893+936465541+938342200+939677899+940282452+940099682+939012642+936802862
2883+933253118+928254534+921966649+914941121+908027684+902199514+898471855
2873+897722005+900320164+905912865+913537433+921918217+929901303+936898218
2863+942872473+947867644+951782404+954649172+956825942+958772034+960732630
2853+962618017+964142983+965197472+966070175+967171980+968603429+970134498
2843+971510491+972648457+973615794+974507463+975344071+976128638+976950808
2833+977877259+978769913+979420141+979828273+980170910+980568214+981055032
2823+981661422+982351158+983004603+983604299+984302894+985163719+985971648
2813+986479270+986760546+987132846+987753149+988461260+989046256+989500458
2803+989930640+990358789+990731745+991033037+991294428+991569469+991933828
2793+992409162+992894142+993302209+993749192+994419043+995235110+995868998
2783+996160577+996353453+996770970+997386023+997886295+998091247+998128982
2774+998229260+998489207+998849103+999217268+999600003+1000073630+1000609537
2764+1001049302+1001327230+1001544651+1001749406+1001844499+1001801842
2755+1001773820+1001920692+1002237012+1002548345+1002637532+1002454696
2747+1002218965+1002187333+1002371547+1002599271+1002737875+1002754281
2738+1002710968+1002773379+1003033260+1003309023+1003323789+1003052030
2730+1002720156+1002541717+1002601962+1002898660+1003358243+1003860025
2721+1004306942+1004652991+1004894038+1005075955+1005250587+1005415770
2713+1005554439+1005709777+1005928642+1006169163+1006368012+1006573161
2704+1006880556+1007260666+1007567536+1007727796+1007826630+1007973239
2696+1008149447+1008252875+1008270331+1008320995+1008465636+1008563026
2687+1008444504+1008179241+1008011762+1008056913+1008190332+1008247493
2679+1008191711+1008052188+1007841527+1007654097+1007712833+1008128446
2670+1008665338+1008947992+1008873899+1008672360+1008588620+1008635281
2662+1008655035+1008559942+1008436235+1008370806+1008308985+1008212055
2653+1008161260+1008143344+1007995946+1007732587+1007603433+1007710536
2645+1007896653+1008061967+1008264097+1008518728+1008762400+1008944186
2636+1008984283+1008790554+1008436760+1008186329+1008255434+1008628062
2628+1009130828+1009628212+1010100921+1010543638+1010853986+1010903141
2619+1010699107+1010414091+1010235258+1010230861+1010371105+1010583473
2611+1010724505+1010631512+1010347480+1010128484+1010065285+1009921235
2602+1009535153+1009141262+1009114159+1009588245+1010363361+1010995280
2594+1011083876+1010671938+1010227186+1010149287+1010446510+1010814545
2585+1010893362+1010600208+1010256653+1010136031+1010024072+1009624012
2577+1009136865+1008970108+1009144609+1009429429+1009789785+1010281459
2568+1010719517+1010838105+1010675154+1010501834+1010442573+1010433319
2560+1010451892+1010457995+1010214126+1009603733+1009031797+1009076161
2551+1009805010+1010796169+1011684360+1012350273+1012700326+1012623280
2543+1012181350+1011609152+1011099889+1010732052+1010572448+1010627574
2534+1010706917+1010632824+1010579404+1010868030+1011460836+1012027193
2526+1012419510+1012655765+1012541903+1011879205+1011044566+1010774906
2517+1011222808+1011694860+1011544116+1010958661+1010611561+1010805619
2509+1011233439+1011457489+1011388384+1011274062+1011355899+1011622737
2500+1011901847+1012143812+1012488024+1012978911+1013373589+1013400365
2492+1013111214+1012816288+1012722376+1012738914+1012602673+1012167897
2483+1011580539+1011121874+1010962336+1011154097+1011673860+1012294819
2475+1012614946+1012405400+1011860436+1011451320+1011535388+1012049835
2466+1012586661+1012777634+1012464201+1011604230+1010412516+1009511659
2458+1009465852+1010170616+1011013984+1011555207+1011845145+1012163172
2449+1012604708+1012951085+1012935663+1012559491+1012064666+1011665853
2441+1011350386+1010946913+1010467773+1010288350+1010729361+1011532959
2432+1012052328+1011961436+1011577126+1011443248+1011658962+1011767575
2424+1011427563+1010942845+1010814807+1011064648+1011364430+1011509137
2415+1011456307+1011262381+1011163613+1011337654+1011570366+1011543394
2407+1011299000+1011030259+1010703964+1010284610+1010004384+1010069354
2398+1010375437+1010701536+1010913050+1010912131+1010689198+1010435813
2390+1010386068+1010566476+1010851099+1011161578+1011456898+1011615977
2381+1011518981+1011249846+1011084336+1011221364+1011555469+1011770003
2373+1011714286+1011688429+1012234311+1013525712+1015061703+1016049450
2364+1015983036+1014934322+1013559575+1012705904+1012710826+1013191476
2356+1013625399+1013771484+1013496049+1012702163+1011493518+1010137671
2347+1009001215+1008615659+1009440717+1011177066+1012764640+1013422744
2339+1013270687+1012881521+1012594864+1012422791+1012344564+1012396540
2330+1012501346+1012403037+1011906900+1011156984+1010512137+1010103414
2322+1009731968+1009366887+1009372662+1009897937+1010434369+1010332648
2313+1009537450+1008602336+1008126150+1008367787+1009237143+1010362705
2305+1011194457+1011331551+1010891590+1010443492+1010488774+1011042400
2296+1011711070+1012073460+1011982239+1011608692+1011241118+1011026519
2288+1010965683+1011137296+1011655353+1012315426+1012629908+1012400675
2279+1011927835+1011582573+1011576601+1012091376+1013089820+1014092070
2271+1014643005+1014839623+1015034862+1015338517+1015712326+1016170400
2262+1016627227+1016892949+1016931603+1016821022+1016545653+1016140540
2254+1015835770+1015689422+1015349017+1014596870+1013874911+1013808038
2245+1014379580+1014962673+1015098126+1014923100+1014807860+1014814357
2237+1014709551+1014441729+1014280287+1014394084+1014652718+1015020030
2228+1015614673+1016180309+1016197307+1015811488+1015928762+1016999264
2220+1018329188+1018977382+1018818434+1018415946+1018311928+1018684294
2211+1019229126+1019193031+1018071997+1016507064+1015807813+1016330201
2203+1017068763+1017153355+1016904040+1016966582+1017182953+1016959101
2194+1016408428+1016529902+1017988454+1020040862+1021269327+1021330884
2186+1021014302+1020562659+1019416227+1017903599+1017469938+1018580407
2177+1019942094+1020337166+1020032133+1019810512+1019726510+1019558506
2169+1019612779+1020189440+1020614110+1019876795+1018557962+1018966226
2160+1022245720+1026140529+1027703821+1027183861+1026358409+1025481113
2152+1024051371+1022527389+1021781805+1021832403+1022114401+1022488210
2143+1023123213+1023646914+1023390773+1022539727+1022126279+1022627470
2135+1023287149+1023087250+1021813634+1020009230+1018375323+1017294190
2126+1016711098+1016502077+1016747783+1017329235+1017667343+1017446313
2118+1017198835+1017532743+1018171618+1018436947+1018324463+1018409580
2109+1018916087+1019440903+1019512961+1019143352+1018859254+1019241726
2101+1020320891+1021457741+1021934518+1021575803+1020717669+1019801784
2092+1019226304+1019319953+1020033577+1020786511+1021054268+1021004786
2084+1021221944+1021906364+1022625829+1022857097+1022600169+1022303799
2075+1022290280+1022592031+1023231038+1024062462+1024526376+1024278242
2067+1023747126+1023377779+1022909402+1022080341+1021327997+1021219975
2058+1021817965+1022926333+1024412645+1025931443+1026777764+1026575699
2050+1026000547+1026293636+1027868281+1029831765+1030938033+1030633131
2041+1029506716+1028793814+1028978815+1029310164+1029072268+1028627253
2033+1028881229+1030193433+1031736775+1032030323+1030667454+1028819146
2024+1027413226+1026303086+1025908211+1027681705+1032014900+1036930335
2016+1039537484+1038485621+1034831333+1030815770+1028035957+1026676436
2007+1026169995+1026155754+1026655501+1027637998+1028875716+1030244687
1999+1031746422+1033121168+1033929820+1034086339+1033818976+1033243956
1990+1032526132+1032145300+1032364821+1032834905+1033233390+1033808411
1982+1034671204+1035089836+1034292801+1032744472+1031629016+1031155257
1973+1030561533+1029477250+1028331934+1027880947+1028668139+1030380797
1965+1031825896+1032242428+1032153766+1032330367+1032580208+1032306086
1956+1031609131+1031046317+1030821677+1030722056+1030425029+1029657263
1948+1028565433+1027974203+1028627975+1030081671+1030926679+1030458827
1939+1029429539+1028835946+1028832796+1028892648+1028524942+1027722853
1931+1026913086+1026572352+1026821602+1027478787+1028497838+1029971878
1922+1031548689+1032368497+1031896379+1030521435+1029188886+1028404976
1914+1027964621+1027650467+1027590287+1027819061+1027917830+1027478984
1905+1026666527+1025926061+1025399539+1024983663+1024820909+1025332993
1897+1026702162+1028443499+1029636394+1029736344+1029018585+1028146145
1888+1027494472+1027064224+1026842865+1026797649+1026716140+1026462821
1880+1026205368+1026164220+1026353619+1026601556+1026626232+1026188633
1871+1025325381+1024467575+1024249104+1024833115+1025551333+1025678649
1863+1025248860+1024928799+1025140445+1025525673+1025497191+1024975656
1854+1024284674+1023652492+1023177421+1023039605+1023339125+1023867354
1846+1024306265+1024452153+1024185643+1023554774+1022817590+1022257729
1837+1022031317+1022036371+1021955650+1021657705+1021405436+1021396314
1829+1021342566+1021025589+1020700344+1020501364+1020181762+1019646905
1820+1019196772+1019156280+1019467547+1019688906+1019515652+1019076610
1812+1018563672+1017967126+1017359554+1016969404+1016818135+1016705388
1803+1016503586+1016228939+1015899624+1015429081+1014713554+1013878061
1795+1013261105+1013021634+1012834467+1012279856+1011455914+1010739796
1786+1010292550+1009893803+1009194551+1008180160+1007102505+1006055170
1778+1004905260+1003525001+1001956065+1000438186+999143176+997829200+996227713
1768+994404999+992459891+990422053+988328235+986098964+983538803+980563029
1758+977144013+973279982+969117154+964618382+959332026+952916694+945756172
1748+938584757+931804738+925621134+920182983+915490416+911444928+907973476
1738+905018637+902442792+900062842+897813358+895644988+893129125+889748304
1728+885405986+880311981+874558560+868306442+862117654+856448497+851221729
1718+846230365+841724571+838344931+836190999+834742422+833540930+832416418
1708+831254170+829884017+828207191+826055228+822863083+817759825+810571149
1698+802459435+793567945+783051408+771968382+761734302+751567096+740359314
1689+728772145+717703688+705881575+691728929+677604043+666114461+656223674
1679+646711946+637061091+626930570+616889761+608112789+600458558+592749660
1669+584806409+577686773+571572733+565732947+559893358+554598142+550276464
1659+546731608+543725974+541430486+540874136+543397743+547013573+549492258
1649+552562469+558743973+567998444+576970720+584269714+590957987+597568164
1639+603950420+610684106+619124676+628390762+635646049+640970338+646330393
1629+653059683+661087198+669586109+678517566+688298231+697844478+705587699
1619+712287128+720405865+730671314+740325451+747729579+754013723+760305217
1609+766784272+773141655+779189149+785081568+790978515+796711592+801952797
1599+806477360+810194255+813163664+815517166+817280094+818372843+818635284
1589+817835230+815927464+813156051+809704090+805510548+800540906+795001624
1579+789056311+782284692+773908502+764619577+756350556+749164177+741765299
1570+733671698+725842178+718831876+712131134+705593015+699431133+692889208
1560+683903609+672775564+663485326+655609146+647064493+637452488+626848208
1550+615420512+604166660+594142848+585578441+578686660+574102115+572328817
1540+573145213+574698333+575680173+576825095+579363599+583431925+587733948
1530+591632170+595857015+601095661+606826770+612178359+617568668+623665907
1520+629572829+634606786+639569012+644719062+649329071+653174464+656589608
1510+659926000+664276718+671523539+680063533+685769506+689100254+692037506
1500+695499573+699730325+704646941+709514075+713398450+716379999+719420809
1490+723426134+728226591+732736978+736480190+739747215+742908056+746047306
1480+748706694+750038258+749240107+745357242+736451051+720373511+699499976
1470+680989984+668644695+662379714+662323210+668226719+676914504+684799282
1460+691177665+697092331+703125125+707512856+708512612+707113912+704614390
1451+701606328+698344422+694913199+691259502+687257130+682833239+678191008
1441+673799733+669978163+666765477+664309466+662867780+662433135+663089860
1431+665217935+668814800+673154361+677711080+682499331+687263102+691443650
1421+695125895+698952650+702800602+705779329+707741762+709094196+709967621
1411+710202433+709710824+708714021+707713018+707285263+707759284+709064270
1401+710907788+712567682+712397578+708260016+698944577+685760515+672437718
1391+662294662+656956855+657013950+661145015+665664393+667342335+665116739
1381+659094839+649867012+638356298+625247575+610730504+595631785+582332941
1371+573207427+569282495+570769988+577085173+587017305+599796648+614726838
1361+629969214+643758026+656111846+667949250+679649429+690711519+700296092
1351+707892966+713409409+716934610+718728776+719360039+719657130+720424896
1341+722154355+724894989+728249691+731592252+734479234+736809898+738652103
1332+740034856+740909397+741274412+741277890+741144209+741015843+740925803
1322+740919438+741106342+741557394+742222979+742973748+743637955+743996014
1312+743823351+742951369+741261681+738651184+735032401+730364772+724687543
1302+718134396+710949526+703523151+696362038+689888562+684175304+678899841
1292+673628710+668151774+662534790+656919710+651350437+645787530+640233613
1282+634810360+629682885+624947136+620672348+616998504+614068800+611912768
1272+610519252+609960835+610337204+611678021+614008226+617422911+621943077
1262+627286726+632892224+638229310+643054837+647371363+651263088+654812439
1252+658074476+661090610+663952129+666794615+669678446+672530120+675225472
1242+677693361+679923682+681910069+683637887+685132862+686426297+687435766
1232+687997989+688075757+687807672+687304250+686520668+685417747+684201554
1222+683321042+683198123+683997390+685686160+688237527+691667306+695892086
1213+700631379+705478234+710070654+714180719+717612008+720088626+721368148
1203+721450706+720601629+719188228+717531024+715834248+714186888+712625040
1193+711202911+709991706+709000284+708105202+707085102+705752094+704037073
1183+701908736+699206296+695578587+690623186+684154697+676399007+667942097
1173+659471076+651491140+644192277+637527630+631446535+626080311+621706952
1163+618634248+617241651+618063887+621596634+627896922+636422872+646331771
1153+656939923+667893992+678993031+689985164+700561618+710452273+719475345
1143+727499710+734396085+740062813+744505146+747809709+750010761+751026399
1133+750776033+749394264+747320463+745104973+743083935+741314379+739792628
1123+738523147+737349611+736003806+734464074+733072592+732215180+732039695
1113+732523232+733627531+735306260+737465311+739968639+742657231+745384543
1103+748025161+750397630+752213059+753217541+753387776+752973869+752401211
1094+752092634+752269629+752950965+754185730+756137073+758859593+762178529
1084+765896606+769961060+774336585+778857735+783324809+787687601+792033463
1074+796399143+800656474+804576353+807982244+810863713+813364547+815611931
1064+817557235+819027075+819881993+820079136+819678354+818828489+817627850
1054+815986790+813743344+810853540+807376970+803412924+799130392+794694951
1044+790156016+785590896+781322277+777772008+775076131+772919575+770711173
1034+767880302+764052891+759012504+752608722+744813328+735899460+726602856
1024+718098760+711601527+707722074+706206755+706366293+707647457+709755712
1014+712476330+715580010+718780162+721667930+723771198+724766558+724671071
1004+723931131+723298555+723343378+723888408+724015198+722717038+719582054
994+715126858+710837305+708771838+710542313+716286743+724629726+733671239
984+741981473+748904230+754424414+758963809+763060223+767001562+770715242
975+773961594+776594929+778742757+780801858+783150635+785791582+788351087
965+790467743+792125799+793597477+795095864+796508740+797459801+797548922
955+796460307+793934994+789910179+784881604+780069531+776987704+776635617
945+779012417+783293242+788325164+793005787+796487805+798255064+798058250
935+795839742+791796157+786485847+780820365+775946209+773051353+773027727
925+776073525+781525392+788124281+794617971+800293493+804995051+808705909
915+811325002+812898991+813766116+814256675+814425139+814199777+813578555
905+812523935+810834837+808270017+804761486+800505008+795967386+791818995
895+788692673+786880460+786259960+786528307+787427523+788694511+789926979
885+790714433+790931657+790709052+790067420+788836002+787051679+785106243
875+783273029+781412186+779356104+777238332+775233110+773294696+771297678
866+769172819+766882712+764508472+762305779+760453139+758810373+757078749
856+755163698+753297933+751847453+751055340+750936753+751307477+751893654
846+752533514+753299049+754306483+755472209+756623432+757727075+758807289
836+759781057+760541013+761033935+761160201+760818089+760060167+758914523
826+757032023+753850969+749281124+744092092+739510959+736498959+735427801
816+736224311+738501096+741525631+744413728+746618651+748167440+749365717
806+750423487+751402177+752316487+753139314+753808443+754337656+754829134
796+755253082+755321334+754758979+753677846+752594088+752100510+752463753
786+753349647+753947046+753492385+751662452+748503120+744231811+739172194
776+733658638+727943346+722337256+717419984+714003921+712858671+714268790
766+717529581+720997423+723147155+723733135+723718369+724124467+725167208
756+726361088+727068477+726823821+725287108+722011026+716275259+707177832
747+693969751+676386538+654779757+630124881+603975620+578126865+554057247
737+532881436+515855164+504388156+499301731+500313497+506420941+516690098
727+530429493+546647934+563854713+580547044+595611965+608488830+619377076
717+628975168+637666037+645187243+651087668+655069498+656833476+656020428
707+652465696+646473394+639047018+631930794+627140181+626170351+629427860
697+636225598+645226422+655024872+664641143+673621360+681664560+688320282
687+693281262+696924918+700212878+703862375+707800432+711535835+714765387
677+717388024+719271115+720397464+721084050+721666355+721995473+721482141
667+720098863+718690581+717536209+716553188+716003368+716111127+716590923
657+717120136+717899387+719295068+721142721+722705159+723363526+723232994
647+722934656+722776430+722443243+721535299+720044984+718222007+716401459
637+715027171+714335467+713904890+713033762+711644447+710287353+709299082
628+708473761+707405622+705732603+703374966+700929127+699401011+699158192
618+699401142+698935390+697309162+694983551+692609639+690419284+688218495
608+685769375+683132628+680590580+678126891+675176514+671305396+667025883
598+663409462+661009758+659673928+659145765+659376246+660439660+662497711
588+665707772+669872110+674316018+678476418+682384747+686163659+689549600
578+692413481+695090916+697732782+699951224+701383854+702148863+702919714
568+704776094+708265659+712493262+715928750+718027818+719525352+721431871
558+724131357+727315168+730562833+733679442+736240784+737456189+737246840
548+736869356+737613233+739259018+740381956+740028228+738754153+738014606
538+738845833+741404025+745284528+749584713+753080118+755078318+755929430
528+756475509+757292692+758427639+759600321+760585377+761240921+761362265
518+760928342+760278638+759699680+759250334+758985400+758754000+758146757
509+757194449+756557017+756610503+757006429+757265129+757208230+756868810
499+756322468+755625316+754827362+753917120+752833887+751834197+751493595
489+751919905+752616926+753362116+754396326+755674142+756777589+757468965
479+757771570+758012485+759014866+761619915+765901462+770927216+775381295
469+778562940+780609441+781965025+782844750+783166123+782900270+782532170
459+783034870+784642198+785902360+785731534+785137810+785338956+785815536
449+785470865+784630450+784616144+786147476+788750294+791128209+792158285
439+791716224+790150372+787874178+786100224+786285948+787980690+789031832
429+788749572+789287382+792655538+797722636+801593688+803520617+805369254
419+808232150+810439830+810839562+810427689+809637741+808193299+806619573
409+805969278+806272080+806788233+807430324+808357169+808614163+806856419
399+803910308+803654233+807926724+813450386+818597024+824515365+830242601
390+833145398+833396289+833690690+834578815+834524870+834839878+837761904
380+841099740+839888994+831853472+821907822+819315307
##END=
