##TITLE=Sgl- SRL 1052
##JCAMP-DX=4.24
##DATA TYPE=INFRARED SPECTRUM
##DATE=10/10/2019
##SAMPLING PROCEDURE=Diamant-ATR
##ORIGIN=Marie
##XUNITS=1/CM
##YUNITS=TRANSMITTANCE
##RESOLUTION=4
##FIRSTX=3997.453
##LASTX=373.96442
##DELTAX=-1.4165319
##MAXY=0.96381831
##MINY=0.35764709
##XFACTOR=1
##YFACTOR=8.9762575e-010
##NPOINTS=2559
##FIRSTY=0.89850396
##XYDATA=(X++(Y..Y))
3997+1000978366+1001081423+1001025114+1000845229+1000675770+1000609102
3989+1000724974+1000982616+1001049417+1000622781+999918449+999491215+999635507
3979+1000244220+1001054464+1001795915+1002281052+1002491946+1002471162
3971+1002215313+1001807933+1001431763+1001119804+1000718533+1000214405
3962+999908090+1000118719+1000786397+1001492521+1001879515+1001961390
3954+1001983502+1002022281+1001815437+1001081622+1000031333+999317240+999358144
3944+1000013537+1000914022+1001799434+1002437629+1002535241+1002037421
3935+1001370341+1001139725+1001587211+1002333443+1002735577+1002551045
3927+1002122416+1001974604+1002258143+1002656757+1002874691+1002847200
3918+1002516250+1001873871+1001201147+1000825574+1000748215+1000764285
3910+1000788057+1000937064+1001392652+1002231914+1003223171+1003792307
3901+1003552661+1002823494+1002303761+1002286895+1002509078+1002670835
3893+1002754369+1002909818+1003169717+1003373241+1003344688+1003126091
3884+1003033990+1003202586+1003311487+1003075691+1002728472+1002652972
3876+1002912208+1003400665+1004004995+1004504608+1004534290+1003993507
3867+1003294820+1002842419+1002704036+1002786574+1002969115+1003076820
3859+1003029541+1003038107+1003487055+1004541129+1005645404+1005962343
3850+1005604035+1005126866+1004922479+1005097317+1005333976+1005133374
3842+1004398098+1003602330+1003363546+1003793768+1004288268+1004349292
3833+1004135941+1003981422+1003958779+1004030958+1004261707+1004685289
3825+1005190945+1005634182+1005896140+1005944082+1005966261+1006171312
3816+1006573711+1006990587+1007133219+1006816280+1006073634+1005188753
3808+1004656338+1004896316+1005796602+1006809108+1007401021+1007444714
3799+1007348895+1007336478+1007171202+1006715016+1006150262+1005660875
3791+1005347987+1005337429+1005611472+1005899792+1006002317+1006039768
3782+1006161883+1006272509+1006239640+1006118854+1006024363+1006035718
3774+1006297477+1006939988+1007828188+1008508151+1008587701+1008114848
3765+1007514569+1007306729+1007738080+1008608485+1009407308+1009668137
3757+1009435662+1009127819+1009005771+1008998069+1008899527+1008800654
3748+1009065733+1009731883+1010200021+1009563287+1008153030+1007309717
3740+1007432562+1007982375+1008252899+1008102630+1008043930+1008321559
3731+1008647795+1008762672+1008566120+1008092205+1007673271+1007816900
3723+1008591154+1009421850+1009728563+1009530484+1009283068+1009328488
3714+1009673648+1010079434+1010289930+1010339334+1010355138+1010204338
3706+1009798419+1009342233+1009057897+1008906765+1008842554+1009046808
3697+1009512357+1009828167+1009694632+1009377759+1009374106+1009736000
3689+1010011505+1010068080+1010249757+1010665769+1011159406+1011627610
3680+1012080608+1012493433+1012748552+1012727900+1012431214+1011900856
3672+1011099112+1010199490+1009754659+1009943110+1010289001+1010492857
3663+1010641399+1010822745+1010994196+1011189087+1011490621+1011767653
3655+1011780269+1011524487+1011100307+1010505008+1009879828+1009623382
3646+1009766346+1009933614+1009884808+1009745363+1009854728+1010345310
3638+1010983439+1011470767+1011649788+1011480130+1011075207+1010723207
3629+1010725797+1011081914+1011485907+1011756564+1011931468+1012126891
3621+1012353456+1012330282+1011744412+1010759994+1009780689+1009066596
3612+1008765394+1008887907+1009248274+1009627963+1009990123+1010427583
3604+1010934035+1011350977+1011527010+1011512003+1011461272+1011349715
3595+1011092671+1010951499+1011334243+1012143823+1012803400+1012858979
3587+1012454388+1012020580+1011642750+1011270895+1011081715+1011265982
3578+1011677877+1011952584+1011909489+1011674689+1011492946+1011540755
3570+1011840762+1012180478+1012089108+1011282781+1010190127+1009534933
3561+1009645162+1010193315+1010521078+1010284884+1009633873+1008895676
3553+1008343340+1008120692+1008242009+1008695804+1009441970+1010261112
3544+1010839876+1011051568+1010992337+1010882308+1011005086+1011482587
3536+1012067660+1012355382+1012209496+1011857761+1011635445+1011642219
3527+1011677013+1011597662+1011532654+1011576546+1011604635+1011536107
3519+1011458283+1011426277+1011394736+1011309874+1011102034+1010734695
3510+1010394979+1010476920+1011193802+1012264278+1013016552+1012891981
3502+1012078019+1011374351+1011170495+1011002297+1010282892+1009035918
3493+1007567558+1005798794+1003434265+1000575834+997800871+995705937+994501594
3483+993920571+993450441+992841397+992294107+991868002+990965326+988803524
3473+985244347+980702346+975324071+968653137+959965093+948585488+934061522
3463+916406477+896270101+874884892+853995311+835812631+822544139+815490859
3454+814591835+818817627+826814487+837291416+849053235+860965057+872258073
3444+882772121+892646115+901961729+910650039+918407319+924849230+930037195
3434+934557084+938904327+943174011+947350334+951447903+955342811+958787908
3424+961607295+963795724+965541314+967131390+968676312+970001375+970964344
3414+971764163+972732578+973899802+975035087+976029332+976885992+977397756
3404+977260635+976595879+976047991+976212935+977040378+977739132+977229293
3394+974855136+970849534+966115630+961394209+956690650+951658996+946171024
3384+939940871+931739823+919688755+902621107+881202232+858155564+837667985
3374+824036736+819973098+825558085+838509571+855423830+873159753+889711122
3364+904277452+916731849+927082680+935399866+942023919+947504255+952180522
3354+956013211+958945747+961239292+963287810+965220523+966877931+968206580
3344+969508933+971079951+972725938+974027959+975009522+976117515+977580695
3335+979155697+980476776+981416439+982120240+982779218+983398887+983879841
3325+984268893+984726805+985344017+986154261+987117430+987927409+988168251
3315+987857885+987521955+987556218+987810939+987951646+987960278+988092419
3305+988552257+989344439+990249838+990890490+991065129+991040958+991247337
3295+991740177+992204796+992384481+992339460+992417018+992989342+994016125
3285+994914684+995117478+994705914+994266462+994195478+994364141+994390502
3275+994015527+993255218+992398359+991800603+991518061+991268586+990856226
3265+990351434+989713903+988611355+986865698+984821230+983091975+982062137
3255+981691810+981736698+982023956+982399794+982562680+982303975+981893674
3245+981841548+982218781+982577421+982603517+982468919+982445612+982578816
3235+982931347+983790994+985336115+987305482+989209908+990781789+992140252
3225+993560603+995071062+996282909+996795138+996783982+996906628+997512950
3216+998289461+998829712+999216441+999740689+1000349335+1000760300+1000955590
3206+1001205994+1001679245+1002241941+1002605495+1002627142+1002500114
3197+1002543342+1002765525+1002825088+1002487497+1001968362+1001774931
3189+1002239882+1003203383+1004168544+1004775464+1005038816+1005153759
3180+1005240547+1005312660+1005364587+1005430193+1005546397+1005706826
3172+1005915596+1006204978+1006505450+1006655453+1006678959+1006807780
3163+1007083484+1007216355+1006982154+1006501067+1006017258+1005627276
3155+1005315184+1005130850+1005245660+1005789364+1006600472+1007245971
3146+1007410317+1007183619+1006878898+1006689717+1006640512+1006757846
3138+1007134083+1007769754+1008391481+1008585842+1008248118+1007759063
3129+1007543322+1007625461+1007750099+1007703617+1007387475+1006819666
3121+1006214806+1005858489+1005810746+1005890894+1005974030+1006143688
3112+1006494560+1006955128+1007409653+1007873475+1008378732+1008756961
3104+1008737107+1008257481+1007526190+1006798750+1006234461+1005942024
3095+1005971374+1006157168+1006095547+1005472425+1004433358+1003492434
3087+1003020975+1002959553+1003050060+1003213875+1003593166+1004235146
3078+1004845186+1005034633+1004829250+1004686285+1004910195+1005273616
3070+1005365517+1005134569+1004906808+1004903953+1004875200+1004346437
3061+1003254845+1002176069+1001777256+1002116838+1002627208+1002748459
3053+1002394932+1001811586+1001204799+1000612223+999993816+999343668+998710985
3043+998135872+997610628+997124428+996674750+996218498+995752153+995447432
3033+995533224+996023540+996722892+997487518+998331959+999292206+1000314739
3023+1001268214+1001999372+1002415650+1002601444+1002836044+1003348738
3014+1003992710+1004283288+1003832547+1002628603+1000883743+998801890+996550179
3004+994226953+991741505+988910831+985881214+983368143+982230866+982747810
2995+984464250+986760317+989356259+992169071+994940648+997259757+998931043
2985+1000159092+1001270338+1002329858+1003180740+1003801272+1004360979
2976+1004925002+1005393871+1005746402+1006047006+1006229680+1006121908
2968+1005630729+1004740868+1003476231+1001923208+1000021638+997251656+992811981
2958+986213559+977555529+967267648+955874098+944206505+933802950+926785727
2948+924879111+928295190+935631278+944874116+954415499+963254410+970748602
2938+976612546+981020082+984352494+986871077+988769991+990324010+991749872
2928+993098375+994393490+995657994+996789095+997681546+998434816+999178591
2918+999833321+1000317860+1000776303+1001289462+1001627319+1001582762
2910+1001282556+1000922190+1000487585+999969977+999557816+999391810+999334438
2900+999136027+998731569+998313632+998121396+998173124+998271466+998291918
2890+998308917+998410314+998575191+998791531+999126001+999636105+1000330145
2880+1001185410+1002110530+1002932328+1003558703+1004141386+1004929186
2871+1005917256+1006792574+1007337806+1007714640+1008153760+1008536372
2863+1008552640+1008164185+1007590467+1006870929+1005712603+1003772984
2854+1000867408+996943415+992197691+987367237+983662439+982111076+982921984
2844+985495349+988936794+992499756+995743786+998505934+1000743434+1002428532
2834+1003644495+1004677321+1005795407+1006959510+1007913383+1008527872
2826+1008922835+1009252855+1009546620+1009837596+1010277646+1010919028
2817+1011535244+1011907032+1012142695+1012461294+1012855659+1013205534
2809+1013514704+1013830714+1014113788+1014282849+1014259010+1013989815
2800+1013553085+1013146967+1012935940+1012988730+1013283291+1013645849
2792+1013845190+1013877993+1013985963+1014292145+1014624490+1014780935
2783+1014775689+1014724160+1014650786+1014514793+1014329264+1014160403
2775+1014046721+1013983573+1013975870+1014083442+1014395866+1014920978
2766+1015507445+1015959248+1016250888+1016538145+1016929854+1017347194
2758+1017637506+1017740297+1017717787+1017687109+1017734387+1017854643
2749+1017949001+1017893156+1017640693+1017288627+1017008408+1016884568
2741+1016876798+1016933772+1017038821+1017138425+1017138093+1016977730
2732+1016649901+1016203344+1015763493+1015462756+1015327627+1015295090
2724+1015286656+1015228886+1015110822+1015055775+1015195884+1015487790
2715+1015801011+1016123262+1016498702+1016824340+1016937026+1016901434
2707+1017002233+1017393145+1017926224+1018381082+1018689721+1018879832
2698+1018978771+1019054537+1019192920+1019393057+1019593393+1019766771
2690+1019896720+1019926734+1019827330+1019642199+1019411118+1019136345
2681+1018867016+1018722590+1018773853+1018983353+1019302617+1019739745
2673+1020274086+1020797737+1021208569+1021511830+1021771397+1021999689
2664+1022151751+1022219083+1022261249+1022311914+1022304079+1022139666
2656+1021828371+1021546691+1021520661+1021781955+1022090063+1022197768
2647+1022114367+1021993713+1021911507+1021878903+1021913167+1021985546
2639+1022038933+1022076849+1022118085+1022118483+1022039531+1021931228
2630+1021894308+1022013899+1022318023+1022714911+1022992075+1022990747
2622+1022806746+1022704552+1022800371+1022972088+1023109940+1023239425
2614+1023352907+1023363863+1023283184+1023231922+1023265588+1023371035
2605+1023586976+1023954315+1024392970+1024786273+1025182961+1025756746
2597+1026489033+1027057572+1027216274+1027147215+1027195291+1027380421
2588+1027448019+1027306515+1027101663+1026892495+1026562475+1026114457
2580+1025804556+1025868236+1026251976+1026696342+1027010293+1027214083
2571+1027437992+1027711305+1027920606+1028024393+1028163241+1028448108
2563+1028822419+1029263000+1029893028+1030706658+1031335424+1031354681
2554+1030832358+1030395761+1030640654+1031499239+1032264861+1032309018
2546+1031779591+1031420154+1031611393+1031874148+1031600835+1030912307
2537+1030348284+1030062221+1029834859+1029537641+1029141882+1028638019
2529+1028279645+1028471814+1029188629+1029949935+1030533547+1031252753
2520+1032375288+1033648756+1034537754+1034709935+1034239407+1033523255
2512+1033024373+1032923640+1033033537+1033120192+1033174044+1033241377
2503+1033221124+1033044559+1032857769+1032820119+1032887318+1032978555
2495+1033199809+1033686473+1034289740+1034636760+1034545058+1034191796
2486+1033830699+1033555925+1033398817+1033387197+1033395497+1033176036
2478+1032708430+1032367652+1032590764+1033403664+1034374603+1035058482
2469+1035374293+1035473233+1035417587+1035196600+1034949250+1034890816
2461+1035026543+1035159481+1035189694+1035178007+1035101777+1034859275
2452+1034582376+1034591340+1034930525+1035302313+1035518387+1035643356
2444+1035708962+1035693025+1035728750+1035947945+1036185467+1036133407
2435+1035705044+1035094738+1034628792+1034607609+1035064459+1035638642
2427+1035886921+1035724367+1035440496+1035365860+1035570313+1035739972
2418+1035425954+1034624011+1033919081+1033803341+1034150892+1034621421
2410+1035160410+1035773439+1036196821+1036143500+1035670714+1035120702
2401+1034832847+1034962132+1035446605+1036053060+1036481755+1036534014
2393+1036259107+1035919325+1035799004+1036058638+1036635942+1037195383
2384+1037320419+1036902747+1036285469+1035960030+1036149078+1036690126
2376+1037302225+1037942279+1038839444+1040216567+1042080088+1044107292
2367+1045582756+1045774062+1044644953+1042943122+1041476090+1040551169
2359+1040064970+1039827116+1039708587+1039547362+1039116940+1038371638
2350+1037570956+1037065566+1037109724+1037730189+1038536316+1038914081
2342+1038717994+1038415929+1038472437+1038869458+1039204990+1039084868
2333+1038412077+1037481047+1036859320+1036884619+1037148636+1036857394
2325+1035827690+1034787361+1034479784+1034858544+1035538905+1036431422
2316+1037384962+1037881122+1037684239+1037316236+1037300830+1037355413
2308+1036940397+1036214285+1035837584+1036111361+1036770141+1037378389
2299+1037644198+1037547184+1037304151+1037108197+1036950756+1036762837
2291+1036576910+1036496762+1036605396+1036900157+1037295585+1037738290
2282+1038258621+1038828687+1039217872+1039106117+1038459356+1037724877
2274+1037423542+1037638620+1038163134+1038875633+1039649688+1040328654
2265+1041034713+1041972250+1042868751+1043171746+1042775057+1042217608
2257+1042239454+1042996642+1043653961+1043344857+1042485210+1042258910
2248+1043081903+1044486782+1046002221+1047311016+1048100941+1048291184
2240+1047985865+1047256167+1046444396+1046251696+1047030531+1048356723
2231+1049564187+1050423038+1051272128+1052598784+1054324387+1055598785
2223+1055569635+1054194039+1052224340+1050735661+1050569854+1051743187
2214+1053426094+1054815899+1055855232+1056802796+1057515761+1057692657
2206+1057436874+1056977900+1056180671+1054992862+1053957580+1053567597
2197+1053533799+1053238639+1052462061+1051339260+1050193352+1049692211
2189+1050620187+1053024823+1055737035+1057077637+1056334194+1054407656
2180+1052788164+1052325936+1053141160+1054777983+1056157430+1056371246
2172+1055728602+1055238087+1055251832+1055348049+1055222615+1055038547
2163+1055188417+1056160684+1058100369+1060066283+1060782501+1060384218
2155+1059874379+1059524040+1059078877+1058452037+1057351016+1055428529
2146+1053478485+1052967982+1053861230+1054455997+1053724042+1052413654
2138+1051556463+1051125909+1050596548+1049931393+1049437757+1049190075
2129+1049088546+1049096846+1049133301+1049032568+1048704805+1048125974
2121+1047393820+1046943345+1047176551+1047722911+1047717532+1046926678
2112+1045962977+1045387334+1045123450+1044725632+1043931258+1043007865
2104+1042590392+1043042527+1044059150+1045052997+1045834754+1046679992
2095+1047758768+1048813307+1049509405+1049771363+1049608943+1048956670
2087+1047858970+1046539484+1045188923+1043904764+1042827050+1042108176
2078+1041825501+1042040645+1042761777+1043791215+1044834864+1045694778
2070+1046178719+1046230049+1046360662+1047311680+1049048771+1050804388
2061+1052041999+1052571094+1052259666+1051508853+1051250945+1051728512
2053+1052154617+1052036288+1051895648+1052445328+1053836461+1055809879
2044+1057756337+1058713065+1058266375+1057465096+1057978520+1060244574
2036+1062899481+1064145126+1063562112+1062380545+1061918781+1062046341
2027+1061557219+1059903729+1057919754+1056833607+1057125845+1058263852
2019+1059149330+1059013935+1058137421+1057642656+1058511201+1060564700
2010+1062338844+1062529087+1061657687+1061437230+1062464610+1063562975
2002+1063445310+1062349867+1061568973+1061598323+1061750252+1061639824
1993+1061683916+1061895408+1061576941+1060488869+1059234060+1058602571
1985+1059001252+1060112034+1061217504+1062125094+1063098356+1063788545
1976+1063554276+1062839187+1062561160+1062600802+1062379018+1062352722
1968+1063559854+1065750873+1067270562+1067095591+1065731483+1063914245
1959+1061678869+1059174829+1057282489+1056595288+1056392362+1055414850
1951+1053469853+1051604207+1050756047+1050795357+1050933142+1050598009
1942+1049836571+1049129583+1048936152+1049420758+1050397672+1051342116
1934+1051619346+1050881415+1049346586+1047855318+1047548538+1049056009
1925+1051864903+1054612907+1056205970+1056779157+1057320936+1058472555
1917+1059866212+1060632630+1060399956+1059628956+1059226291+1059673578
1908+1060514367+1061086757+1061363058+1061644937+1062004839+1062388978
1900+1062867143+1063521540+1064215845+1064540952+1064139881+1063076776
1891+1061677076+1060320140+1059548409+1059727431+1060520144+1061264318
1883+1061721964+1062146675+1062832680+1063805278+1064749655+1065250065
1874+1065260888+1065126955+1065106967+1065157234+1065164339+1065172440
1866+1065203649+1065025823+1064470964+1063886887+1063811985+1064213189
1857+1064645669+1064986978+1065438250+1066064094+1066682634+1066996983
1849+1066805744+1066199688+1065507242+1065159824+1065423376+1065951342
1840+1066136871+1065829228+1065341501+1064992622+1064891425+1064993419
1832+1065121045+1065130939+1065048201+1064840295+1064443539+1064067834
1823+1063991936+1064243933+1064735843+1065276294+1065528624+1065375101
1815+1065030936+1064719044+1064590422+1064714595+1064962409+1065206106
1806+1065455315+1065605584+1065463682+1065045213+1064563263+1064255554
1798+1064298516+1064662535+1065140965+1065542103+1065708309+1065652796
1789+1065693966+1066030228+1066548700+1067124742+1067685179+1068046609
1781+1068158497+1068254249+1068479288+1068822921+1069329904+1069951499
1772+1070526213+1071097076+1071695495+1072146170+1072429642+1072668160
1764+1072909135+1073183245+1073429731+1073515988+1073575285+1073741823
1755+1073740960+1073423888+1073103694+1072979721+1072932708+1072916838
1747+1072826198+1072449629+1071789588+1070872303+1069635887+1068257370
1738+1066858733+1065020445+1061968982+1056993239+1050536586+1043634705
1730+1035929618+1026443149+1014681198+1000005569+981844337+961169901+937621761
1720+903616946+846587110+769772633+702453588+660158945+631876900+603381107
1710+567880573+526181461+484237855+450776444+432389012+431286995+450175534
1700+487534310+529558629+569147269+609534565+646351994+674288014+696816210
1690+718299097+738405725+756155461+774291260+795548246+815596240+830027840
1680+841119125+851442000+861816470+872421158+882526896+890743748+897150931
1670+903206512+909280686+914205431+917699401+920387310+922805359+925571291
1660+929032524+932703855+935965549+938567467+939929516+938629885+935104241
1650+930983764+924879775+913707146+896786513+878404758+861389767+845796322
1640+833042383+826096609+828099842+841056707+860172476+875820636+885704192
1630+892453016+898165429+903672658+909245492+915222253+921356654+926132592
1621+928048903+925651373+915367144+893915200+865210637+834836447+802442226
1611+766175341+727816509+693789715+671628260+665317361+674105009+694043970
1601+719872240+747068603+773243561+797763236+820545688+841332809+859761975
1591+875702440+889172199+900019787+908005557+913043652+914917466+913085486
1581+907673810+900630159+895899707+898504215+908609422+917992967+919159327
1571+908077803+886275321+866961075+862520736+871427111+885044881+896766460
1561+905136967+910348903+908796212+897123573+877356992+854100626+835982622
1551+831312397+840946346+858477418+877064954+894040834+908997213+921603008
1541+932647347+942883633+950404453+954728853+957174459+957637484+954568889
1531+947801805+939567622+933088393+932099592+938171641+948648769+960224594
1521+970863944+978892810+984213182+988013068+990870968+992750890+993855763
1511+994630680+995492320+997064334+1000318126+1004663177+1007918629+1009856322
1502+1011009535+1011161331+1009097075+1002548787+990084297+973643887+956466674
1492+941380345+932584264+934129385+943904041+955769779+966255208+974857061
1482+982011140+988134319+993505223+998262103+1002295063+1005328663+1007178041
1472+1007916570+1007823208+1007034545+1005331585+1002194264+997265932+991141558
1462+984856423+978652831+972202088+966127051+962862967+963216096+965635539
1452+968935879+972135486+973815670+972108527+965337126+952124943+929827629
1442+895143050+847587863+789558868+726862238+677192794+661680958+679059370
1432+716159408+763552705+811635394+851226723+880461312+902581664+919874483
1422+932888720+942662712+950648217+956910907+960863852+962970871+963647978
1412+962461497+958659154+951529843+940003555+921847635+894481747+858711619
1402+819530260+782449478+753751422+741177766+748723421+773272645+806125509
1392+837452642+862961781+883865904+901823546+916491206+927003793+933954481
1383+938722716+942204468+944749545+946683187+948528514+950830757+953815486
1373+957120142+960215829+963052679+965938667+969162245+973059544+978061981
1363+984137018+990361527+995726522+999946803+1003087046+1005096254+1005856962
1353+1005386633+1003812361+1001231759+997691838+993117366+987206476+979558894
1343+969687954+956721926+939804613+919573945+898614974+879901273+865881037
1333+858712283+859817886+868846442+883371006+899827750+915033869+927141645
1323+935516867+940099108+940964201+938291630+932448604+923942569+913815715
1313+904633303+899991964+901302950+905187898+905018239+895032490+872985048
1303+839919364+799087502+755206966+713114651+676067271+645556558+622849075
1293+609665644+606035615+607438369+605232410+591177578+562559670+523692195
1283+482881284+447697258+421968459+405938052+398436754+398693300+406648858
1273+422270026+444727172+472061087+501524100+530204892+555622529+576505070
1264+593539517+608995775+624961539+641828984+658648552+674634569+689914329
1254+705080075+720480554+735942190+750938344+764905126+777419950+788181281
1244+796946883+803603939+808335917+811597013+813762932+814834204+814543494
1234+812728978+809826655+807362456+807795467+813190144+823633141+837021490
1224+850536734+862365354+872147778+880237867+886992136+892618292+897174570
1214+900508310+902301644+902138825+899462603+893538565+883483226+868333615
1204+847441180+821513306+793776161+769776617+755046671+752187709+759894522
1194+774374795+791302998+806679506+816548187+817206104+808004702+794858257
1184+788285201+795232900+813596394+835799019+855982342+872524546+885893174
1174+896651783+905155626+911616196+916087744+918660379+919585831+919030440
1164+916850245+912978910+908138960+903903672+901903428+903037650+907256935
1154+913703959+921087923+928313185+934913400+940877678+946216311+950836269
1145+954727126+958035700+960874343+963152880+964713673+965545232+965691052
1135+964984197+962999756+959220521+953119853+944103713+931435234+914264065
1125+891734208+862914171+826527761+781204497+726857989+666533656+607189028
1115+558326839+528693702+522364974+535673441+556712161+570161036+567462968
1105+554593721+547877500+560258822+591940212+633523086+675139428+711560898
1095+741637073+766093267+786136016+802847879+817033457+829328355+840273090
1085+850177098+859002330+866583510+873039897+878833785+884391878+889776462
1075+894736534+899025076+902696009+906069059+909363556+912476973+915226105
1065+917656239+919967845+922249570+924413629+926370512+928178920+929972917
1055+931751045+933306591+934414385+935076352+935586457+936294374+937197582
1045+937880399+938097934+938316664+939365360+941597548+944630684+947814820
1035+950745364+953379885+955841428+958180524+960264635+961676220+961376214
1026+957123728+945220604+922065236+888357638+852810690+829324106+827230367
1016+843903318+868137197+889994793+905964077+916411988+921015013+916313513
1006+897057037+863069022+826156969+805100586+809656465+832405782+858582334
996+879739450+895621480+908037829+917607633+924573726+929376822+932133125
986+932675833+931525077+930401280+931041135+933458720+935992044+936869421
976+934917119+928950451+917502384+899751122+877077504+854014767+837061597
966+831223750+836964915+850505459+866906558+882695492+896290021+907275328
956+915877315+922576469+927571004+930593316+931432180+930551483+929116457
946+928531849+929900207+933486476+938450532+943377734+947320652+950215936
936+952421298+954255071+955907764+957394119+958617652+959664555+960843599
926+962308240+963847783+965174174+966294053+967468449+968792118+970010538
916+970899403+971603403+972398905+973192549+973120435+970521572+963872751
907+953457111+942059976+933549027+930401147+932294683+936890072+941842972
897+946027130+949295530+951821019+953785538+955261202+956203787+956490048
887+955769580+953336391+948303476+939873937+927909790+914241687+903462427
877+900897363+908332125+921852283+934608945+941577295+941427093+934326734
867+918182878+888081603+843259744+796303309+769536704+776007966+805717930
857+833465035+838090969+815468548+780476526+758125558+765634425+799311544
847+840760950+874450885+896283248+908937119+915482684+917861224+917487710
837+915052396+909673988+898986762+881770040+861437046+845362647+839186147
827+842454016+850343503+857963130+861578218+857139140+841446755+817688518
817+797927914+794851152+809850560+833056460+855198459+874679309+893147321
807+910166296+924170396+934874754+942967167+949069363+953699148+957481106
798+960966377+964325417+967470043+970463271+973469248+976356564+978738357
788+980346627+980639263+976934067+963438876+936010437+900695897+873627825
778+866451833+871733626+865457123+823506578+736912132+618622485+501690704
768+426466136+418076572+469570725+548757069+623841527+682139519+727044580
758+764605983+796726958+822798394+842748710+857992015+870480144+881255420
748+890078328+896081650+898612318+897227825+889444250+869661866+836284355
738+801406279+785704997+798937964+830426986+861928624+884185632+898341595
728+908004030+914934133+919771426+923170042+925766315+927767888+928797592
718+928035689+924262563+915363691+896969917+861855780+805234985+735893849
708+678578881+655048670+660854511+669844421+664899755+655982821+664222117
698+696368657+740604712+781667256+812773999+834986119+851494658+864466928
688+874915038+883282956+889724402+894299273+897286392+899309943+901033222
679+902825295+904803095+906955135+909011423+910432571+910881784+910735101
669+911198591+913029176+914985396+915931167+915757392+914512477+912716354
659+911797741+912868880+915280356+917474097+918852216+919765716+920371573
649+920535454+920287441+919575007+917866071+914562943+910022269+905946082
639+904122668+904713518+906475642+908373162+909914432+910186616+908016115
629+903714491+899946146+899723897+903182939+907404813+909960648+911046927
619+911743689+912124242+911779879+910827932+909798758+909173047+909043628
609+909064213+908992233+908969922+908961024+908547668+907592932+906549084
599+905969721+905987185+906217403+906147946+905772705+905703513+906370328
589+907299100+907524338+906402932+903515151+898070805+889603085+879748945
579+872004017+868781700+869705559+872843013+876331073+878942685+880341920
569+881011457+881202298+879643166+873296144+858871583+836344781+811982480
560+795858014+794250740+804958551+820408301+834085235+843846013+850922201
550+856898697+861480872+863367634+863025395+862863041+864240894+866034493
540+866574413+865667088+864361215+863613655+863431115+863066033+862084604
530+861002640+860571754+860742940+860596456+859120128+855759827+850198812
520+842181633+832327095+823224765+818434086+819170955+822141872+821110043
510+811709898+795786233+780423470+771659262+769502308+769630399+768838880
500+768097628+770110223+775202635+781166382+786497312+791936080+798379983
490+805355970+812066081+817806848+821247297+821356463+819291875+817867739
480+818918692+821648103+823092956+820303119+812602348+802139961+792357072
470+784420373+775338960+761023498+740745884+718187674+698766852+686967450
460+685492582+695279921+713722102+733454883+748492672+758959176+767328819
450+774621746+780554482+784888644+788044292+791067933+794634016+798131571
441+800659649+802287574+803357519+803657857+803027033+802026878+801587094
431+802118912+802733467+801982454+800168270+799748008+801990622+804803501
421+806475052+809743784+817656579+826512422+831528006+831784121+828042071
411+821271800+812418015+803044497+796249789+795127851+799243283+804254285
401+806467084+806648828+807943346+810166702+811050852+811131133+811670919
391+812096228+810679330+805803656+796915939+786638882+780941476+782070386
381+784607296+782358042+773200466+757032373+735924195+717998891
##END=
