##TITLE=SG-X6236
##JCAMP-DX=4.24
##DATA TYPE=INFRARED SPECTRUM
##DATE=11/2/2022
##SAMPLING PROCEDURE=Diamant-ATR
##ORIGIN=Angelika Moesle
##XUNITS=1/CM
##YUNITS=TRANSMITTANCE
##RESOLUTION=4
##FIRSTX=3997.453
##LASTX=373.96442
##DELTAX=-1.4165319
##MAXY=0.91698939
##MINY=0.53107756
##XFACTOR=1
##YFACTOR=8.5401292e-010
##NPOINTS=2559
##FIRSTY=0.86694306
##XYDATA=(X++(Y..Y))
3997+1015140456+1014738026+1014383544+1014345576+1014568008+1014747657
3989+1014632079+1014259660+1013845016+1013492140+1013197960+1013068493
3980+1013270964+1013738790+1014106254+1014010357+1013499678+1013089082
3972+1013236765+1013825684+1014357650+1014505194+1014291277+1013936237
3963+1013663972+1013520685+1013435537+1013527176+1014020757+1014782345
3955+1015379848+1015642341+1015685613+1015467090+1014838877+1013995282
3946+1013324496+1012929464+1012761191+1012966036+1013629145+1014437076
3938+1014989352+1015161394+1014995564+1014519223+1013823799+1013167949
3929+1012797554+1012731320+1012824983+1012905594+1012795949+1012402662
3921+1011973640+1012061929+1012911317+1013989489+1014598020+1014639477
3912+1014324987+1013782342+1013189585+1012765030+1012548251+1012480691
3904+1012593687+1012924857+1013403083+1013855206+1014077359+1014039043
3895+1013909157+1013793509+1013682607+1013631029+1013736627+1014030109
3887+1014605557+1015488028+1016254990+1016348374+1015642481+1014431492
3878+1013352483+1012957311+1013231042+1013684700+1013960664+1014379845
3870+1015335668+1016363519+1016810058+1016805103+1016682196+1016385434
3861+1015851862+1015342368+1015050980+1014908531+1014838040+1014886686
3853+1014969391+1014828199+1014511406+1014218063+1014019291+1013915438
3844+1014002959+1014524318+1015544979+1016584555+1016892275+1016204459
3836+1015043163+1014023339+1013400152+1013238161+1013472807+1013902875
3827+1014256729+1014306771+1014132008+1014159297+1014717576+1015591671
3819+1016306707+1016670960+1016493126+1015684706+1014766222+1014318077
3810+1014374331+1014559982+1014455920+1014053629+1013823171+1014057398
3802+1014551537+1014872448+1014807121+1014437704+1013934352+1013583500
3793+1013625236+1013946636+1014216388+1014276271+1014330780+1014734117
3785+1015551470+1016377966+1016726795+1016484332+1015893249+1015289186
3776+1014875868+1014698732+1014707805+1014765803+1014681981+1014359325
3768+1013975530+1013858417+1014076173+1014331129+1014429189+1014635987
3759+1015313753+1016310406+1017059780+1017257575+1017019997+1016705159
3751+1016766926+1017231053+1017522860+1017279839+1016581275+1015901485
3742+1015841532+1016269158+1016578902+1016368125+1015761130+1015395132
3734+1015576666+1015770831+1015642202+1015591183+1016086299+1017069900
3725+1017825904+1017541356+1016329669+1015250520+1015162720+1015921376
3717+1016830229+1017535005+1018178571+1018833445+1018982035+1018120922
3708+1016850957+1016122452+1016112052+1016395763+1016577646+1016596839
3700+1016577366+1016511691+1016280534+1015936452+1015741239+1015803704
3691+1015842440+1015580714+1015323315+1015495356+1015811731+1015800215
3683+1015436101+1015164325+1015587972+1016886692+1018444694+1019136349
3674+1018589377+1017862057+1017579812+1017272650+1016441757+1015384384
3666+1014643385+1014415021+1014680585+1015285277+1016029975+1016800776
3657+1017431710+1017554547+1017037655+1016356958+1016148415+1016814944
3649+1018083861+1018719960+1018070252+1016888646+1016112890+1015997242
3640+1016072898+1015789117+1015263851+1015145899+1015784930+1016818364
3632+1017663634+1018030469+1017760089+1016889553+1016021181+1015662163
3623+1015720022+1015717160+1015201525+1014297488+1013799999+1014242631
3615+1015376986+1016718140+1017894162+1018583723+1018551479+1017988035
3606+1017585186+1017815575+1018462003+1019023772+1019163150+1018837842
3598+1018258136+1017730985+1017418728+1017222050+1017073110+1017185548
3589+1017729659+1018449301+1018898144+1019028378+1018965983+1018603684
3581+1017994177+1017661540+1018073392+1018914336+1019297154+1018728615
3572+1017662727+1016990056+1017149534+1017787099+1018147513+1018010718
3564+1017876226+1017974216+1017959210+1017489220+1016637389+1015655672
3555+1014701175+1014047069+1014163764+1015201036+1016623360+1017672149
3547+1017911750+1017313340+1016211299+1015240819+1015043233+1015798121
3538+1017012669+1017920614+1018144024+1017838188+1017295543+1016734681
3530+1016368265+1016313058+1016449644+1016568642+1016543168+1016320317
3521+1016011201+1015948875+1016310057+1016761482+1016873152+1016760226
3513+1016830578+1017028582+1016890042+1016333019+1015863308+1015898763
3504+1016311104+1016651627+1016682894+1016664748+1016937432+1017330021
3496+1017367779+1017080020+1017071645+1017642905+1018410565+1018875879
3488+1018907287+1018665452+1018416079+1018394513+1018639209+1019038010
3479+1019562090+1020229666+1020855156+1021023987+1020356132+1018851661
3471+1017092653+1015976583+1016024880+1016935268+1017814528+1017805036
3462+1016680870+1015038906+1013760147+1013208080+1013100039+1012961848
3454+1012416760+1011300272+1009914868+1009012716+1009167937+1010181061
3445+1011290431+1011920527+1012078331+1012153847+1012460660+1012911666
3437+1013169693+1013097248+1012863858+1012618184+1012363368+1012251489
3428+1012645683+1013651897+1014835737+1015648204+1015979165+1016084972
3420+1016134805+1016110098+1016081832+1016226305+1016490613+1016549309
3411+1016273904+1016017622+1016171935+1016576180+1016652813+1016142343
3403+1015473022+1015277460+1015666699+1016142203+1016219325+1015975536
3394+1015854374+1016067036+1016377198+1016413491+1016078831+1015678006
3386+1015625242+1015945455+1016253384+1016356539+1016530744+1016971700
3377+1017381947+1017385437+1017045682+1016729586+1016683383+1016869802
3369+1017041843+1016883830+1016221977+1015236143+1014442310+1014347251
3360+1015044489+1016170470+1017203345+1017743687+1017662657+1017182058
3352+1016713464+1016509597+1016545610+1016701878+1016910701+1017131179
3343+1017271534+1017210045+1017011552+1017040587+1017542193+1018183038
3335+1018442321+1018332746+1018209001+1018090003+1017800220+1017588048
3326+1017945949+1018828210+1019496205+1019304831+1018494597+1017969330
3318+1018197625+1018660845+1018654913+1018196648+1017691621+1017225819
3309+1016727632+1016370708+1016323038+1016467721+1016642903+1016833788
3301+1017051335+1017285143+1017554617+1017817599+1017937783+1017871898
3292+1017792334+1017924174+1018232522+1018360384+1018021955+1017398907
3284+1016983914+1017093490+1017678430+1018451464+1019055528+1019247530
3275+1019044222+1018648701+1018264348+1018045894+1018130763+1018543592
3267+1019069138+1019382930+1019370576+1019170478+1018907635+1018651214
3258+1018580862+1018846775+1019291012+1019588542+1019580516+1019345660
3250+1019125950+1019205584+1019670689+1020304415+1020778523+1020872954
3241+1020563419+1020031103+1019546526+1019321861+1019494670+1020055042
3233+1020707822+1021050858+1020959288+1020658967+1020457542+1020460613
3224+1020492718+1020356551+1020141587+1020064604+1020117298+1020162036
3216+1020200353+1020271472+1020277824+1020094197+1019714938+1019276983
3207+1019014699+1019112759+1019544432+1020079400+1020450074+1020557138
3199+1020537037+1020552113+1020571376+1020494323+1020375814+1020352782
3190+1020438000+1020501163+1020435418+1020321026+1020309580+1020315791
3182+1020073049+1019593846+1019282218+1019481967+1020100408+1020723386
3173+1021008981+1020978412+1020917133+1021014286+1021231484+1021480786
3165+1021728274+1021978415+1022259125+1022510451+1022459642+1021810770
3156+1020631956+1019433251+1018770770+1018802875+1019293455+1019965776
3148+1020626861+1020983297+1020741183+1020046528+1019523355+1019667967
3139+1020321305+1020870651+1020921391+1020642565+1020432835+1020464452
3131+1020685837+1021014565+1021291646+1021264287+1020849364+1020279917
3122+1019855154+1019656870+1019574374+1019522657+1019599151+1019991111
3114+1020633352+1021038365+1020741323+1019876371+1019029705+1018587143
3105+1018543243+1018789335+1019205724+1019573676+1019696931+1019508838
3097+1018980081+1018196508+1017551197+1017541007+1018286263+1019390886
3088+1020290247+1020653592+1020492439+1020030894+1019541780+1019136140
3080+1018590982+1017617640+1016412793+1015566057+1015289325+1015199012
3071+1014983978+1014828827+1015000868+1015383686+1015595301+1015407346
3063+1014908392+1014257846+1013415437+1012244928+1010780588+1009232706
3054+1007807939+1006669954+1005979207+1005822520+1006145315+1006852255
3046+1007930636+1009340048+1010817928+1011998906+1012757353+1013265311
3037+1013724273+1014193915+1014594809+1014707526+1014266011+1013175486
3029+1011624742+1010018791+1008860566+1008528558+1009017113+1009940203
3020+1010820091+1011378161+1011640934+1011828888+1012122231+1012549089
3012+1013062490+1013617419+1014190634+1014798746+1015430797+1015963462
3003+1016265110+1016358563+1016374127+1016373848+1016235378+1015659860
2995+1014443636+1012851783+1011506651+1010760069+1010372365+1009875714
2986+1009021789+1007814988+1006337667+1004667855+1002851197+1000856356
2978+998652483+996391868+994408682+992877969+991561522+990084131+988424369
2968+986898122+985666963+984507412+983114262+981436074+979688233+978222009
2958+977411216+977510184+978564625+980429232+982728791+984826857+986145747
2948+986640584+986751067+986882070+987172760+987684347+988454310+989318285
2938+989919139+989957455+989299860+987783454+985033237+980689003+974942477
2928+968790589+963681836+960925198+961236198+964399245+969194973+973978976
2918+977690740+980318609+982373263+984087882+985250853+985672826+985538263
2908+985179803+984674428+983878153+982789931+981638964+980600226+979639307
2898+978700583+977859780+977180339+976566644+975905140+975309591+975106631
2888+975582205+976782166+978515351+980477319+982399784+984151115+985726985
2878+987163687+988491092+989763569+991065499+992435128+993810760+995093567
2868+996261703+997377633+998447988+999294514+999685358+999662606+999597000
2859+999787606+1000165469+1000562385+1001059385+1001810853+1002685158
2850+1003348825+1003635467+1003655847+1003585007+1003451282+1003155567
2842+1002703234+1002375693+1002536637+1003212588+1003975153+1004347641
2833+1004300531+1004257049+1004624931+1005403758+1006287345+1007037836
2825+1007643854+1008190059+1008760552+1009439713+1010219517+1010914173
2816+1011328957+1011478524+1011507838+1011519772+1011613505+1011925901
2808+1012460102+1012983833+1013214082+1013075472+1012764332+1012548879
2799+1012470082+1012318839+1011983900+1011663338+1011602617+1011781498
2791+1012006653+1012189372+1012406849+1012736135+1013124118+1013452986
2782+1013678070+1013843690+1013999330+1014144291+1014245632+1014294976
2774+1014351020+1014484954+1014686937+1014899528+1015119029+1015376567
2765+1015624544+1015726164+1015618402+1015466810+1015522715+1015797283
2757+1016065360+1016218348+1016359052+1016544773+1016697900+1016738590
2748+1016621895+1016384317+1016230492+1016345163+1016617707+1016807127
2740+1016895974+1017018671+1017167541+1017222888+1017195249+1017205788
2731+1017250665+1017203485+1017086650+1017109543+1017341467+1017564248
2723+1017550569+1017303429+1016964442+1016674868+1016547076+1016608913
2714+1016764204+1016897789+1016992848+1017079322+1017122803+1017082602
2706+1017059152+1017217164+1017528025+1017786611+1017934015+1018145419
2697+1018521258+1018903657+1019096218+1019087982+1018994738+1018924177
2689+1018948325+1019077234+1019204328+1019180738+1018967169+1018638232
2680+1018267698+1017909028+1017677035+1017737057+1018132577+1018633556
2672+1018874065+1018707886+1018345308+1018107382+1018164962+1018501506
2663+1018962982+1019370716+1019688137+1019982108+1020209217+1020252977
2655+1020163920+1020110249+1020098245+1019975687+1019717172+1019528380
2646+1019622322+1019965846+1020301763+1020444351+1020493695+1020674879
2638+1020985740+1021147522+1020942259+1020448818+1019894378+1019470451
2629+1019367296+1019720661+1020395635+1021022870+1021317609+1021246070
2621+1020982600+1020862694+1021186187+1021905760+1022670000+1023209016
2612+1023483584+1023512757+1023332830+1023087714+1022919023+1022826407
2604+1022802747+1022934657+1023202734+1023437590+1023618425+1023878476
2595+1024136852+1024144599+1023925936+1023767644+1023812102+1024000824
2587+1024300658+1024702459+1025108379+1025404374+1025575787+1025674335
2578+1025731845+1025776374+1025873596+1026058619+1026289147+1026572300
2570+1027002787+1027551086+1028018214+1028279521+1028331867+1028150543
2561+1027788523+1027478919+1027354547+1027252718+1027022120+1026791033
2553+1026719844+1026708467+1026592959+1026502576+1026732616+1027296688
2544+1027881907+1028230457+1028305624+1028135816+1027760327+1027298991
2536+1026893351+1026605661+1026383369+1026094493+1025728635+1025589606
2527+1026003901+1026799059+1027453723+1027794386+1028072165+1028311976
2519+1028173435+1027618716+1027146073+1027153192+1027556529+1028114948
2510+1028597990+1028627303+1027987924+1027128066+1026771561+1027074884
2502+1027697582+1028491485+1029493581+1030407459+1030760266+1030539508
2493+1030169812+1029902502+1029643428+1029317073+1029015286+1028790829
2485+1028624372+1028603573+1028874652+1029378910+1029845411+1030078382
2476+1030134775+1030203871+1030353229+1030377378+1029945565+1028981785
2468+1027892167+1027306878+1027531962+1028256908+1028851410+1028934255
2459+1028560301+1027990925+1027551155+1027559880+1028045852+1028662479
2451+1029105599+1029351412+1029397196+1029187048+1028851201+1028643495
2442+1028693677+1029028128+1029590106+1030119700+1030335153+1030278131
2434+1030198148+1030147268+1029959593+1029542227+1028959032+1028328517
2425+1027834936+1027730874+1028103991+1028701703+1029155152+1029295158
2417+1029174904+1028948982+1028820143+1028967966+1029424835+1030023664
2408+1030477392+1030602462+1030478509+1030262358+1029970411+1029651036
2400+1029528199+1029686072+1029869490+1029788320+1029362649+1028653406
2391+1027862574+1027344566+1027343240+1027745182+1028199678+1028420854
2383+1028399148+1028410664+1028747208+1029326495+1029674277+1029456451
2374+1028956101+1028736111+1028883027+1029042645+1029195283+1029686421
2366+1030412135+1030849601+1030978859+1031273877+1031921841+1032858052
2357+1034041473+1034932667+1034562342+1032836765+1030890570+1029725924
2349+1029461616+1029818331+1030451010+1030889035+1030845833+1030661857
2340+1030852254+1031413743+1031936079+1032135618+1032039931+1031753149
2332+1031266897+1030644129+1030212944+1030189982+1030307445+1030234092
2323+1030139382+1030397478+1030894618+1031077687+1030589481+1029622071
2315+1028836684+1028934116+1030015568+1031393852+1032184823+1032036791
2306+1031328386+1030761312+1030702058+1030916603+1031019688+1031004962
2298+1031116492+1031350510+1031423305+1031203455+1030876891+1030660182
2289+1030622702+1030838365+1031392247+1032080830+1032428193+1032274926
2281+1032092556+1032373824+1032971188+1033483193+1033989895+1034821346
2272+1035846963+1036609459+1036896450+1036730411+1036220987+1035745204
2264+1035704096+1035948513+1036036732+1036011397+1036285826+1036844663
2255+1037066258+1036407197+1035003787+1033485846+1032411443+1032037838
2247+1032353026+1033012017+1033521440+1033768440+1034081813+1034721262
2238+1035694464+1036952145+1038409227+1039883268+1041088184+1041501921
2230+1040589090+1038597948+1036834055+1036663409+1038254215+1040483702
2221+1042125387+1042843703+1042736989+1041556569+1039214226+1036516145
2213+1034604149+1034050406+1034642745+1035511047+1035725313+1035379695
2204+1035579863+1036948237+1038857022+1040296167+1040838184+1040710112
2196+1040255896+1039275435+1037188885+1034323020+1032444106+1033158863
2187+1036163478+1039809566+1042959700+1045334986+1046391871+1045227992
2179+1041951322+1038266219+1036223989+1036424017+1037581823+1038132983
2170+1037945169+1037912785+1038435608+1039146596+1039675003+1040033463
2162+1040798541+1042928851+1046320821+1049350073+1051316508+1053104132
2153+1054725088+1054967481+1053578030+1051811414+1050631553+1049719630
2145+1048432706+1046809516+1045464523+1045020217+1045786621+1047492935
2136+1049043958+1049115357+1047463552+1045055812+1042824789+1041222049
2128+1040720163+1041447203+1042455092+1042582396+1041904351+1041286398
2119+1040909583+1040295329+1039377613+1038526759+1037820308+1037143450
2111+1036849060+1037434210+1038498353+1038905389+1038344598+1037827636
2102+1038089223+1038481812+1038200544+1037664878+1037804744+1038763150
2094+1040081481+1041470933+1042679758+1043170058+1042646187+1041689177
2085+1041324924+1041961442+1043030192+1043684716+1043621134+1043136557
2077+1042616106+1042211443+1041909585+1041646813+1041318434+1040866031
2068+1040393249+1040115610+1040273972+1041046169+1042308037+1043583515
2060+1044516935+1045185767+1045722759+1046025315+1046119396+1046345877
2051+1046929212+1047648923+1048037813+1047827804+1047147317+1046195262
2043+1045075214+1044233922+1044313906+1045057277+1045422577+1045349364
2034+1046016172+1047812450+1049706230+1050969703+1051741481+1051982548
2026+1051487712+1050618083+1049967467+1049686548+1049585347+1049324738
2017+1048617170+1047980513+1048596721+1050420637+1051593100+1050847495
2009+1049224514+1048270296+1048111097+1048409674+1049315036+1050572508
2000+1051329280+1051217750+1050638533+1050199322+1050491478+1051736456
1992+1053229551+1053902501+1053484507+1052398658+1051139092+1050334023
1983+1050609150+1051841844+1052965870+1052965033+1052147540+1051889862
1975+1052653335+1053243021+1052489948+1050542357+1048413861+1047330246
1966+1048085203+1049990010+1051140349+1050298847+1048007732+1045949030
1958+1045480157+1046538647+1047878684+1048529160+1048624778+1048700364
1949+1049044586+1049826973+1050900747+1051560018+1051402912+1051304224
1941+1052526101+1054907738+1056973559+1057623687+1057071480+1056142527
1932+1055308144+1054654527+1054123816+1053567910+1053002093+1052665898
1924+1052592544+1052517446+1052430414+1052660244+1053190396+1053346176
1915+1052530847+1050982196+1049533142+1048902137+1049154930+1049700437
1907+1049873316+1049600562+1049390902+1049595956+1049946529+1050008436
1898+1049716140+1049224863+1048634409+1048031672+1047584504+1047565311
1890+1048183961+1049225491+1050184107+1050818949+1051111175+1050959444
1881+1050396558+1049888182+1050059944+1051091563+1052401519+1053075935
1873+1052746230+1051848894+1051107895+1051032587+1051650540+1052571257
1864+1053419808+1054033782+1054356020+1054481508+1054687818+1055089899
1856+1055443893+1055536509+1055475090+1055508940+1055835365+1056497078
1847+1057272834+1057777651+1057741149+1057257759+1056704016+1056328038
1839+1056176656+1056328945+1056885061+1057674357+1058294682+1058454998
1830+1058130388+1057595001+1057208973+1056971116+1056578667+1055972230
1822+1055429306+1055157669+1055217273+1055612444+1056234305+1056953459
1813+1057759924+1058659214+1059583631+1060437556+1061129769+1061676322
1805+1062243535+1062966178+1063869656+1064933381+1065975399+1066765323
1796+1067435901+1068290802+1069237413+1069845176+1070034386+1070218642
1788+1070797510+1071860536+1073038862+1073741823+1073667144+1072875615
1779+1071721507+1070677814+1069852016+1069082471+1068507721+1068363318
1771+1068292198+1067766303+1066625457+1064856189+1062470155+1059215469
1762+1054668904+1049357471+1044622254+1040939175+1037991721+1035289941
1754+1031657532+1024849305+1011631023+988979856+956301580+914719525+865745557
1744+812956811+761766548+716285263+679271757+652867787+636130023+626299803
1734+623852839+631728629+649001431+672907557+700842519+729662255+757567276
1724+783729132+806389093+824725549+840644634+856735831+872852362+886102469
1714+895643884+902962861+909092694+914304601+918941898+923452590+927698275
1704+931170227+933989052+936657471+939048181+940581756+941611770+943074644
1694+945197836+947653105+950568873+954161569+957881498+961144699+964525711
1684+968821298+972961874+975636086+977261858+978484293+979618649+980792577
1674+981896433+982843323+983891483+985349960+987058647+988503864+989615536
1664+990769783+992204670+993623504+994553155+994956562+995125881+995500464
1655+996699797+998773016+1000152766+1000377223+1000473956+1001177616+1002602941
1645+1004097152+1005140567+1005814494+1006353510+1006896504+1007459180
1636+1007925890+1008172401+1008351143+1008637715+1008940759+1009071692
1628+1008984589+1008791191+1008624175+1008644555+1008964279+1009532190
1619+1010389116+1011783104+1013651339+1015284230+1016232865+1016611495
1611+1016526696+1015887596+1014500448+1012162572+1008486682+1002471450
1602+992639554+978556739+962709681+950327247+946445955+952171404+963535549
1592+974608235+981307654+982090320+976938155+966948596+954331097+942021040
1582+932937751+929028331+930803532+938070094+949425514+959937758+965622238
1572+968597400+972602506+978846801+985112034+989204173+991373219+992518532
1562+993210256+994111641+996131328+998909463+1000585347+1001412541+1002483943
1553+1004117532+1006066728+1007879477+1009199135+1010080000+1010930226
1544+1012078749+1013514823+1015020690+1016246684+1016909165+1017221771
1536+1017529770+1018054409+1018850475+1019714170+1020445049+1021060280
1527+1021653874+1022255077+1022855581+1023502568+1024218720+1024876734
1519+1025396347+1025896139+1026435295+1026812320+1026823208+1026582978
1510+1026485965+1026960073+1028077190+1029063583+1029379190+1029485695
1502+1029738208+1030167857+1030780157+1031588786+1032231026+1031833133
1493+1028766541+1019440440+999192127+970181855+945726592+936627948+942355351
1483+956333546+971678579+984178126+993128109+999683334+1004814910+1008886180
1473+1012132281+1014713737+1016538631+1017625387+1018280749+1018830793
1465+1019257301+1019121344+1018022513+1015599349+1010940485+1003237434
1456+995149751+991256663+992029139+995871556+1001364174+1007207574+1012154824
1446+1015055726+1014554050+1008409071+994595380+974418466+952989385+937220217
1436+933739330+942447688+955980181+968890184+978975989+984823437+986142397
1426+983656418+977984780+970221846+962585727+957561983+957349601+962461076
1417+969999344+976596864+980818820+982515991+982401948+981289508+978679296
1407+972317399+960028071+943216116+926892717+915326938+910262714+911623829
1397+918206623+928561901+940698102+952068528+961535752+969759324+977547384
1387+984714978+990530042+994891026+998331223+1001281748+1003799971+1005819030
1377+1007457435+1009013903+1010657472+1012226921+1013515242+1014552026
1368+1015454736+1016286676+1017127200+1018068926+1019075280+1019939394
1360+1020478062+1020697702+1020728411+1020639634+1020294295+1019417338
1351+1017783749+1015288069+1011983760+1008255176+1004957917+1003163732
1343+1003523030+1005861465+1009322600+1012854436+1015815639+1018177734
1334+1020165805+1021939819+1023575781+1025089325+1026432643+1027583540
1326+1028614461+1029556116+1030279178+1030635195+1030607069+1030240722
1317+1029565888+1028649009+1027646703+1026797524+1026326696+1026226891
1309+1026138602+1025561619+1024236517+1022379588+1020624558+1019720731
1300+1020104177+1021614022+1023614586+1025334371+1025988825+1024678939
1292+1020468221+1012633469+1000695830+984380457+964110648+941840903+921137256
1282+905876953+898283129+898069212+903581930+913375090+926244543+940309910
1272+953171337+963340615+971075283+977559528+983625151+989415299+994786754
1262+999580598+1003650264+1006970206+1009716864+1012086915+1014109813
1254+1015651903+1016218976+1014410484+1007984656+995652195+979575935+965518594
1244+959299286+962552157+971909665+981876193+988198238+989372306+986147422
1234+980000699+972248304+964696007+960090606+960298591+964051184+967934430
1224+969959701+971103549+973254448+976993153+981813309+987335589+993517837
1214+1000144391+1006641897+1012320654+1016733355+1019918526+1022274340
1205+1024168887+1025767091+1027147888+1028349943+1029341292+1030147198
1197+1030943055+1031872217+1032861821+1033749386+1034498621+1035188042
1188+1035848290+1036410477+1036795389+1036927159+1036586636+1035283799
1180+1032274089+1026774981+1018412729+1007558985+994907148+980554930+964074495
1170+946200979+930359435+921665524+923524198+934737937+949647527+960570856
1160+960113498+943109332+909679170+868006731+832298366+814815136+818030877
1150+834018987+850926699+860000845+858334034+847949792+833525128+819889411
1140+810437053+807239319+811613354+823644865+841473713+861899301+881881840
1130+899504657+914082169+925883082+935684757+944230287+951853215+958522064
1120+964204381+969123504+973623377+977830955+981505170+984138273+985052151
1111+983475862+979174273+973617445+970037103+971180950+976839886+984222654
1101+990652320+995292828+998605791+1001136019+1003049480+1004296971+1004785387
1091+1004294180+1002237781+997613465+989515313+978201210+965897853+956140567
1081+951665261+952686760+957160251+962434136+966525367+968293519+967283535
1071+964077636+960703463+959884366+963198864+969983431+978159194+985816461
1061+991908605+996088684+998536137+999849513+1000728633+1001654585+1002830747
1051+1004296064+1006020385+1007933986+1009902864+1011740041+1013321146
1043+1014678282+1015899950+1016961650+1017765463+1018289543+1018512464
1034+1018189040+1016723095+1012988649+1005414158+993450974+979837801+970300015
1024+969331001+976298148+986518584+995667061+1002332979+1007124869+1010853453
1014+1013875865+1016360797+1018519932+1020492369+1022135450+1022834503
1006+1021285434+1015952295+1006948500+997636567+992856891+994547990+999860261
996+1004105109+1004576076+1001040681+994003181+984009574+972387193+961524027
986+953775471+949991121+949167347+949706852+951110122+954326770+960387368
976+968867292+977907170+985687761+991637248+996174182+999669515+1001998040
966+1002857548+1002096658+999759409+996187163+992188617+988834406+986849127
956+986263000+986716868+987992765+990157623+993304268+997255634+1001530422
946+1005589968+1009109939+1012043294+1014508474+1016557754+1017839514
938+1017436316+1014185679+1007350512+997442820+986858898+979273868+977316576
928+980506354+985921291+990914884+994872252+998626380+1002900192+1007569733
918+1012055648+1015966882+1019236363+1021814330+1023428517+1023742588
909+1022775877+1021067259+1019364574+1018262603+1018163775+1019286056
901+1021493838+1024275532+1027059808+1029524709+1031585505+1033188525
892+1034279259+1035009231+1035733130+1036606946+1037430441+1038070239
884+1038712899+1039518666+1040387387+1041198458+1041954672+1042629507
875+1043127414+1043335539+1043000320+1041574785+1038248841+1032258944
867+1023684869+1014335247+1007434334+1005660808+1009117337+1015166279
858+1020269448+1021980788+1019069138+1010029539+992489986+964908808+929069649
849+891351228+861699901+849567817+858272965+882650338+912910893+940929328
839+963208635+979743300+991834973+1000813712+1007646716+1012957591+1017137600
829+1020465778+1023232746+1025700019+1027885606+1029481228+1029982137
820+1028854342+1025715723+1020594826+1014220366+1008180427+1004577751
812+1004960569+1009212675+1015569616+1021895151+1026995319+1030813099
803+1033597166+1034983686+1033861824+1029160945+1020697283+1009332859+997094410
793+987593615+984997084+990933100+1002687810+1015416419+1025789983+1033136249
783+1038133332+1041519858+1043811322+1045266449+1045394241+1042339444
775+1032899161+1013555303+982996450+945919153+914325609+901619264+912545384
765+939480971+969494178+993884742+1010938950+1022544650+1030711410+1036600595
755+1040778580+1043559367+1045241044+1046084011+1046167345+1045388029
747+1043448325+1039776902+1033518300+1023436962+1008046773+986905660+962384792
737+939468827+923066910+915504005+916559005+925051352+939500723+957718600
727+976981357+995034033+1010689717+1023541303+1033309687+1039165789+1039019711
717+1028874861+1003322792+959228864+900701059+837581044+776616604+717980899
707+664016968+627077373+621861278+650527817+700254299+754402764+802433959
697+840934767+869729028+889034359+899585478+904023165+906742045+910982635
687+915730904+916551537+910139877+897888865+885456669+879287821+882768498
677+894289609+908197312+917969883+919808805+913392539+898411829+874682350
667+851915465+843812636+850518057+866528432+886805710+906047459+920556713
657+929649146+934564709+937307878+939938817+943983008+949871705+956784482
647+963461079+969213887+974014361+978201978+982367330+986878231+991322967
637+994886978+997433817+999885527+1003131069+1006723346+1009305291+1010355755
628+1010832166+1011958286+1013932956+1016077016+1017895698+1019391794
619+1020215219+1018937228+1013418228+1002319439+987112807+971660013+957110907
609+938411594+911033026+881083122+862890929+865451308+885319106+912259928
599+937405170+956346318+968594189+976024696+981020663+984915565+987650009
589+988687072+987832659+985228799+981320356+976707766+971308393+964233694
579+955357133+946285848+939069538+934540491+932152573+930920366+930357551
569+930881212+933318614+937704654+942873011+947676486+952225843+957393920
560+963422553+969604173+975106841+979704565+984006154+989074357+995195047
550+1001020650+1004741557+1006052560+1006217063+1006506288+1007402508
541+1008877107+1010536729+1011831610+1012891077+1014854860+1018636836
533+1023572571+1027898588+1030349391+1030831385+1029967689+1028614810
524+1027348126+1025772814+1022617585+1017040028+1010269839+1005539228
516+1005281620+1008962255+1014451732+1020273636+1025888323+1030870330
507+1034764255+1037648755+1040256175+1043125669+1045616185+1046303233
499+1044681369+1041689038+1038330220+1033878504+1024604260+1003602106+963564722
489+903184386+833067980+775160291+751627630+768273895+809784622+853581159
479+884989331+901150949+907788251+913144283+922124068+934302914+946904080
469+958354978+968121338+976039004+982805215+989237115+995216264+1000406675
459+1005106019+1009690273+1014022711+1017549452+1019354384+1018808598
450+1016708090+1014764757+1014127262+1014938263+1015868403+1013920533
442+1007004754+997019661+987867486+981339619+976711047+972832616+969642629
432+967979168+968383273+970467799+973918116+979609715+988380748+999014781
422+1009275280+1017878947+1023331713+1024305404+1023312938+1023564335
414+1024924961+1025665192+1024782582+1021304697+1012712266+997036621+976395091
404+956326567+941765805+934915562+936082860+943598027+953046406+961410752
394+969840354+980053742+991650020+1002380020+1010083420+1015082736+1020393053
384+1027385256+1032279603+1031735701+1028796553+1030191029+1039813614
375+1052403404+1056967906
##END=
