##TITLE=X8226
##JCAMP-DX=5.0
##DATA TYPE=LINK
##BLOCKS=1


$$ === CHEMSPECTRA SPECTRUM ORIG ===
##TITLE=X8226
##JCAMP-DX=5.00
##DATA TYPE=INFRARED SPECTRUM
##DATA CLASS=XYDATA
##ORIGIN=ComPlat
##OWNER=
##XUNITS=1/CM
##YUNITS=TRANSMITTANCE
##XFACTOR=1
##YFACTOR=9.1122215e-010
##FIRSTX=3997.453
##LASTX=373.96442
##MAXX=3997.453
##MAXY=0.9784173324989796
##MINX=373.96442
##MINY=0.3658992332417713
##NPOINTS=2559
##XYDATA= (X++(Y..Y))
2559A062338525A062911336A063491866A063588544A063437574A063275287A062987541
2552A062680564A062747676A063148977A063400355A063373863A063424622A063746056
2545A064148011A064348171A064156972A063581741A062918859A062567074A062647334
2538A062870519A062883144A062692207A062569560A062641382A062884910A063374909
2531A064058986A064494432A064347386A063997564A064185427A065119376A066124885
2524A066286321A065532189A064740838A064721607A065390507A065966065A065920277
2517A065374024A064669604A064112689A064122827A065033228A066365339A067083952
2510A066964838A066711236A066818642A067031950A066928730A066546856A066173682
2503A065892019A065497652A064835880A064116483A063804011A064267845A065381023
2496A066487005A067106127A067585399A068631529A070043835A070751524A070265646
2489A069017524A067717465A066878952A066620183A066631107A066364619A065678515
2482A065154175A065401889A066206977A066513693A065950825A065219521A064749603
2475A064422152A064430851A065091510A066038476A066554248A066597812A066554902
2468A066502442A066643731A067363064A068171423A067655455A065579874A063584489
2461A063058120A064023532A065896598A068171096A069685640A069091178A067247286
2454A065708736A065179751A065605123A066393728A066898706A067079766A067440774
2447A068201512A068925555A069137424A068755354A067730875A066147714A064691583
2440A064278965A065097201A066384635A067472564A068758166A070720519A072172595
2433A071712358A070193366A068831428A067659053A066350817A065018772A063930844
2426A063403429A063848360A065177788A066527168A067365223A067739967A067707392
2419A067588473A067813359A068045047A067442343A066002304A064693741A064194977
2412A064396772A064953753A065613758A065961160A065660396A065032640A064630096
2405A064464931A064118837A063459029A062828002A062755133A063636884A065176218
2398A066210117A066043513A065441267A065361857A065898822A066752446A067681293
2391A068140679A067501934A066232357A065634624A066528149A068790741A071091600
2384A071627519A070628027A069567114A068909856A067997689A066442852A064840852
2377A063712761A063439405A064431309A065994127A065851595A063512928A061362255
2370A061001444A062077860A063618176A064796569A065044937A064354451A063331607
2363A062598930A062321257A062391051A062780774A063644079A065109956A066635162
2356A066986816A065823860A063915930A062080475A060922230A060740189A061121801
2349A061240851A060988427A060873956A061266950A062487991A065035714A068976969
2342A072770851A073531459A070696186A066805756A063752662A062009570A061571049
2335A062202992A063596067A065800050A068738216A070811049A070768531A069670922
2328A068652723A067885966A067191816A066529653A065787622A064800755A063658469
2321A062705355A062383398A063215370A065261581A067476815A068963690A070215998
2314A072143945A073741823A072260835A068406840A065264263A064025887A063947720
2307A063901867A063548054A063144071A062668724A061830603A060774334A060256862
2300A061037420A062862801A063770781A062593435A060640240A059545509A060419802
2293A063549559A067531565A069936494A070254918A069839030A069480247A069125323
2286A068806244A068723498A068566772A067611433A065861603A064306831A063820298
2279A064167373A064280601A063678420A062838925A062159559A061502105A060822543
2272A060614010A061513683A063423903A064925495A064841768A063735459A062542872
2265A061706321A061488369A061873971A062276188A062150401A061752502A061713516
2258A062340684A063885971A066622015A069486003A070030883A067892311A065145671
2251A063366995A062632355A062423037A062605798A063220799A063899970A064127472
2244A063952888A063975193A064590587A065458993A065601526A064439420A062833431
2237A062296335A063288173A064716308A065073653A063928489A062126526A060770867
2230A060438183A061018647A061882344A062435008A062616133A062684030A062769589
2223A062726352A062225952A061166674A060073840A059669987A059966106A060331693
2216A060397562A060299837A060203813A060193085A060449172A061027935A061558883
2209A061556397A060998042A060298529A059862232A059851963A060161295A060461012
2202A060422353A060079334A059879043A060183666A060857799A061539848A062028408
2195A062157597A061690099A060660321A059583775A059131779A059597904A060580323
2188A061320718A061462924A061159151A060473963A059329650A058096507A057480917
2181A057648699A058099255A058504873A059063489A059923327A060719257A060944732
2174A060704932A060773418A061609708A062554842A062503559A061302926A059816771
2167A058830951A058541504A058686718A058773781A058510695A058146220A058068969
2160A058214445A058280969A058291238A058491006A058899371A059288244A059444317
2153A059281180A058856003A058379740A058144062A058337026A058844295A059252268
2146A059207265A058788826A058419642A058473018A059004619A059717476A060179349
2139A060206037A059968527A059642318A059136554A058331270A057442782A056930281
2132A057000076A057362718A057599247A057632149A057603630A057464303A057067384
2125A056677203A056897706A057836823A058744869A058874253A058402111A058065371
2118A058221313A058637724A058889690A058713144A058228705A057780765A057407591
2111A056940028A056763023A057577596A059099335A059984094A059491675A058389879
2104A057789203A057852456A058046075A058024097A057852652A057709924A057631953
2097A057477254A057159942A056910919A056992880A057157391A056918180A056424321
2090A056431451A057265909A058350698A058920630A058864703A058678410A058785097
2083A059139498A059376943A059106269A058208296A057110098A056557172A056903070
2076A057835515A058754942A059098746A058577546A057577465A057009168A057332171
2069A058021088A058219939A057679180A056861468A056263147A055901093A055596928
2062A055461722A055721799A056256344A056706900A056913470A056954222A056865916
2055A056601849A056309785A056413070A057145682A058078715A058492379A058222229
2048A057729417A057362718A057054433A056751315A056594392A056549323A056372319
2041A056169935A056477566A057441016A058410418A058716873A058412119A057883200
2034A057159092A056045587A054759919A054056023A054550340A055962710A057202263
2027A057407787A056878933A056647179A057111276A057594407A057483338A057156998
2020A057222868A057478105A057320593A056676156A055966308A055585285A055751300
2013A056419415A057091456A057148233A056593607A056129707A056266417A056725281
2006A056992226A057039584A057153139A057405498A057628683A057653016A057402096
1999A056940158A056455653A056160450A056263016A056866766A057726342A058340559
1992A058397663A057934352A057202721A056543501A056105701A055701260A055283867
1985A055275952A055945507A056861664A057400330A057396929A057041023A056511057
1978A055966112A055605824A055481672A055409262A055309509A055435884A055957608
1971A056590794A056986666A057160269A057237455A057147383A056743204A055994697
1964A055154025A054773786A055135382A055721537A055831364A055487952A055163771
1957A055017118A054911151A054715504A054307270A053755848A053527888A053994274
1950A054850056A055453545A055593396A055603600A055851510A056363619A056882727
1943A057169950A057229278A057250537A057368147A057484777A057320201A056694341
1936A055760981A054852346A054140600A053605925A053267680A053277688A053741654
1929A054498076A055148857A055430847A055484420A055575407A055716173A055815272
1922A055960094A056204603A056290554A055950086A055404159A055252600A055799116
1915A056646721A057097408A056834257A056074434A055213222A054535884A054139619
1908A053977660A054032148A054365224A054854177A055094566A054802240A054154860
1901A053648312A053726217A054428870A055277718A055687589A055482915A054780458
1894A053632940A052241697A051197398A050968392A051309907A051525504A051218134
1887A050601628A050099854A049802427A049477134A049050846A048715676A048522319
1880A048302274A048046318A047918372A047849036A047450678A046399119A044760816
1873A042956367A041353910A039920607A038483380A037119479A035823345A034102296
1866A031550583A028525224A025656134A023019647A020281053A017282644A014094017
1859A010707323A006861831A002104041I96091784I88835789I80488987I71024428
1852I60308804I48223131I34484960I18588530I00097149H78908710H55313903H29885997
1844H03243918G76055455G49421879G24976523G04312818F88413247F77521404F71083447
1836F67673925F65320671F62155265F56889619F49018360F38958424F28197731F19309647
1828F15513541F19651096F33094325F55290497F84026145G16071890G48007415G77038920
1820H01525028H21117485H36484866H48586173H57957454H64686558H68946891H71248862
1812H72133818H71928425H70980347H69884830H69237712H69323925H70217907H71971073
1804H74481446H77291796H79657086H80880155H80687255H79224256H76495801H71844567
1796H64140435H52402099H36344035H16946635G97001478G80902793G73237778G76762948
1788G91031281H12647905H37018561H60341713H80578410H97195810I10457259I20912086
1780I29097649I35312158I39535992I41573568I41187573I38030802I31499176I20664961
1772I04336485H81412606H51747458H17240726G82285402G52828785G34331713G29948864
1764G39883667G61652963G90792659H22091859H51194270H75678088H95053052I10034503
1756I21687347I30862916I38197864I44431343I50413510I56652287I62961055I68722719
1748I73560311I77689036I81622311I85691380I89872434I93922142I97644071A001042735
1740A004159278A006862419A009023886A010765932A012278121A013539717A014458556
1733A015109796A015642640A016067686A016307943A016455839A016820706A017620365
1726A018767033A020114580A021694209A023505330A025327767A026953641A028377132
1719A029624404A030623568A031336360A031810923A032019455A031827930A031250998
1712A030594460A030215988A030260075A030677206A031297048A031875222A032317275
1705A032819834A033553492A034326790A034792391A034871408A034817901A034932568
1698A035266887A035596301A035675776A035466066A035114282A034845112A034850934
1691A035180348A035793452A036692733A037795117A038747120A039178511A039110810
1684A038895082A038800562A038779826A038592291A038155209A037752338A037731341
1677A038022685A038228470A038179281A038061605A037968262A037715250A037257825
1670A036952025A037125301A037573699A037758487A037451182A036912124A036450513
1663A036141377A036029654A036234262A036701825A037169781A037503577A037816245
1656A038199624A038556903A038719974A038620679A038387290A038301012A038569266
1649A039158626A039868736A040461693A040720855A040546532A040042469A039436364
1642A038916471A038572078A038435629A038498752A038679811A038867609A039033951
1635A039182697A039172689A038826399A038276025A037926922A037976112A038205118
1628A038308665A038184448A037851960A037341487A036774236A036347817A036149096
1621A036108475A036146152A036216208A036267687A036300917A036348013A036323026
1614A036104158A035798162A035705997A036030243A036747679A037606601A038167245
1607A038120083A037676526A037405721A037637802A038190335A038643508A038741953
1600A038519814A038105954A037518884A036787645A036229094A036331006A037225381
1593A038468139A039496281A040119590A040346896A040034751A039165559A038279361
1586A038013593A038255616A038329401A038027525A037828804A038018695A038276810
1579A038370283A038609101A039237054A039896666A040114488A039909618A039558095
1572A039125069A038621464A038314225A038450674A038848247A039135535A039257136
1565A039379521A039457884A039288337A038914705A038638275A038624800A038731813
1558A038764847A038762230A038908949A039199181A039385866A039365327A039344199
1551A039433878A039436298A039358131A039698076A040696979A041666185A041690846
1544A040759055A039595772A038698258A038124466A037841298A037714792A037496578
1537A037168407A036950521A036887725A036874774A037015017A037475516A038089274
1530A038484557A038495677A038287603A038233834A038634350A039351394A039906478
1523A040118478A040308368A040691812A040994930A040866200A040238312A039210562
1516A038051139A037337039A037554337A038461205A039213441A039223906A038732991
1509A038494500A038962456A039855980A040574463A040872872A040851940A040481644
1502A039623245A038475727A037569774A037303613A037720221A038557557A039281730
1495A039353291A038775509A038158938A038055718A038518179A039341909A040249367
1488A040786790A040643603A040154585A039892938A039796325A039349432A038562463
1481A038057419A038169011A038534794A038626174A038323710A037972776A038002080
1474A038403316A038671439A038433798A037880611A037338478A036870522A036597493
1467A036830425A037512866A038056830A038019807A037508876A036844619A036295618
1460A036094870A036263697A036451625A036306150A035971438A035938274A036419050
1453A037143093A037764832A038153639A038279230A038191774A038138137A038341567
1446A038761642A039305213A039948603A040449657A040414466A039868343A039331247
1439A039230448A039516166A039823013A039868801A039754330A039769506A039842963
1432A039522511A038634808A037550216A036678408A036139546A035992500A036310401
1425A036913759A037363007A037201309A035967644A033265353A029217673A024512082
1418A019577615A014072496A007527068A000099955I92366977I84720408I77197990
1411I69638484I61962348I54349335I47056054I40447112I35473595I33206946
1404I33394089I34542589I35983152I38689236I43576673I50284125I57772529
1397I64712520I69391751I70340679I67189533I61282197I55533942I52449647
1390I52236535I53652831I55639255I57891251I60425630I62846846I64545654
1383I65627042I66845663I68442822I69861276I70774490I71687115I73424320
1376I76477022I80853003I86056312I91019168I94671499I96881370I98425349
1369I99977243A001650214A003554939A006112016A009440886A012821889A015257757
1362A016573318A017587332A019144720A021344518A023674877A025433211A026142536
1355A026090664A026236925A027135813A028377852A029455707A030441069A031312223
1348A031514542A030833998A029950154A029577242A029631795A029561085A029065656
1341A028372423A028020638A028311001A028977481A029606612A030195317A030932770
1334A031585121A031476799A030184590A028091610A026092299A024874987A024647746
1327A025225855A026092888A026836947A027722949A029134077A030454741A030565941
1320A029551535A028804009A029152523A029774916A029439942A028215631A027191086
1313A026967574A027345262A027999706A028553351A028688295A028829585A029701393
1306A031019898A031781029A031551565A030506023A029017644A027972626A028428807
1299A030411373A032730612A034217683A034797427A035248049A035977194A036335127
1292A035472935A033438105A031092309A029414628A028744812A028347303A027174472
1285A025069914A022663153A020655143A019728062A020228201A021675501A023493425
1278A025790947A028451440A030534412A031416032A031359124A030574117A028939804
1271A026900593A025532898A025339410A025842361A026687874A028063548A029645270
1264A030929892A032879358A036441813A039320389A038279949A034151290A030201989
1257A028339128A028799038A030709192A032472890A032998015A032408851A031325436
1250A030162808A028771958A026361796A022822366A020080566A020484091A023826698
1243A027507810A029545779A029986850A029665744A029018495A028143743A027230464
1236A026673614A026780824A027216793A027022324A025738814A024233363A023635892
1229A023742971A023386346A022209850A021123753A020992341A021619770A022193497
1222A022345448A022442781A022767681A022837606A022056198A020788256A020049757
1215A020191243A020649976A020942497A021144881A021383896A021565675A021642207
1208A021513345A020835353A019690516A019115743A019940193A021444467A022323208
1201A022591004A023198679A024206282A024828021A024983832A025473635A026648823
1194A027773578A027777633A026187212A023412510A020630090A019315707A020119944
1187A021669680A021154758A017171313A011767844A008821436A010231518A014417805
1180A018629930A021685378A024027185A025677262A025395991A022755188A019729436
1173A018414921A018413286A018538484A019226616A020810954A021914450A022099696
1166A023379478A026546322A028662851A026811371A022339692A019200843A019574410
1159A022537432A025449367A025764390A023292872A020847323A020886635A022422111
1152A023050718A022419298A021838900A022060842A022607488A022395750A020882841
1145A018942140A018029319A018275332A018318504A017167061A014953135A012168360
1138A009536387A008231880A009122461A011983441A015985921A020289361A023706667
1131A025124009A024877865A024300671A023779601A022664723A020955514A019501738
1124A018533186A017630045A016999542A017366698A018596766A019323229A018129399
1117A014873005A011098354A009172370A010577219A014716867A019379156A022548159
1110A023695613A023302684A021943755A020367528A019554983A019971721A021100793
1103A021919945A021707488A020434575A018752053A017580856A017333665A017620953
1096A017925118A018184737A018516767A018855666A019177034A019636028A020210997
1089A020500183A020134596A019315052A018796599A019030052A019430570A019157672
1082A018287434A017478552A017022632A016788065A016634740A016491358A016346798
1075A016319913A016507318A016781328A016765367A016037465A014867641A014485898
1068A015642117A017408365A018200959A017748637A017078559A016843862A016769030
1061A016522101A016353600A016900704A018570143A020744757A021634423A020243311
1054A017902747A016335547A015935685A016070433A016002274A015523460A015002586
1047A014915850A015274830A015639696A015755475A015883944A016439421A017593349
1040A019076430A019940847A019234269A017465404A015968194A015398523A015413306
1033A015183907A014444427A013855852A014059217A014726025A015077221A015201765
1026A015529216A015650031A014946593A013740989A012879516A012781464A013181850
1019A013539717A013750343A014188013A014871762A015052822A014199199A012862640
1012A011904881A011600389A011743510A012011044A012049637A011673324A011084487
1005A010635043A010501537A010556222A010294836A009360756A008266614A007743581
998A007887356A008271847A008673933A009202721A009612068A009450959A008993142
991A009068300A010131699A011822266A012972924A012707222A011534978A010222556
984A008986797A008064949A007846278A008186419A008270277A007727555A006875175
977A005871170A004885414A004560907A005469018A007221988A008405090A008222592
970A007300417A006349526A005558894A004962535A004551618A004104398A003586926
963A003627677A004936828A006844235A007204261A005681868A003566125A001688284
956A000452394I99981953A000003277A000121280A000439442A001666240A004292588
949A006927504A007080895A005067652A002946675A001890472A001980413A002859285
942A004138674A005265588A005816420A006209152A007230491A008585365A008766490
935A007301594A004814835A002192739A000330532I99564299I99604854I99898356
928A000387767A001542023A002813824A002196010I99760076I97197505I95456309
921I94985672I95802207I97097817I98091487I99127740A000629137A001657737
914A001221375A000122457I99620945I99976196A000202194I99552786I98613997
907I98318335I99399199A002440912A005856125A005917089A004218869A003649786
900A004320453A004221747A002264234I99883377I98338940I98058978I99176341
893A001518213A003759743A003556574A001174998I98868710I97717986I97648650
886I98045830I98533933I99230437I99845046I99587716I98589729I97904474
879I98135640I98509599I97774894I96291029I95198521I95057886I95588572
872I95981173I95741504I95102039I94526154I94141075I93769863I93347957
865I93078461I93176186I93578599I93917890I93830042I93280125I92554840
858I92018398I91896274I92180554I92655770I93099458I93531241I94241613
851I95530682I97092715I97723088I97140858I96545350I96825704I97660686
844I97918146I97369538I96611677I95934731I95584058I96460380I99684918
837A002972186A002347634I99735743I97533133I96401182I96044492I95730057
830I95183019I94981093I95773098I97470337I99460098A001218039A001558638
823I99725277I97344812I95787162I95138343I94620543I93754034I93150348
816I93451243I94481805I95451272I96004656I96384044I96458941I95894764
809I94996399I93944513I92385881I90465327I89039873I88709806I89389957
802I90320047I89369483I84886750I79948882I77092808I76380801I77353016
795I79277626I80922536I81174501I80379422I79844812I80436265I81900834
788I82682308I81671108I79633204I77689102I76296354I75416174I74777820
781I74116377I73280480I72063494I69841195I65331577I57677224I47985621
774I37513002I25974759I12708078H99079407H88717857H83240211H81116160
767H80015084H77565021H73084250H69027151H66718967H65603173H65120042
760H65632150H68400638H74059998H81590069H89343913H95856897I00259239
753I02930917I05271350I08515119I12597140I17068295I22258980I28245464
746I33766086I37337568I38809725I38460034I36161922I32269727I28105156
739I25538399I26151438I29611720I34374742I39386199I43990991I47752428
732I50613800I52853368I54788837I56412815I57504799I58300402I59442033
725I61144440I62829381I63733110I63530072I62303013I60543502I58891070
718I57587479I56237838I53956080I50002528I44099116I36004215I25621079
711I13902824I03363223H97338211H98511568I06869817I18626142I29461665
704I37772556I43636590I47608980I50789300I54084483I57110300I58786215
697I59142840I59153371I59388069I59818805I60262493I60623828I60858787
690I60889138I60629191I60058277I59195104I58054323I56636785I54873741
683I52710640I50508553I49071653I48890331I49750365I51132712I52649349
676I54167033I55706956I57258916I58667558I59778119I60671513I61566215
669I62437826I62912389I62658460I61739294I60424780I58884267I57220584
662I55593729I54143681I52924275I51953368I51128722I50056885I48173746
655I45043335I40412444I34124150I26301100I17746092I10157150I05777048
648I06304594I11677908I19953215I28628581I36132683I42114851I46779756
641I50329783I52903081I54683001I55877943I56632140I57024022I57079033
634I56686105I55505488I53041885I48955416I43507990I37744887I33069516
627I30533960I30476136I32592010I36104229I39931798I43025317I44726808
620I44832709I43388810I40428993I35753491I29023864I20343724I10824677
613I02435881H97167487H96089893H98853540I03957882I09586563I14332252
606I17427340I18636083I18038025I15859355I12392336I07809522I01868303
599H93834234H82538016H66218567H42479527H08563464G61368225F98033289
592F19337316E34322208D59887451D12980613D01547782D21844103D62863032
585E12473437E61068193F02945849F36583584F63743201F87600440G10996199
578G35531888G61306542G87036650H10726893H30781550H46744897H59075668
571H68486785H75673182H81353801H86130757H90249539H93721857H96692205
564H99447152I02057997I04301555I06030715I07369824I08433877I09075828
557I09013556I08011972I05883146I02530204H98046294H92461961H85074291
550H73896926H55689301H26713919G84466557G30283379F71325405F19547680
543E86927228E79509731E94366508F21563605F49847062F72453562F89223960
536G03854020G19266862G35417221G50713238G64425702G77237380G89998429
529H02641214H14305374H24137742H31843509H37636048H41818082H44401848
522H45074019H43639735H40661669H37544406H35715493H35687759H36955766
515H38609113H39874700H40305044H39775536H38329347H35986494H32869558
508H29591840H27264882H26875486H28628914H31882560H35629215H39078639
501H41907174H44036458H45321472H45655987H45270385H44581141H43807517
494H43083801H42861597H43738900H45808920H48483738H51026489H53049610
487H54444254H55095623H54884802H53849857H52178717H50151411H48184872
480H46725731H45969637H45822526H46119234H46724685H47539388H48569885
473H49826118H51076660H51962204H52401510H52662503H53045750H53623401
466H54176981H54341034H53979503H53387592H52922842H52606968H52324651
459H52136396H52065490H51845314H51253664H50533285H50220813H50692170
452H51993667H53965636H56417726H59234488H62307270H65414656H68342879
445H71133606H74007864H76998948H79831539H82204612H84054980H85513531
438H86736666H87827014H88813293H89653180H90282245H90633048H90612051
431H90190734H89564743H89086125H89019471H89450076H90333201H91503679
424H92724131H93801921H94626698H95176745H95590082H96082567H96686056
417H97184298H97372226H97297852H97218181H97331016H97561527H97661346
410H97504161H97187045H96874311H96681674H96663685H96748394H96691485
403H96217643H95213768H93710148H91709268H89211912H86428249H83727529
396H81323777H79289668H77847861H77145405H76617074H75120061H72068929
389H68222325H65158700H64057755H64921255H66675795H67802578H66856201
382H62594951H54049952H40906963H23947263H04973470G86332950G70741272
375G61154198G59492085G64706318G72812078G79860195G84845879G89294075
368G94430468G99584588H03393515H05777903H08158696H12002749H17644055
361H24380420H31210454H37359552H42413199H46285249H49236823H51813785
354H54402063H56739094H58175864H58487485H58060935H57249437H56095508
347H54915022H54614455H55964488H58746385H61894915H64328494H65567066
340H65855531H65831525H65889022H65898376H65681929H65452530H65458286
333H65482946H65082757H64129250H62783926H61125869H59138594H56937161
326H54749400H52830022H51569603H51364341H52035793H52618284H52077329
319H50209235H47740595H45635710H44337417H43585182H42876315H41902792
312H40441427H38178835H35056273H31657348H28837970H26869926H25166866
305H22931680H19893762H16401101H13084267H10522219H09031747H08693241
298H09476874H11076453H12719924H13580546H13451619H12907786H12920999
291H14268220H16975547H20291662H23252852H25151494H25690552H25243136
284H24979003H26243543H29552332H34204743H38875077H42582681H45192414
277H47170139H48984792H50649455H51750401H52003087H51673739H51202120
270H50613479H49635181H48196907H46503462H44738195H42857084H40625431
263H37858709H34641367H31283258H28133027H25467106H23523526H22696918
256H23510247H26033702H29453429H32602940H34792926H35930567H36180963
249H35716147H34553192H32679603H30586295H29397306H30017278H32267181
242H35120835H37674902H39805560H41843790H43727845H44981722H45636691
235H46408419H47555480H48285802H47754070H46077632H44081396H42534473
228H41705902H41250113H40598481H39698808H39063790H38927472H38868405
221H38513350H38037741H37654625H37177184H36472896H35895245H35843569
214H36212557H36353715H35058367H30960254H24379243H20169342H24078806
207H31716807H36054784H36667692H36125232H35969225H35845270H35191283
200H34354536H34006545H34326474H34887446H35272656H35703915H36711780
193H38279176H39820277H40956545H41794731H42410256H42634945H42596418
186H42885014H43745768H44582384H44727533H44260755H43695531H43323666
179H43180545H43210765H43085305H42218534H40515212H38993015H39031019
172H40820685H43120235H44633078H44872551H43812553H41695436H39329951
165H37888864H38049712H39418322H40942743H41917902H42363683H42456698
158H42189949H41673981H41078080H40307595H39504208H39462279H40526332
151H41654619H41598758H40578727H39803336H39758332H39917937H39748063
144H39236085H38732349H38638221H39027814H39443179H39213125H38194599
137H37176399H37123939H37842357H37931382H36537850H34392606H32379951
130H30289588H28050870H26748522H26841668H26546007H23737750H18888972
123H14476818H12032119H11400372H12298018H14824809H18477205H21996161
116H24460746H25884629H26793656H27658334H28615243H29570712H30495373
109H31365480H31910818H31850181H31184355H29920273H28099994H26425257
102H26153995H27720279H29987451H31400345H31490875H30912177H30296325
95H29949970H30414132H31592786H31499640H28326123H23753252H21066660
88H20978812H21746223H21835903H21013154H19820959H19380018H20756085
81H23437967H25301352H24996010H23713286H23355941H23973101H24264314
74H23548252H22194163H20556906H18694503H17286711H17401770H18888645
67H20414701H21154378H21384496H21275388H20389452H18940124H18475831
60H20340786H23472963H25300109H24303692H20397760H14508543H08360295
53H04235560H04047959H07401163H11214210H12611536H11939954H11682820
46H13177871H15555981H17280039H17948743H17857952H16837398H14740297
39H12046117H09170354H06278370H04190688H03848584H04868681H06257569
32H08163994H10594172H11847854H10379425H05993436G99305803G91296199
25G84090962G80411551G81036756G84424301G88764044G92689600G94607669
18G94256735G94708468G97623413H00804583H02833786H04135023H04309476
11H01927703G97741154G96088722H00419373H08526637H16523879H23084417
4H27313614H26477521H18495389H08407588
##END=


$$ === CHEMSPECTRA PEAK TABLE EDIT ===
##TITLE=X8226
##JCAMP-DX=5.00
##DATA TYPE=INFRAREDPEAKTABLE
##DATA CLASS=PEAKTABLE
##$CSTHRESHOLD=0.93
##MAXX=3997.453
##MAXY=0.9784173324989796
##MINX=373.96442
##MINY=0.3658992332417713
##$CSSOLVENTNAME=- - -
##$CSSOLVENTVALUE=0
##$CSSOLVENTX=0
##NPOINTS=29
##PEAKTABLE= (XY..XY)
386.71320702895855, 0.7269194094913611
405.12812162630007, 0.7116979920313454
543.9482470524131, 0.7393659914846399
668.6030535574941, 0.7473564711813253
719.5982016732091, 0.7557651963775279
738.0131162705507, 0.7504128779373009
796.0909238467816, 0.7368991937544882
862.6679227756317, 0.7787436211061783
902.3308157544952, 0.6920660106016828
920.7457303518627, 0.7873485652352733
1017.0698990148799, 0.7750247686042628
1051.0666644253565, 0.7708662714618596
1070.8981109148012, 0.7680341565707736
1090.729557404246, 0.7538220843955363
1106.311408217381, 0.76152246831977
1140.308173627834, 0.5280621030277417
1205.4686406645815, 0.3658992332417713
1239.4654060750813, 0.8175188864142371
1259.296852564526, 0.8478704651696124
1290.4605541907963, 0.8258448206995571
1338.622638522305, 0.866124447258049
1376.8689996090911, 0.8176744539045737
1419.364956372187, 0.8433710898443378
1451.9451898905604, 0.788756784347882
2341.527218131366, 0.8676990227312503
2362.775196512914, 0.8503588397290539
2872.7266776700544, 0.6651455732441376
2908.1399749726347, 0.7045913905303828
2961.9681868725565, 0.5608695721841331
##END=


$$ === CHEMSPECTRA PEAK TABLE AUTO ===
##TITLE=X8226
##JCAMP-DX=5.00
##DATA TYPE=INFRAREDPEAKTABLE
##DATA CLASS=PEAKTABLE
##$CSTHRESHOLD=0.93
##MAXX=3997.453
##MAXY=0.9784173324989796
##MINX=373.96442
##MINY=0.3658992332417713
##NPOINTS=75
##PEAKTABLE= (XY..XY)
2961.9681868725565, 0.5608695721841331
2933.6375490304927, 0.7920686567897208
2908.1399749726347, 0.7045913905303828
2872.7266776700544, 0.6651455732441376
2362.7751965129005, 0.8503588397290539
2341.527218131352, 0.8676990227312503
1677.1737607349492, 0.9066529832590349
1657.342314245504, 0.9096897796031203
1640.3439315402657, 0.9094534477599627
1629.01167640344, 0.9090795477975976
1619.0959531587177, 0.9093126602928991
1610.5967618060981, 0.9067187862553749
1597.8479747771694, 0.9049150903511112
1586.5157196403438, 0.9038378553712691
1572.350400719312, 0.9080741963995026
1562.4346774745895, 0.9071982458364848
1546.852826661454, 0.90664881077281
1529.8544439562156, 0.9049805953778083
1511.439529358874, 0.9009342751494029
1501.5238061141513, 0.8896998127059422
1493.0246147615321, 0.8928562962569858
1450.5286579984358, 0.7883165446793303
1419.3649563721656, 0.8433710898443378
1376.8689996090693, 0.8176744539045737
1335.7895747380762, 0.8646498875280317
1291.8770860828772, 0.8253641090992132
1259.2968525645033, 0.8478704651696124
1238.0488741829554, 0.81653695889273
1205.4686406645815, 0.3658992332417713
1140.308173627834, 0.5280621030277417
1104.8948763252538, 0.7614971964846619
1089.3130255121187, 0.753467258135215
1070.8981109147771, 0.7680341565707736
1049.6501325332288, 0.7707322206601509
1015.6533671227521, 0.774740037196608
978.8235379280686, 0.8100942337564827
958.9920914386234, 0.8175650799099092
947.6598363017979, 0.8170598108726228
920.7457303518372, 0.7873485652352733
902.3308157544952, 0.6920660106016828
862.6679227756058, 0.7787436211061783
852.7521995308834, 0.7889648637482788
847.0860719624702, 0.7886195151095395
830.0876892572319, 0.7757820452393532
796.0909238467552, 0.7368991937544882
787.5917324941356, 0.7407395805106599
774.8429454652069, 0.7517391408185164
736.5965843784202, 0.7496596544183337
719.5982016731818, 0.7557651963775279
677.1022449100856, 0.7616391740078534
668.6030535574664, 0.7473564711813253
654.4377346364345, 0.7599652370489718
637.4393519311961, 0.7677925195922587
626.1070967943701, 0.7683247890530718
619.0244373338542, 0.7645090189632823
606.2756503049254, 0.7635028921151377
589.2772675996871, 0.7649366227142799
580.7780762470679, 0.7652063927654539
573.6954167865515, 0.7641857228117952
565.1962254339323, 0.7628058755120489
553.8639702971068, 0.7533515657261624
543.9482470523844, 0.7393659914846399
517.0341411024233, 0.7528098195549893
507.11841785770093, 0.7562687960558355
497.2026946129786, 0.7480940781750859
490.1200351524626, 0.7466372216689987
481.62084379984344, 0.7502601707732932
471.7051205551211, 0.7447297539638487
458.9563335261919, 0.7458133064468567
446.20754649726314, 0.7326663099030919
439.12488703674717, 0.739623364358463
422.12650433150884, 0.7324846349869356
406.54465351837325, 0.7111282913870547
398.0454621657541, 0.7237443297186803
385.29667513682534, 0.7254136768515923
##END=

##END=

