##TITLE=X8196
##JCAMP-DX=5.0
##DATA TYPE=LINK
##BLOCKS=1


$$ === CHEMSPECTRA SPECTRUM ORIG ===
##TITLE=X8196
##JCAMP-DX=5.00
##DATA TYPE=INFRARED SPECTRUM
##DATA CLASS=XYDATA
##ORIGIN=ComPlat
##OWNER=
##XUNITS=1/CM
##YUNITS=TRANSMITTANCE
##XFACTOR=1
##YFACTOR=7.6529838e-010
##FIRSTX=3997.453
##LASTX=373.96442
##MAXX=3997.453
##MAXY=0.8217328776801467
##MINX=373.96442
##MINY=0.3334850965720058
##NPOINTS=2559
##XYDATA= (X++(Y..Y))
2559H98783167H99528830H99931647H99721282H99187931H98576307H97908917H97439584
2551H97690296H98796252I00193491I01160582I01417366I01134958I00709555I00597479
2543I01030282I01756630I02255634I02244652I01841056I01291661I00743434I00285631
2535I00032897I00073475I00414062I00993131I01619787I01889267I01440108I00489999
2527H99910229I00469749I01945888I03238688I03723128I04011841I04883992I05949600
2519I06045556I04927448I03475300I02427680I01962867I02322536I03704981I05185326
2511I05255655I03979367I02956592I03196241I03937777I03957014I03329576I02956124
2503I03164309I03400687I03071081I02266613I01554676I01353966I01534348I01733732
2495I02190987I03892526I07319898I11077498I13122971I12987063I11399783I09077588
2487I06725018I05368276I05859257I07419200I07871162I06850178I06100384I06575633
2479I07029390I06523687I06127335I06392995I06209970I05424274I05266325I05974526
2471I06478904I06702276I07666560I08899311I09228294I09238886I09816397I10101531
2463I08939811I06967780I05389148I04764673I05818524I09924656I15684426I17433393
2455I14601758I10786289I07978876I06532411I06196496I06574621I07344509I08541355
2447I10258079I11731803I11821059I10671877I09293249I08172807I07175264I06429915
2439I06402266I06898544I07273089I08097961I10696567I13756169I14174329I12743986
2431I12105492I12058216I10702408I08052243I05488451I04368243I05585183I08149987
2423I09554006I09442320I09668340I10871962I11833442I12414377I13016347I12825843
2415I11269249I09363111I08247966I07986427I08192979I08717218I09195657I09027508
2407I08392051I08198120I08702495I09035450I08615345I07944529I07769990I08518068
2399I10006123I11178903I11257177I10959893I11036843I11023914I10645163I10811056
2391I12088824I13180371I12671943I11263486I10766662I12692115I16788980I19587592
2383I18678450I16066292I14645840I14856984I14106414I11297132I07988300I06149298
2375I07271064I10786523I13124918I12112112I09797313I08562073I08843855I10007289
2367I11122126I11381480I10733640I09758296I08872441I08166810I07715082I07678554
2359I08437146I10501155I13353664I14961972I14464448I12880126I11194792I10059549
2351I09863751I10067885I09712500I09100408I09147216I09819902I10581765I11667159
2343I14020352I17696486I20278967I19248562I15640577I11929473I09565919I08907177
2335I09634694I11479069I14921317I19776461I22563859I20993713I17915808I16370975
2327I16373467I16100250I15060340I13721589I12234699I10623898I09141765I08446025
2319I09522930I12277071I14523640I14925367I15081602I17481756I21604559I22949385
2311I20507015I17368672I15259879I14044185I13216120I12755980I12817428I13124762
2303I13088001I12365158I11369486I11339345I13195715I15098192I14410163I11921215
2295I09678542I09091682I10837615I14149484I16612260I16971618I16376502I16015667
2287I15958578I16072211I16699101I17733014I17968924I16575343I14279707I12421935
2279I11655788I11662564I11968104I12411031I12637207I12065303I10781071I09871228
2271I10656612I13352807I15913328I16232030I14988606I13669718I12715403I12026439
2263I11518323I10970096I10259948I09793577I10027152I11006624I12950769I16325491
2255I20025068I21004929I18496123I14975991I12732927I12185401I12469289I12866887
2247I13289020I13665200I13689656I13341747I13151554I13624856I14576212I15103095
2239I14526911I13348991I12671865I12933398I13526021I13509588I12633469I11574088
2231I11192686I11816308I13060975I14104078I14398792I14222228I14202290I14457283
2223I14520833I13993171I13041037I12308224I12282445I12684405I12806605I12485566
2215I12211881I12233923I12285479I12314377I12622873I13128965I13189484I12457528
2207I11356479I10554428I10350994I10550378I10808097I11024225I11356246I11985862
2199I12960504I14129079I15166259I15744163I15712153I15117896I14168099I13263707
2191I12937061I13456471I14371844I14810176I14448092I13776964I13211136I12527157
2183I11547919I10705913I10434175I10584647I10860435I11293783I11975347I12699436
2175I13137769I13285437I13603906I14487580I15542209I15825160I15059639I14034371
2167I13599856I13827044I14129699I13893012I12999680I11876201I11062389I10800308
2159I10987620I11348922I11665212I11893802I11980643I11730090I11127188I10560814
2151I10390871I10586906I11007948I11571128I12039524I12155493I12056814I12139839
2143I12550600I13150775I13859521I14653473I15289553I15395476I14853402I13842698
2135I12602003I11414737I10634649I10391884I10446558I10568525I10813860I11254763
2127I11742162I12101130I12425362I13020319I13945350I14722089I14824195I14410163
2119I14092473I14100495I14164983I14077208I13928761I13914040I14068563I14148783
2111I13961316I13875098I14484620I15630296I16400493I16310070I15824147I15499295
2103I15309258I15074749I14923264I15033704I15336284I15629595I15762310I15754522
2095I15809041I15920337I15575308I14408216I12991035I12319595I12713845I13733580
2087I14838370I15735362I16395353I16973721I17512131I17689554I17103476I15861612
2079I14699970I14359694I14959090I16075947I17150206I17600377I17032679I15793230
2071I14944760I15285815I16596138I17958177I18639739I18596282I18215662I17779277
2063I17341256I16937193I16570281I16075093I15264784I14151431I12866965I11479536
2055I10066250I08997679I08923221I10138604I12037343I13602815I14427294I14866564
2047I15367282I16095654I17019828I17901166I18348299I18246112I18064878I18447445
2039I19414767I20191428I20022809I19021916I17923671I17122246I16337641I15246639
2031I14090604I13446580I13539729I14002984I14409462I14904182I15932954I17293981
2023I17986449I17403330I16262093I15781937I16249086I16896535I16940464I16336550
2015I15707168I15801953I16833919I18157015I18850029I18770743I18687407I19172158
2007I19866028I20206148I20361138I20876731I21718111I22291731I22328648I22206915
1999I22292744I22409258I22264861I22106055I22445786I23268944I23967487I24043892
1991I23554078I22943700I22599916I22454198I22141181I21657907I21492250I21909631
1983I22578189I23089733I23414276I23672384I23790924I23609688I23180234I22770407
1975I22626166I22885365I23577366I24453407I25017366I25041433I24811752I24635890
1967I24415945I23837966I22727883I21333441I20409582I20645724I21856435I23183895
1959I24083691I24570311I24653024I24191015I23293166I22416969I22079185I22569074
1951I23706264I24807157I25175783I24752794I24104719I23782123I23899183I24212122
1943I24351534I24054718I23425959I22942609I23004761I23505631I24018112I24301065
1935I24335568I23983610I23107568I22059478I21550118I21861577I22544855I23011381
1927I23112786I23066757I23076025I23138644I23110060I22867218I22403106I21745374
1919I20880002I19888537I19072933I18748546I18944191I19434238I19931529I20110974
1911I19636426I18312472I16087710I13018294I09425263I05824054I02445905H99166591
1903H96023652H93348486H91392035H90292778H90274475H91377627H93062651H94280916
1895H93971557H91877410H89218054H88072923H89615341H93136096H96867839H99482100
1887I00700209I00744681H99641685H97373541H94543308H92359902H91783715H92948162
1879H95399099H98507999I01573213I03868304I04938822I04913899I04380078I03844082
1871I03437682I03214310I03298503I03471795I03141878I02187096I01386680I01560440
1863I02625817I03844160I04631413I04824952I04524478I04035833I03795249I04089807
1855I04856888I05826001I06860692I08073739I09512646I10913552I12010161I12878570
1847I13673456I14304393I14617335I14568268I14071912I12955364I11016048I07955199
1839I03566113H98109469H92171812H86259701H80893558H76710087H73955787H72164610
1831H70662922H69231335H68228654H68176628H69117777H70373741H71079761H70895642
1823H70139543H69417946H69132890H69140211H68884828H67904578H66112541H63753039
1815H61395095H59818252H59459829H59918723H60314374H60275666H60412742H61692379
1807H64474714H68284887H72390474H76384141H80206386H83757282H86716803H88910334
1799H90640375H92297361H93788844H94740430H95145352H95480407H96224048H97436861
1791H98796563H99980637I00939157I01722594I02233515I02386168I02314281I02191769
1783I02056484I01962945I01999706I01946511I01170941H99084345H95659388H91575063
1775H88029074H86228236H86675680H88881516H91874058H94862010H97319642H98825458
1767H99249927H99000150H98776080H99017287H99631482I00183291I00254867H99700254
1759H98778105H98114687H98313058H99481555I01283328I03384254I05585261I07658772
1751I09362644I10527636I11049070I11036918I10922119I11070878I11356246I11337242
1743I10706769I09440373I07670610I05526225I03151769I00978022H99756174I00003612
1735I01525859I03699918I06037301I08281845I10178948I11474708I12179248I12614698
1727I13048513I13452577I13781482I14174174I14649812I14976537I15107849I15380055
1719I16037319I16898329I17677324I18312161I18795977I18992323I18881416I18758904
1711I18924097I19351366I19874440I20446421I21038886I21558763I21993591I22406377
1703I22754205I22915272I22864881I22683800I22466737I22323119I22368522I22598904
1695I22836531I22948373I23065589I23383045I23831034I24228163I24622494I25137850
1687I25639194I25869575I25794573I25616374I25577198I25778217I26052214I26106966
1679I25921601I25824714I26049799I26431432I26699198I26838610I26942975I26936666
1671I26775213I26750523I27190099I27925718I28448476I28537264I28358209I28032572
1663I27557949I27091267I26849826I26747953I26541949I26297314I26335790I26739308
1655I27216816I27434580I27310121I27032464I26873424I26949907I27186441I27473912
1647I27727347I27841136I27772828I27601953I27348752I26876384I26164133I25541060
1639I25397986I25732655I26215537I26634239I26961278I27025532I26566249I25722686
1631I25081154I25060281I25517850I26064831I26499503I26815323I27020003I27132935
1623I27227642I27341197I27430608I27469940I27484037I27486682I27516670I27668466
1615I27952666I28234684I28426279I28614759I28916171I29324051I29744080I30085446
1607I30327043I30557425I30910240I31422640I31992986I32475011I32787405I32923235
1599I32861625I32510449I31856844I31198019I31000274I31367654I31881456I32193538
1591I32481164I32961629I33308061I33084455I32533655I32345256I32739350I33322391
1583I33789852I34224991I34674617I34968081I35108977I35432508I36160335I37070412
1575I37751120I37984227I37797227I37353443I36955141I37001173I37656646I38560259
1567I39144546I39277806I39308259I39475943I39635995I39638488I39672757I40043875
1559I40708694I41270395I41541351I41823993I42336474I42747469I42785476
1552I42838048I43284324I43775540I43960671I44295339I45199185I46044540
1545I45973740I45187191I44453132I43907865I43276224I42706657I42516308
1538I42576824I42602448I42624334I42783915I43098412I43636439I44452354
1531I45302693I45852556I46040954I45927477I45511965I45043650I45060081
1524I45793831I46885920I47816795I48293135I48248663I47767260I46888026
1517I45453010I43543445I41950866I41536366I42152430I42883922I43301848
1510I43813625I44828378I46158095I47251122I47683223I47468263I47000179
1503I46544712I45896093I44821758I43605051I42684305I41979297I41069999
1496I39870660I38736433I38105259I38331201I39586071I41646809I43942991
1489I45862992I46886001I46713409I45684559I44769887I44675411I45124416
1482I45369050I45202846I45117326I45547561I46279984I46753909I46799939
1475I46731557I46697443I46468542I46069463I46006607I46518543I47200030
1468I47713520I48233164I48850396I49243166I49309913I49435462I49758292
1461I49814602I49234287I48267199I47394039I46859131I46731323I47024557
1454I47603236I48191885I48575854I48716513I48736062I48853278I49200797
1447I49631574I49896381I50034236I50238059I50356287I50015855I49264272
1440I48573751I48260579I48337139I48767761I49478843I50319759I51173214
1433I51867629I52090222I51745816I51208184I50924062I51027493I51509904
1426I52389765I53482402I54265606I54139511I52735415I50059704I46524696
1419I42716782I38848898I34486994I29115165I22949697I16835866I11305151
1412I06092053I00678245H94975876H89233164H83524019H77906544H73192447
1405H70714484H70798910H72319210H74350975H77241257H81590388H87446734
1398H94442292I01360822I06211369I07595374I05499432I01159878H96579123
1391H93445686H92189180H92278513H93021684H94079196H95384301H96750701
1384H98021148H99445572I01176626I02582981I02987044I02848177I03326386
1377I04932280I07342481I10399049I14277760I18578291I22319069I24961134
1370I26777546I28272923I29781698I31598269I34000451I36917370I39787165
1363I42011616I43515251I44666847I45795155I46987795I48143675I49023455
1356I49536634I50097789I51289106I53079819I54811963I56014106I56780564
1349I57281282I57423109I57229719I57130108I57493672I58076791I58286686
1342I57931378I57432611I57285952I57538611I57901629I58209739I58586075
1335I59108678I59464142I59186017I58344634I57633863I57522878I57818683
1328I58312624I59010622I59519751I59458690I59594208I60998302I63032406
1321I63868181I63075943I62070303I61914612I62104260I61763439I61008819
1314I60655303I61157967I62225993I63144170I63444725I63651741I64922811
1307I67356926I69429187I69735898I68331257I66032661I63704313I62456297
1300I63228129I65686621I68134911I69128012I69197251I70132095I72133719
1293I73046132I71289610I67942693I65087845I63765608I64012501I65342763
1286I66761968I67200223I66247933I64484323I63013558I62442745I62594152
1279I63393088I65022892I66959716I68374713I69464783I70698391I71234312
1272I69973367I67793544I66972256I68458520I70966235I72787557I73554638
1265I74009014I75299010I78607609I83352547I85719058I82634065I76682857
1258I72941300I73573174I77236535I81252867I83574436I83666031I82114344
1251I79800869I77681877I76407069I75505790I74034171I72564029I73154080
1244I76589941I80861265I83183149I82587958I80105321I77332800I75207652
1237I73770377I72904227I72929537I73949044I75031089I75045419I74176076
1230I73607443I73816095I74117429I73948343I73747947I74188148I75005231
1223I75204222I74529592I74049592I74694863I75850508I76307922I76153322
1216I76567354I77954783I79459194I80274953I80404553I80171131I79832026
1209I79589261I79305139I78488679I77246816I76698433I77615675I79238470
1202I80275966I80544819I80751760I81198426I81624453I82103905I83260955
1195I85268810I87010300I86906870I84637480I81493296I79204669I78917899
1188I80744595I83241484I83835896I81251621I77442695I75921928I78021764
1181I82168396I86879299I92233058I97770468A001079145A000068441I95802880
1174I91728057I90168971I90487362I90963312I91205140I91613567I91942940
1167I92024717I92598335I93771582I94010531I92349417I90351610I90365551
1160I92869213I96256322I97955132I95973213I91250004I87868584I88807322
1153I92355726I94544269I93960374I92431040I92153850I93330680I94238342
1146I93453581I91740441I91192211I92732371I95188763I96835313I96710387
1139I94480251I90349663I85359000I81362294I80669515I85010857I93290648
1132A000834043A003560924A002031435I99034915I95416263I90710033I86034100
1125I83443983I82841237I82256483I80981749I80405799I81777959I84336847
1118I85914625I84783903I81219377I77745353I77293702I80511017I85129319
1111I88424521I89834770I90487673I90958639I90948748I90859181I91741531
1104I93644320I95338612I95889332I95607079I95340014I95598278I96310218
1097I96971922I97170994I96962576I96469880I95383474I93339870I90607537
1090I87983853I85882456I84145798I82986413I83220767I85004860I87092546
1083I88391810I89255234I90196698I90651075I90008218I88839722I88254186
1076I88739407I90009542I91530699I93053724I94483522I95311820I95097794
1069I94575815I94820760I95604743I95846106I95391262I95174741I95791509
1062I97001206I98466364A000231531A002587294A005746975A009234242A011498881
1055A011419128A009984033A008888359A008781424A009267810A009732623A009987538
1048A010253591A010735538A011294123A011559631A011379874A010990687A010760461
1041A011019426A011897723A012781244A012551953A011333066A010454220A010658199
1034A011313594A011163356A009935041A008631652A008107102A008021819A007572038
1027A006864146A006329396A005661539A004481204A003252113A002828343A003745042
1020A005927280A008707823A011473569A014203721A016928499A019072807A020107498
1013A020420126A020769436A021492357A022485303A023371858A023632381A023032128
1006A021886996A020749654A020059522A019784746A019016575A016967208A014571487
999A013374719A013848024A015194953A016402080A017246812A017782811A017814899
992A017569486A017951119A019805853A023069123A026134255A027249011A026879373
985A026269150A025674505A025227371A025622789A027098383A028622733A029340046
978A029560926A029573465A029444800A029810311A031420956A033865663A035368049
971A034983223A033721499A032774194A032588284A033237838A034544657A035787922
964A036413878A037088277A038812944A040735282A040375691A037908787A035213371
957A033105279A031735219A031209267A031426564A032013343A033028486A035433394
950A040112050A045369859A047700076A047202941A046375032A046629635A048119015
943A050610530A053857366A057073357A059254273A060700349A062556329A064500007
936A064587624A062546438A059548595A056722336A055131629A055431795A057402031
929A059909899A062399237A065904493A070725913A073741823A073452948A071976811
922A070916185A070657687A070743515A070126673A068076057A064284346A057995197
915A049289225A040749999A034478456A030151054A025781050A018836584A008256406
908I94833375I79880470I61625973I25304214H47201714G55945039F90232671
901F32084217E60562542D87482171D44870056D35758268D47228039D70644310
894E01210973E39667616E89337596F39818663F75249622F98790040G20007018
887G43443460G67990455G90736455H11791898H32052694H48857140H60190305
880H69231647H80954463H95859161I07408452I10877414I05691651H90108816
873H61514803H20770546G74011214G29375629F93073497F67583948F51860999
866F44141547F44988187F56540982F78768196G07049114G33935281G52591582
859G58299403G49328624G28913698G05922363F91154119F90459937G00296476
852G10310280G08681410F88094750F59274172F43155883F44547869F60133858
845F86028872G13270269G35378242G53626274G69089089G81151481G92410809
838H09717533H31739366H44124510H48182042H51013211H54581708H58350914
831H61374067H63179500H64501974H66922926H71446128H77950470H86634324
824H96355748I02358753I04389661I06162772I10044209I15234333I19194433
817I21828476I24775536I28636411I32483734I35721302I39153814I43148416
810I46559744I49007956I51127029I52644758I53139556I53404051I54482046
803I56848090I61239045I68208667I74120622I75971307I75939374I74931007
796I71033215I61095894I44725883I28418880I19645149I19130256I23820832
789I28740309I26175738I13073436H96502874H85919347H86935814H99301253
782I17140081I33991416I47386407I56815067I59326910I47394663I14253849
775H64858057H10296991G59378411G23442097G15032243G30771314G52502716
768G68717115G76197891G73635735G66407459G66147637G76481545G93173529
761H04941051G95535445G58815308G11842574F78438200F67107219F73926214
754F92361246G18543730G52373039G90454514H21100619H37692911H41012491
747H29051115H01627079G70812355G53359443G56610484G74799091G95783974
740H12982828H26892399H37920878H45340204H50913675H57066292H64614828
733H72941112H80992549H88310236H95229545I01859982I07480417I11805482
726I15637072I19529568I23012238I25645347I27859283I30024229I31885973
719I33364682I34722905I35782441I35874500I35251661I35455792I37681725
712I41871739I47067004I52221769I56739831I60061280I60878285I57517037
705I48703818I33348405I12333770H91455041H78807664H78825107H89154965
698I01683107I10191566I15359335I20617221I27827739I36448195I44700103
691I51291520I56003436I58568084I57331439I50170296I37600959I24024187
684I14916566I12918914I16147370I20581083I23988205I26282128I27842226
677I29037904I30610305I33487739I37509290I39902904I35464129I19606129
670H92684757H62180557H40056852H35094695H46382840H65146543H81534000
663H89728270H89154734H82138771H71235996H58129333H42189789H18948679
656G82942740G35304797F87719036F55831613F47482740F57720383F74889252
649F89987959G00466965G08275478G16658309G28140074G43620414G62182397
642G81484514G98534220H10393646H14677977H10490378G99674756G86723394
635G76717301G73083146G76897525G87462827H03017234H21237384H39659873
628H55805347H67156578H71984853H70960754H67477695H65535730H66808202
621H68944332H65486508H47729847H10129463G57422038G05591745F72177947
614F64013114F74704744F92513431G08893333G21442735G32227823G44300499
607G58770525G74201174G88025459G97928125H02116114G99326069G89681280
600G75971637G63497706G57485435G59908646G68757614G80277621G91558445
593H01341945H09524380H16568538H23101617H29598952H36251664H43041452
586H49860366H56509498H62621927H67748888H71626975H74301126H75909593
579H76185848H74031572H68204822H59363564H50764371H45181398H41291239
572H34922103H23744242H08932616G92522651G75737284G61033294G53692475
565G58686176G75689229G98634301H20467109H37652489H50454703H60263672
558H67436257H71410535H72195137H71052501H69344890H66859525H61655462
551H52081780H39425834H28185900H22699033H23507941H27887292H33540516
544H40480075H49448361H59822458H69000253H72717899H67033365H52775808
537H37873914H32115313H38636634H52232721H65650687H75307626H81394353
530H85396978H88515461H91216017H93439844H95121987H96488154H97976131
523H99878608I01935530I03562531I04690060I05995788I08125376I11042996
516I14203302I17067260I19394050I21175729I22395707I22942609I22789411
509I22218364I21815703I22134717I23378294I25511853I28476437I31970244
502I35011855I35518102I30090587I15596962H93205722H70289626H55041147
495H48320287H43571065H35938258H28584121H28341434H37774923H53564307
488H70765109H86274966H98943375I08623056I15732714I20822212I24050123
481I25107475I23220111I16908220I04919974H89042659H75550313H71704314
474H79854505H95394192I09993039I16306331I11336930H97347995H78748705
467H56585201H27557686G90614021G53260919G28493747G24917616G40688775
460G66528024G93222749H16116498H34395762H48694907H59909062H68864965
453H76253374H82840819H89392125H96193051I02485626I05629577I01794949
446H90529624H78574634H75221097H83000949H95929646I06844334I13309192
439I16676359I18898161I21173236I23777139I26150815I27447509I27255135
432I25847845I23538268I18996918I07779181H84054099H46521941H03379863
425G69314486G55607803G63034292G83854452H08807067H31892327H50897319
418H65831768H77415406H86348800H93200351H98466568I02565457I05795392
411I08346720I10368207I11977684I12947965I11937495I06219783H93631829
404H76154539H60901387H55682757H62887899H78131629H94566595I07767031
397I16935012I23031709I26847878I28468415I27553977I23800582I17443363
390I09319886I00107510H89771343H78606333H69020269H65236499H70110025
383H82374448H97581181I11467464I22092812I29547968I34738404I38552860
376I41564953I44003741I45696164I45925144I43653184I38593126I32449933
369I28519351I29181597I33882145I40112724I45946562I50929359I55154498
362I58574393I61098697I62723985I63542236I63580321I62121317I57160483
355I46414724I29672115I10227779H93816726H85663497H87664654H97742167
348I11742707I25961323I38157286I46861156I50161265I45651459I32759989
341I15330832H99955714H90777451H87335204H87283021H88584077H88845534
334H85406246H77533400H67746629H60550831H59849717H66909997H80009417
327H95726135I10704508I22911222I32099999I39316047I45613685I51008878
320I54783224I56749956I57575217I57578098I55929835I51319870I42989452
313I31516724I19402384I10571251I08014079I09747392I05957937H84854748
306H48370522H19122906H21548453H56076773I00379715I34083709I53513089
299I65024061I74036741I82196901I89282961I94845917I98938030A002067959
292A004759640A007288695A009572026A011300120A012226086A011973819A009700535
285A004443742I95364236I81009946I58093692I20347742H60206349G78091489
278F93804907F41456957F43218074F87408201G35854737G51653311G19488621
271F47945683E62611597D95096129D68230987D85877834E35734231F00030395
264F64176437G19365953G59345466G76039864G63393652G28805205F93769703
257F75079367F69469836F63765053F55726547F56572370F75449239G09528946
250G48976977G85589089H15897098H39713227H57632896H69289359H72896329
243H66191201H49073427H26932896H10495362H09571734H26011451H53103311
236H81218958I02638746I10422103H95376980H48638288G69200542F68025084
229E64791576D81933507D38532499D42345595D84578804E45203313F05775989
222F57447632F99118712G32346288G58819592G79783835G94844924H00113942
215G90477724G68020752G45874149G37168877G42866183G57552572G80235407
208H08578009H32241952H47356392H57881428H67643121H77962932H88250421
201H97353447I04880798I11564508I18049925I23802607I27462618I26825915
194I16752296H88551210H37012749G71513465G15813655F91395482G01518401
187G32968349G70090446H03922949H31639440H53218657H69849191H83260381
180H94836697I05093111I12282912I09220505H86275278H45911407H10954334
173H06725998H34334078H71982906I01368533I20132859I32062459I38680045
166I40448717I38510254I33075265I20071487H89339709H31629315G53440439
159F81156281F43190075F48488302F83684168G27863040G68049956H02164324
152H31999808H57818731H78741929H94985456I08130283I19566797I29662691
145I38400908I45909489I52249106I56439665I54341777I38424351I04781340
138H63336203H35356931H35787708H60923270H93387896I14433294I10212750
131H72242260H01615163G15690910F43542462F08416185F14007024F46703781
124F88925307G29765907G64980309G92334716H10154227H17142233H10170196
117G83454283G32858299F62918763E89898207E35615535E14837588E27147031
110E61308634F05117517F49245259F87531180G18678002G44893584G67816851
103G87384397H03844598H18680601H33000155H46399585H57870368H66971915
96H73656949H77893693H79480194H75555454H58648276H23822671G79558049
89G43457091G28830128G38910601G67278204H02199606H33306629H56388777
82H73201638H86871871H98110949I05712056I09745756I12717895I16773948
75I21188657I23731654I23730875I21986114I17656376I06785142H84370776
68H47854695H01723032G60137392G38645172G41489425G60258580G83103181
61H02082001H12071816H09837007G97403108G80753960G66367271G59761912
54G64182619G79910942H03466548H27813302H45285062H50589832H42644009
47H24312485H01288358G82771862G78418214G90096948H10850670H32780210
40H52398300H69117001H81408918H86214606H82270703H71225245H53443587
33H29192397H08836118H04600931H14013002H27992669H37445940H34872335
26H18405281G94892044G77959709G79110215G98445121H25493521H48652697
19H63253801H73662946H85460376H94964817H97620824H96909663H97859539
12H98790566H93999754H83487647H75414951H75147808H75923768H69695914
5H57400571H42800011H25342737H05003437G92560736
##END=


$$ === CHEMSPECTRA PEAK TABLE EDIT ===
##TITLE=X8196
##JCAMP-DX=5.00
##DATA TYPE=INFRAREDPEAKTABLE
##DATA CLASS=PEAKTABLE
##$CSTHRESHOLD=0.93
##MAXX=3997.453
##MAXY=0.8217328776801467
##MINX=373.96442
##MINY=0.3334850965720058
##$CSSOLVENTNAME=- - -
##$CSSOLVENTVALUE=0
##$CSSOLVENTX=0
##NPOINTS=57
##PEAKTABLE= (XY..XY)
383.88014324472215, 0.669749199722951
406.54465351837325, 0.5953713050029714
416.46037676309606, 0.6157597890407918
434.8752913604376, 0.5957221981366932
450.4571421735727, 0.5814445604393025
464.62246109460466, 0.5652839535264214
497.2026946129786, 0.5577725162535926
531.1994600234557, 0.39400437435540253
552.4474384050036, 0.4656199207462803
566.6127573260355, 0.6392973060160717
596.3599270602031, 0.4922323224295785
617.607905441751, 0.6173861016691783
640.2724157154025, 0.5291238423139192
672.852649233776, 0.5641541473545192
694.1006276153244, 0.3356082133579467
711.0990103205627, 0.6195639365239909
732.3469887021106, 0.5018264641420939
752.1784351915558, 0.35833641811279615
764.9272222204845, 0.4909059700318296
804.5901151993744, 0.6268734329826923
840.0034125019542, 0.6580415954635584
868.3340503440445, 0.6793283216894604
896.6646881861084, 0.7136024231560085
917.9126665676308, 0.6621640910015716
941.9937087333851, 0.6548526277260336
973.1574103596558, 0.5782654275512591
1001.4880482017197, 0.6698052876759228
1026.9856222595777, 0.554778277158262
1045.4005368569192, 0.6671138993432113
1068.0650471305703, 0.6339283575270769
1131.808982275215, 0.6368165010120929
1148.8073649804533, 0.6296102394783616
1174.3049390383107, 0.5767996301356905
1219.6339595856134, 0.5797023762790953
1242.298469859265, 0.5081681604429553
1255.0472568881937, 0.6623930920011174
1270.6291077013288, 0.5916392792391034
1296.1266817591868, 0.49551749199996115
1317.3746601407347, 0.639096617230094
1340.039170414408, 0.6986553659555593
1364.1202125801624, 0.6725634322210233
1426.4476158326815, 0.5765447612856023
1443.4459985379199, 0.5105360739870052
1454.7782536747459, 0.586331545436928
1464.6939769194682, 0.5472130172156663
1484.5254234089339, 0.6779926410697579
1573.766932611415, 0.4922061553473695
1582.2661239640343, 0.5284078712410021
1599.2645066692726, 0.49296048240979384
1643.176995324472, 0.3334850965720058
2335.8610905629534, 0.6852361550327324
2362.7751965129005, 0.6663563840477359
2936.470612814699, 0.6583675735432211
2940.7202084910086, 0.657743214808777
2952.052463627834, 0.6651459927217181
2961.9681868725565, 0.6644141669622626
3063.958483103995, 0.6813396207290996
##END=


$$ === CHEMSPECTRA PEAK TABLE AUTO ===
##TITLE=X8196
##JCAMP-DX=5.00
##DATA TYPE=INFRAREDPEAKTABLE
##DATA CLASS=PEAKTABLE
##$CSTHRESHOLD=0.93
##MAXX=3997.453
##MAXY=0.8217328776801467
##MINX=373.96442
##MINY=0.3334850965720058
##NPOINTS=210
##PEAKTABLE= (XY..XY)
3987.5372767552776, 0.6868090605483722
3976.205021618452, 0.689225791710784
3963.456234589523, 0.6887937180208068
3952.1239794526973, 0.688699840399129
3935.125596747459, 0.6902707209352554
3926.62640539484, 0.6910312170679209
3919.543745934324, 0.6910308589082791
3911.0445545817042, 0.6898047307516734
3894.046171876466, 0.6928768749261929
3886.96351241595, 0.6934371567578762
3881.297384847537, 0.6934577815492172
3875.6312572791244, 0.6927988519910535
3857.2163426817824, 0.6924149385281297
3844.4675556528537, 0.6935107103504764
3827.4691729476153, 0.6936681857981291
3809.054258350274, 0.6921115512913463
3803.3881307818606, 0.6959947341994416
3789.2228118608286, 0.6948805424103865
3780.7236205082095, 0.6950425499550456
3773.6409610476935, 0.6947149027596161
3766.5583015871775, 0.6971561303578733
3762.308705910868, 0.6969152679987359
3753.809514558249, 0.6970082509866076
3745.310323205629, 0.6999769796257391
3738.227663745113, 0.6934745897975372
3729.728472392494, 0.6953210825963417
3715.563153471462, 0.6946449269369425
3702.8143664425334, 0.6963172546610233
3698.564770766224, 0.695733069499739
3681.566388060985, 0.6955851901284732
3670.2341329241594, 0.7012972226465205
3658.901877787334, 0.6952322712499395
3639.0704312978887, 0.6985306728293124
3630.5712399452696, 0.6974465243587611
3622.0720485926504, 0.6957263922713735
3612.156325347928, 0.7009816158905036
3600.8240702111025, 0.6976886976740234
3590.90834696638, 0.6963229767970106
3573.9099642611413, 0.6962635506125052
3559.7446453401094, 0.6980940096449504
3549.828922095387, 0.6988334049706825
3541.329730742768, 0.6984662997560787
3532.8305393901483, 0.697334287228947
3524.331348037529, 0.6996375315292902
3515.83215668491, 0.6981682772609391
3510.166029116497, 0.6981142747460527
3496.000710195465, 0.6966901409395897
3476.1692637060205, 0.6986692538252611
3462.003944784988, 0.6967537992241365
3442.1724982955434, 0.6991764897650332
3432.256775050821, 0.697034000215901
3419.507988021892, 0.696720658743089
3411.0087966692727, 0.6979956022221613
3392.593882071931, 0.6967214339903479
3374.1789674745896, 0.6995534887570937
3367.0963080140737, 0.6994169342712552
3361.430180445661, 0.6993871320217412
3348.6813934167317, 0.7001892917635123
3341.5987339562157, 0.7008254521642743
3333.0995426035965, 0.6981967080957561
3316.1011598983578, 0.6997579925554956
3306.1854366536354, 0.7002057426174888
3280.687862595778, 0.6955974685756819
3263.6894798905396, 0.7025935638682976
3248.107629077404, 0.6990591878905403
3233.942310156372, 0.700846432819362
3226.859650695856, 0.7007892122247878
3218.360459343237, 0.7030699843035007
3205.6116723143077, 0.7057634580742976
3199.945544745895, 0.7056862700796909
3184.36369393276, 0.7052165261075549
3170.198375011728, 0.7060843101854111
3153.1999923064895, 0.7043879620410771
3139.034673385457, 0.7056657065122203
3129.118950140735, 0.7069689622048607
3120.6197587881156, 0.7063264835006734
3107.870971759187, 0.7052608123942088
3100.7883122986705, 0.7064214937639536
3086.6229933776385, 0.7031167738811555
3062.541951211884, 0.6813256134728505
3052.626227967162, 0.6796407692937647
3037.0443771540267, 0.6824806323998817
3021.462526340891, 0.6912284482358177
3014.379866880375, 0.6898297659575784
3003.0476117435496, 0.6916730399113966
2961.9681868725565, 0.6644141669622626
2952.052463627834, 0.6651459927217181
2940.7202084910086, 0.657743214808777
2936.470612814699, 0.6583675735432211
2896.807719835809, 0.6902707806285291
2885.475464698983, 0.6782290333210577
2872.7266776700544, 0.6878318780067504
2862.810954425332, 0.687325715015307
2847.229103612197, 0.6971272219768672
2833.063784691165, 0.688581942357198
2797.6504873885847, 0.7031247008417755
2777.8190408991395, 0.7058523888072472
2756.5710625175916, 0.7083427301943392
2749.4884030570756, 0.7085321537881633
2738.15614792025, 0.7092406739160527
2721.1577652150118, 0.7088938338025513
2711.2420419702894, 0.7093347298522531
2694.2436592650506, 0.7082055795410627
2681.494872236122, 0.7079471344516447
2631.9162560125096, 0.7124930014717561
2619.167468983581, 0.7135223140174852
2597.919490602033, 0.7170502523052699
2552.59047005473, 0.721306203635981
2534.1755554573883, 0.723240374374287
2517.17717275215, 0.7205562563761854
2488.846534910086, 0.7179304349821803
2474.6812159890537, 0.7229585624294325
2469.015088420641, 0.7232967592630302
2456.266301391712, 0.723977324571695
2435.018323010164, 0.7245319477871567
2410.9372808444095, 0.725702284926562
2396.7719619233776, 0.7277406441516195
2362.7751965129005, 0.6663563840477359
2341.527218131352, 0.6827909341075283
2325.945367318217, 0.6909482472440532
2279.1998148788116, 0.732490121101625
2270.7006235261924, 0.732609389027656
2256.53530460516, 0.7327907073463376
2249.452645144644, 0.7342721811339221
2239.5369218999217, 0.7361516942619285
2233.870794331509, 0.7351879471243091
2215.455879734167, 0.7365662449148989
2198.4574970289286, 0.737568258502115
2187.125241892103, 0.7365558735912531
2171.543391078968, 0.7400223010217453
2154.5450083737296, 0.744590400725094
2137.546625668491, 0.744301675839973
2123.381306747459, 0.7445620288182522
2114.8821153948393, 0.7451001988838423
2109.2159878264265, 0.7452077263674258
2102.1333283659105, 0.7454385747972609
2096.4672007974978, 0.7470485559582183
2079.4688180922594, 0.7474657285234385
2056.8043078186083, 0.7491642822577036
2048.305116465989, 0.7468714705048766
2034.1397975449568, 0.757774709432567
2018.5579467318216, 0.7579144827633918
2008.642223487099, 0.7560142269880938
2000.1430321344799, 0.759293734115763
1993.060372673964, 0.7585577941122165
1980.311585645035, 0.7505047911448857
1960.4801391555902, 0.7503029697173056
1950.5644159108676, 0.7479212869248028
1939.2321607740419, 0.7583029260274268
1930.7329694214227, 0.7617321002633772
1912.3180548240812, 0.7522779094309109
1898.1527359030492, 0.756309328339317
1886.8204807662232, 0.7611472600066796
1879.7378213057073, 0.7616056178695179
1643.176995324472, 0.3334850965720058
1599.2645066692726, 0.49296048240979384
1582.2661239640343, 0.5284078712410021
1573.766932611415, 0.4922061553473695
1493.0246147615321, 0.7034088959257853
1484.525423408913, 0.6779926410697579
1464.6939769194682, 0.5472130172156663
1454.7782536747459, 0.586331545436928
1443.4459985379199, 0.5105360739870052
1426.4476158326815, 0.5765447612856023
1385.3681909616885, 0.7157465810556092
1365.5367444722438, 0.6725500815907843
1340.0391704143858, 0.6986553659555593
1317.3746601407347, 0.639096617230094
1296.1266817591868, 0.49551749199996115
1270.6291077013288, 0.5916392792391034
1255.0472568881937, 0.6623930920011174
1242.298469859265, 0.5081681604429553
1219.6339595856134, 0.5797023762790953
1174.3049390383107, 0.5767996301356905
1148.8073649804533, 0.6296102379477648
1131.808982275215, 0.6368165010120929
1092.146089296325, 0.7054640641644611
1068.0650471305703, 0.6339283575270769
1045.4005368569192, 0.6671138993432113
1026.9856222595777, 0.554778277158262
1001.4880482017197, 0.6698052876759228
973.1574103596558, 0.5782654275512591
941.9937087333851, 0.6548526277260336
917.9126665676308, 0.6621640910015716
895.2481562939793, 0.7105943551189513
869.7505822361218, 0.6777968394792349
849.9191357466766, 0.6790362585728059
840.0034125019542, 0.6580415954635584
811.6727746598904, 0.694901703675892
804.5901151993744, 0.6268734329826923
764.9272222204845, 0.4909059700318296
752.1784351915558, 0.3583364165821994
732.3469887021106, 0.5018264641420939
711.0990103205627, 0.6195639365239909
694.1006276153244, 0.33560821182734996
672.852649233776, 0.5641541473545192
640.2724157154025, 0.5291238423139192
617.607905441751, 0.6173861001385815
596.3599270602031, 0.4922323224295785
566.6127573260355, 0.6392973060160717
552.4474384050036, 0.4656199207462803
531.1994600234557, 0.39400437282480577
497.2026946129786, 0.5577725162535926
464.62246109460466, 0.5652839535264214
450.4571421735727, 0.5814445604393025
434.8752913604376, 0.5957221981366932
416.46037676309606, 0.6157597890407918
406.54465351837325, 0.5953713050029714
392.3793345973413, 0.6864035121002459
383.88014324472215, 0.669749199722951
##END=

##END=

