##TITLE=CHS-424
##JCAMP-DX=4.24
##DATA TYPE=INFRARED SPECTRUM
##DATE=28/05/2025
##SAMPLING PROCEDURE=Diamant-ATR
##ORIGIN=Your Name
##XUNITS=1/CM
##YUNITS=TRANSMITTANCE
##RESOLUTION=6.010016694490818
##FIRSTX=4000.0
##LASTX=400.0
##DELTAX=-6.010016694490818
##MAXY=0.9989191725579037
##MINY=0.0017064254729263206
##XFACTOR=1
##YFACTOR=1
##NPOINTS=600
##FIRSTY=0.5272800418451216
##XYDATA=(X++(Y..Y))
4000+527280041
3994+919946889
3988+459354940
3982+333866618
3976+754212812
3970+732689967
3964+542435571
3958+45564706
3952+290555587
3946+122097287
3940+1706425
3934+359319216
3928+345996925
3922+759844594
3916+891538779
3910+666113765
3904+228218390
3898+469118253
3892+123315322
3886+782113861
3880+537032210
3874+162516232
3868+875257673
3862+713966098
3856+13723653
3850+574415908
3844+89564200
3838+274373827
3832+359638990
3826+259734774
3820+54276187
3814+938903154
3808+103817801
3802+67869975
3796+954160356
3790+118221694
3784+434817037
3778+343393393
3772+774190385
3766+544426084
3760+279759854
3754+359579688
3748+998919172
3742+319336861
3736+726756511
3730+598296396
3724+623521888
3718+197962916
3712+969817719
3706+967000656
3699+370103840
3693+921132352
3687+869685135
3681+89621644
3675+319790170
3669+423062187
3663+850524484
3657+651103298
3651+220020010
3645+913322014
3639+351397131
3633+63210660
3627+178393981
3621+962546170
3615+230696293
3609+702803146
3603+78395594
3597+819315869
3591+311139472
3585+184347136
3579+905046200
3573+843075193
3567+628209491
3561+520177982
3555+302654188
3549+350536109
3543+888674958
3537+200505318
3531+625995202
3525+503242189
3519+452809228
3513+832577821
3507+113308341
3501+805096667
3495+832695511
3489+245946967
3483+977304322
3477+83065027
3471+954378474
3465+564000558
3459+252417566
3453+706166482
3447+673147600
3441+476250425
3435+747176545
3429+692885546
3423+953088650
3417+342887755
3411+79638445
3405+42309822
3399+629400869
3393+66929102
3387+921415075
3381+403941982
3375+438870288
3369+543831697
3363+204578518
3357+701542284
3351+648991431
3345+326354964
3339+30611547
3333+104994887
3327+359474334
3321+208305422
3315+760003579
3309+638946026
3303+720911565
3297+382410624
3291+41900188
3285+716336281
3279+796064106
3273+504646209
3267+189583322
3261+644565635
3255+143293625
3249+33684675
3243+602189307
3237+130752730
3231+770882846
3225+615131261
3219+829129136
3213+779292786
3207+20661766
3201+188251169
3195+242653657
3189+649872059
3183+643280759
3177+575202281
3171+995755513
3165+91525995
3159+343643142
3153+490928209
3147+163437258
3141+698908511
3135+465182254
3129+267782043
3123+902001029
3117+140822466
3111+244635208
3105+187701732
3098+693835854
3092+911267809
3086+5898674
3080+391579482
3074+628886221
3068+779346275
3062+131721144
3056+468554468
3050+949989179
3044+604823735
3038+37474822
3032+401297007
3026+922599133
3020+936261473
3014+803754309
3008+691349668
3002+424150867
2996+646322346
2990+97333740
2984+443521279
2978+4383417
2972+777644949
2966+530933396
2960+620779915
2954+786347377
2948+521516507
2942+345823920
2936+87113657
2930+585240417
2924+231022717
2918+642561453
2912+783647267
2906+722812672
2900+383786655
2894+414576162
2888+351130364
2882+379214456
2876+221630844
2870+332654982
2864+485686240
2858+357148322
2852+595227108
2846+993647195
2840+845005360
2834+795503093
2828+526928838
2822+884363249
2816+305897283
2810+743265731
2804+599775346
2798+794247133
2792+146554443
2786+960198386
2780+69120393
2774+683865480
2768+631381577
2762+204523629
2756+263328603
2750+376926418
2744+321102402
2738+847187883
2732+193277050
2726+84828251
2720+316992712
2714+322903295
2708+942238453
2702+619494146
2696+458122593
2690+915628135
2684+824437374
2678+183638318
2672+796211282
2666+656878705
2660+120716665
2654+568631007
2648+620754706
2642+832646076
2636+324239333
2630+64100103
2624+655425661
2618+614726195
2612+654127901
2606+470914458
2600+461690871
2594+335884789
2588+262883267
2582+320394047
2576+858668183
2570+747603015
2564+344615773
2558+613385460
2552+778544327
2546+817353099
2540+406383773
2534+226354702
2528+705870629
2522+456061032
2516+242517836
2510+432146481
2504+395435767
2497+952653438
2491+795774875
2485+143303316
2479+284765024
2473+421887748
2467+272553566
2461+862870131
2455+749849029
2449+425553743
2443+43356570
2437+528234418
2431+943610909
2425+833042976
2419+696133020
2413+126014143
2407+593267979
2401+103305246
2395+79596095
2389+136942073
2383+138160164
2377+293126976
2371+384498449
2365+475616964
2359+285360860
2353+232864820
2347+471525238
2341+44026717
2335+83689645
2329+152918539
2323+141356713
2317+586009935
2311+188212934
2305+615920385
2299+904872497
2293+895124625
2287+759186841
2281+711470765
2275+178584434
2269+960470694
2263+403567556
2257+7130727
2251+180817482
2245+868186548
2239+425637348
2233+10534902
2227+415434618
2221+393993231
2215+391560940
2209+355369399
2203+290389399
2197+177015096
2191+504003907
2185+722139874
2179+929307913
2173+701964381
2167+667810892
2161+687720033
2155+235697090
2149+308575326
2143+60720984
2137+222571632
2131+448733854
2125+905821161
2119+631582321
2113+563234296
2107+295098408
2101+354914673
2095+557197582
2089+519558818
2083+106107437
2077+260279438
2071+726674983
2065+231206840
2059+446368686
2053+400927194
2047+633912496
2041+783818238
2035+211839537
2029+310300664
2023+560041330
2017+221876392
2011+147062138
2005+87576441
1999+233299530
1993+693148327
1987+215992840
1981+49995186
1975+418303875
1969+941185718
1963+630452684
1957+327266750
1951+881595419
1945+770099779
1939+572396266
1933+367655123
1927+830176119
1921+13350370
1915+110162656
1909+809908117
1903+521237783
1896+719020680
1890+41191531
1884+632035963
1878+542830487
1872+813230470
1866+844075106
1860+2069717
1854+390360229
1848+729989585
1842+976162162
1836+399426016
1830+514853250
1824+817807039
1818+468682969
1812+282748530
1806+822489251
1800+836282137
1794+630195496
1788+494803471
1782+271769240
1776+321773368
1770+684421366
1764+985392809
1758+727030986
1752+591335679
1746+356137205
1740+65191142
1734+312865346
1728+64612126
1722+648434830
1716+75986115
1710+429840374
1704+659096189
1698+555401445
1692+2280317
1686+248903859
1680+767140417
1674+381723170
1668+929520648
1662+819877761
1656+793297008
1650+451453477
1644+964843848
1638+367657570
1632+259180058
1626+332018812
1620+962168012
1614+39624305
1608+393057143
1602+75770355
1596+783253155
1590+865539392
1584+953460677
1578+810252659
1572+184320649
1566+714434563
1560+932691434
1554+852080352
1548+410725630
1542+914493937
1536+465485925
1530+608658221
1524+231619949
1518+511314470
1512+122708585
1506+64553724
1500+982848981
1494+494712859
1488+976983381
1482+625179403
1476+609348171
1470+255070509
1464+221160815
1458+768575414
1452+204573954
1446+73502291
1440+551698346
1434+619607805
1428+4760763
1422+484518289
1416+545884802
1410+899673438
1404+275048635
1398+494072173
1392+600040450
1386+175088168
1380+933436580
1374+194059246
1368+344799179
1362+145029629
1356+473905775
1350+412498715
1344+304455774
1338+641054264
1332+204408139
1326+108971413
1320+248867651
1314+677045699
1308+681552553
1302+769313550
1295+103641244
1289+510613732
1283+742827203
1277+283332426
1271+206479378
1265+75659394
1259+954195457
1253+804919522
1247+17505752
1241+37291176
1235+684116081
1229+54296434
1223+121425351
1217+198109050
1211+349159042
1205+539982031
1199+575898652
1193+854571854
1187+993099122
1181+836408259
1175+681313504
1169+481305533
1163+272594353
1157+334896078
1151+171087792
1145+220866878
1139+228084624
1133+552384745
1127+712256445
1121+836531318
1115+648220365
1109+220010013
1103+428306741
1097+805508239
1091+842835152
1085+162762293
1079+621726295
1073+6463435
1067+192633571
1061+393367412
1055+173174016
1049+715684647
1043+782194956
1037+562380856
1031+788943729
1025+830913269
1019+496521355
1013+41549052
1007+887918581
1001+440246213
995+778547396
989+168625599
983+695910555
977+357325940
971+574334448
965+29591175
959+708420904
953+675046584
947+754147281
941+673279680
935+680990231
929+943864053
923+175915257
917+532511662
911+888056119
905+814665830
899+314613271
893+709560620
887+538814101
881+181081786
875+648405579
869+66856331
863+556857222
857+964983100
851+530875831
845+2146591
839+927164399
833+867057941
827+556191735
821+697517044
815+866350275
809+685089551
803+220517080
797+606848513
791+16644135
785+63332993
779+406445794
773+824094567
767+336963399
761+501165467
755+553150205
749+600111083
743+367108208
737+765922101
731+956686916
725+997636740
719+543308047
713+307035758
707+738977551
701+39575622
694+281799292
688+55047586
682+714541022
676+952196702
670+133883707
664+10702756
658+667243080
652+33378747
646+751264231
640+793527789
634+337467588
628+384513210
622+836568001
616+954569686
610+797297679
604+615275867
598+990482956
592+228305902
586+907957478
580+851808549
574+484363249
568+680076297
562+411749043
556+251731536
550+729309412
544+5746213
538+715876522
532+885909081
526+596993158
520+743780976
514+798347324
508+800218856
502+562389957
496+234859491
490+572859031
484+616791081
478+192032077
472+134848894
466+275062615
460+711371795
454+170705537
448+74886451
442+279135211
436+469394445
430+960779271
424+973046673
418+600213864
412+404311290
406+281100517
400+439932722
##END=
