##TITLE=X7433
##JCAMP-DX=4.24
##DATA TYPE=INFRARED SPECTRUM
##DATE=29/10/2018
##SAMPLING PROCEDURE=Diamant-ATR
##ORIGIN=ComPlat
##XUNITS=1/CM
##YUNITS=TRANSMITTANCE
##RESOLUTION=4
##FIRSTX=3997.453
##LASTX=373.96442
##DELTAX=-1.4165319
##MAXY=0.9043237
##MINY=0.38771829
##XFACTOR=1
##YFACTOR=8.4221707e-010
##NPOINTS=2559
##FIRSTY=0.80226874
##XYDATA=(X++(Y..Y))
3997+952567655+953560786+954646981+955052216+954768990+954288454+954005087
3988+954108837+954644009+955398853+956025744+956404299+956615197+956584482
3978+956174646+955599277+955267219+955234735+955255400+955298995+955531761
3968+955887316+956098709+956054194+955837847+955605434+955605080+956029565
3958+956643505+956826873+956262756+955420297+955049598+955320793+955742306
3948+955826452+955542731+955211310+955294607+956034944+956982003+957437557
3938+957322554+956990708+956578042+956063889+955663113+955627444+955866155
3928+956171815+956462331+956658650+956693257+956606916+956419161+956071037
3918+955633106+955380524+955513361+955983210+956689860+957550225+958282352
3908+958367136+957436000+955744783+954274442+953997090+954920299+956366365
3898+957696296+958521629+958745124+958484333+957940173+957357586+956952846
3888+956799343+956814488+956729209+956268984+955594960+955143653+955167573
3878+955544217+955970825+956110952+955612228+954595955+953885767+954178051
3869+955199279+956167711+956642160+956369691+955362406+954311455+953967507
3859+954455120+955497013+956784693+957854682+957996366+957489857+957324748
3849+957640104+958047321+958095091+957427578+956039403+954565453+953927522
3839+954395956+955219024+955662476+955868915+956016756+955864740+955428436
3829+955261062+955740536+956576980+957267211+957700896+957865934+957444846
3819+956539825+955988660+956388163+957468979+958450999+958907332+958784261
3809+958268056+957932884+958251354+958690701+958375840+957253340+956267852
3799+956400194+957673508+959521837+961046389+961590477+961377314+961015815
3789+960821266+960797628+960867691+960854740+960524239+959880505+959152907
3779+958498274+957904646+957348810+956967707+957027863+957676763+958587588
3769+959046043+958875980+958757368+959144769+959700180+959948941+959800888
3759+959375341+958922264+958808677+959047388+959098697+958364234+956987736
3750+955951576+955624472+955654549+955875355+956081087+956065871+955936501
3740+955708406+955345563+955128012+955250375+955173660+954914496+955545845
3730+957291202+959282418+960737402+961437965+961477809+961058703+960385952
3720+959569183+958842505+958630616+959024104+959547952+959723181+959741298
3710+960242853+961264151+962222321+962624868+962334918+961556082+960708527
3700+960162811+960027921+960260263+960895292+962113617+963958054+965895059
3690+966695976+965444247+963082686+961153041+959998339+959309807+958913489
3680+958885251+959232171+959692042+959999118+960169605+960240093+960100462
3670+959854532+960131884+961364505+963014463+964166333+964190608+963138454
3660+961670944+960459342+959876400+959987440+960365924+960431883+960119428
3650+959823322+959695297+959343352+959090133+959686238+960990762+962164431
3640+962678017+962801583+962910571+962853104+962366624+961596422+960899185
3631+960479300+960429618+960696921+960970522+961116806+961309091+961824800
3621+962757351+963682400+963889194+963208022+962007814+960717798+959758142
3611+959474137+960171374+961931735+963933426+964990534+964974964+964628964
3601+964413183+964132576+963595989+962981271+962523523+962377239+962522674
3591+962586510+962072357+961030748+960508740+961380499+963017577+964233495
3581+964543897+964410494+964435901+964515093+964307239+964041918+964060247
3571+964090891+963718494+963162445+962986437+963058411+962859615+962498187
3561+962344756+962514182+962993656+963742839+964411768+964411626+963620900
3551+962710855+962363510+962592454+963001370+963177236+963006182+962932722
3541+963560674+964889543+966259885+967046789+967103052+966568164+965706738
3531+964925778+964493013+964249277+963928259+963666902+963833497+964468809
3521+965151043+965431226+965287631+965107235+965212543+965435896+965285366
3512+964586572+963828401+963685019+964224224+964882112+965158120+965046231
3502+964855503+964739792+964568101+964248286+963938309+963802145+963740079
3492+963640645+963744962+964394358+965438515+966253091+966437237+966165405
3482+965797325+965463780+965139436+964844745+964640004+964585228+964737315
3472+965067604+965417425+965564558+965312259+964675178+964054515+963920262
3462+964201011+964407097+964459467+964832148+965708578+966517562+966608008
3452+966104259+965766114+966046227+966548772+966557123+965925279+965112472
3442+964561661+964414598+964532645+964566332+964272915+963862301+963753101
3432+963998535+964251400+964300303+964398392+964937385+965829667+966376374
3422+965992016+965000866+964333141+964442128+964988128+965535825+966024995
3412+966517845+966894843+967001991+966920108+966885431+967017348+967266958
3403+967510764+967542965+967151247+966379629+965575386+965052105+964838801
3393+964791172+964823019+965012544+965501997+966203055+966715863+966792933
3383+966813315+967397530+968477568+969204459+969026611+968386061+967905525
3373+967442612+966520181+965235119+964206107+963935407+964384662+964888340
3363+964700797+963958832+963609719+964072632+964634909+964441138+963443973
3353+962174339+961196282+960926644+961455941+962370162+963012552+963015949
3343+962541499+962079222+962032159+962379575+962751760+962944541+963241992
3333+964043192+965280412+966420181+967004114+967061580+967001495+967214516
3323+967788187+968443952+968692359+968275305+967551174+967208501+967554430
3313+968304816+968941756+968992145+968241051+967065472+966324923+966571065
3303+967483517+968190733+968111257+967456766+966865827+966637590+966632211
3293+966834900+967458606+968416705+969211606+969490445+969337084+968957609
3284+968452586+968025553+968088469+968843809+969861073+970412238+970263053
3274+969836303+969579050+969531917+969559446+969601343+969577352+969392002
3264+969199575+969350318+969858242+970209196+969978978+969409695+969045577
3254+968947276+968662989+968007860+967513312+967840345+968879761+969740267
3244+969784428+969494266+969888886+971087749+972004942+971757668+970831557
3234+970322642+970561566+971060077+971334669+971267012+971025541+971010679
3224+971554909+972419944+972923269+972757239+972367715+972275217+972372174
3214+972263611+972000555+971951298+972109401+972077695+971711809+971317543
3204+971196878+971346205+971619311+971955120+972407418+973081725+973990497
3194+974847464+975164802+974781364+974117460+973626026+973258724+972842165
3184+972611026+972851790+973356671+973755891+974087241+974526022+974807479
3174+974497501+973708403+973024047+972768563+972793757+972919872+973157662
3165+973527795+973950724+974260489+974256950+973912932+973437421+972959503
3155+972467078+972189797+972515061+973360634+974151289+974460063+974287665
3145+973867568+973450372+973042942+972432683+971812587+971913152+972965873
3135+974128147+974523828+974278535+974057446+974139470+974306207+974186958
3125+973570753+972613291+971707916+971076921+970656753+970368927+970303392
3115+970588034+971146418+971640896+971770124+971638419+971670549+972103739
3105+972706355+973084627+973178681+973294038+973607625+973910879+973965586
3095+973755891+973186254+971961347+970114434+968351737+967568584+968094909
3085+969464472+970807141+971454131+971323487+970853709+970545005+970504170
3075+970545713+970711883+971298930+972208339+972757664+972402888+971250735
3065+969765107+968359381+967272973+966511476+965927827+965393292+964719764
3055+963621325+962162874+961046955+961033437+962116589+963503562+964439014
3046+964900938+965341629+965959320+966589890+967079626+967209138+966431221
3036+964304479+961127705+957786317+955182081+953919737+954121576+955349597
3026+956868345+957984759+958234581+957593324+956498707+955360000+954248044
3016+953394191+953513369+955086894+957695447+960492958+962947938+964834837
3006+966041131+966725842+967270142+967824209+968137725+967929871+967315790
2996+966820675+966900222+967485428+968185354+968821304+969446637+970018468
2986+970408983+970605444+970710609+970864466+971143587+971437075+971639410
2976+971990788+972828011+973987666+974880939+975144632+974885044+974361762
2966+973705431+972875144+971649176+969557960+966085080+961380287+956734446
2956+953812873+953263476+954231908+954911877+953311105+948294495+940566218
2946+931813387+922254686+910305832+895705608+881534329+871645622+867376708
2936+868213152+873915252+883743662+894725074+903026244+906904147+907206057
2927+905641803+903504161+901568076+900358385+900203325+901013018+902204166
2917+903062054+903009471+901450737+897860872+892548580+887316895+884941250
2907+887309889+893578370+900414648+904680731+905971101+906306273+907684753
2897+910504911+914010841+917170984+918820305+917899219+914511759+910680636
2887+909371582+912265272+918429295+925299118+930819336+934402690+936217828
2877+936381946+934955554+932069225+927773630+921953626+914451462+905452348
2867+896132995+888756097+885412374+886387246+889982631+893970159+897102843
2857+899442394+901671897+904288871+907252412+910114042+912448852+914271067
2847+916009913+918046777+920357808+922622342+924578880+926289701+928079007
2837+930163783+932394913+934462562+936247552+937806922+939161623+940323756
2827+941426865+942560548+943503927+943916310+943810649+943547946+943350849
2817+943167198+943012421+943040730+943200956+943138465+942577108+941745194
2808+941363808+942078738+943835065+945950980+947780555+949123861+950126193
2798+951064193+952172823+953495818+954874935+956067357+956908826+957493537
2788+958119366+958915541+959665007+960099896+960180929+960020278+959724030
2778+959345971+958847388+958070038+956807906+955009824+952978339+951240059
2768+950151175+949780476+950097318+950925765+951801487+952306014+952524343
2758+952854632+953502966+954413012+955512936+956767850+958066500+959204570
2748+959994588+960397276+960567693+960704989+960837118+960832801+960643135
2738+960456865+960566773+961079934+961758983+962216943+962282123+962070305
2728+961760752+961496918+961411001+961502721+961623881+961760257+962098401
2718+962684174+963307597+963792096+964142908+964450762+964861872+965507092
2708+966307089+967002698+967438861+967657119+967725554+967668584+967582809
2698+967659525+968017485+968571057+969107856+969491860+969790019+970158666
2689+970547411+970647340+970350809+970111532+970481240+971342879+971998007
2679+972019592+971657456+971351796+971198435+971050382+970880672+970836865
2669+971046489+971485695+971982296+972354835+972619660+972946623+973361483
2659+973689012+973834871+973930766+974206207+974816608+975630476+976163595
2649+976025804+975435502+974989998+975026869+975462466+976032951+976434224
2639+976426439+976031324+975528637+975197286+975160839+975420852+975850362
2629+976205562+976382419+976618583+977131390+977609307+977515960+976946607
2619+976658356+977108036+977926291+978495079+978639806+978604349+978689770
2609+979067759+979717579+980430740+980994644+981378931+981636679+981689333
2599+981385796+980792380+980252821+980070868+980250344+980623732+981068104
2589+981492306+981799595+981978646+982102495+982229812+982420187+982719902
2580+983061868+983393431+983867244+984551246+985120600+985330083+985513380
2570+986016492+986518754+986625902+986703892+987308135+988113935+988228514
2560+987409833+986281883+985480330+985163629+985235249+985550322+985940837
2550+986268720+986381317+986052373+985287478+984645018+984814869+985834185
2540+987014931+987616556+987424979+986815993+986390871+986458174+986890232
2530+987463407+988069208+988566587+988788101+988681944+988163971+987106084
2520+985846995+985259453+985795403+986830006+987404384+987331207+987222927
2510+987685204+988747408+989931550+990725602+991025176+991039118+990771179
2500+989968139+988746629+987841183+987907779+988832121+989875358+990285476
2490+989806497+988887676+988356256+988684704+989659223+990763252+991566787
2480+991743574+991200476+990371322+989921076+989949030+989917183+989587815
2470+989510674+990207204+991269620+991718096+991150158+990219659+989842591
2461+990111663+990336432+990059929+989463682+988810252+988281734+988339554
2451+989321078+990666154+991412011+991403731+991251856+991308190+991423759
2441+991492549+991590779+991716327+991831613+992063813+992573082+993323327
2431+994149296+994940588+995601024+995951978+995858702+995373283+994627780
2421+993786877+993245620+993476334+994374278+995093383+994908812+994004782
2411+993179661+993016817+993533588+994430753+995454245+996386867+996824091
2401+996388990+995343347+994518863+994394448+994675550+994955946+995267622
2391+995779014+996373774+996659690+996179437+994785033+993007829+991732180
2381+991298636+991255748+991104864+990925106+991165798+992087734+993376476
2371+994211009+993992397+992950221+991686108+990600762+990237777+991234517
2361+993292400+995148514+995976677+996001730+995706119+995154317+994130825
2351+992697285+991444000+991047681+991709179+992952486+993959205+994355665
2342+994406691+994373075+994282134+994223748+994426295+995070453+996146882
2332+997389977+998219060+997931022+996309939+994056020+992341448+991851783
2322+992349162+993199194+993987514+994460265+994429338+993997209+993497919
2312+993100256+992786952+992755601+993460481+995035988+996862520+998011064
2302+998130667+997705970+997480351+997808942+998413256+998573907+997844398
2292+996747233+996361672+997122886+998492449+999746796+1000494776+1000573403
2282+1000169371+999873123+999962011+999929952+999295277+998410567+997932225
2272+997958410+998145458+998296696+998498252+998923728+999681829+1000654153
2262+1001363987+1001277434+1000461372+999658262+999412969+999503273+999559465
2252+999631086+999791099+1000013816+1000693006+1002238648+1003965392+1004494972
2242+1003539704+1002366248+1002265399+1003280257+1004554774+1005309336
2234+1005233469+1004493628+1003728026+1003510192+1003569074+1003287546
2225+1002996819+1003691012+1005419597+1006968918+1007139689+1005776991
2217+1003857183+1002772616+1003048269+1003905591+1004526819+1005230426
2208+1006776633+1009066008+1011234931+1012728838+1013686513+1014279575
2200+1014223029+1013336479+1012109025+1011120848+1010171665+1008495593
2191+1005812801+1002934045+1001014661+1000149484+999375744+998500376+998816369
2181+1001106239+1004247910+1006827659+1008704368+1009978106+1009872657
2173+1007992198+1005729858+1005026393+1006222920+1008138765+1009796862
2164+1011187019+1012990267+1015978577+1019372760+1020188043+1017052104
2156+1013084675+1011886025+1013838388+1017085579+1019551457+1020127746
2147+1019225698+1017923226+1016485228+1014582546+1012209874+1009341308
2139+1005978406+1003471056+1004030572+1007883423+1012503008+1015456145
2130+1016435122+1016180629+1015187002+1013850560+1012714330+1012203363
2122+1012410793+1012920062+1012911640+1012133865+1011501172+1011875692
2113+1012755590+1013076041+1012701662+1012296993+1012272860+1012377106
2105+1011996428+1010897211+1009813705+1009758079+1010650574+1011445192
2096+1011706691+1012089633+1013009163+1013826074+1013836972+1013331879
2088+1013181703+1013851551+1015145884+1016436749+1017009005+1016751044
2079+1016467606+1016933421+1017899872+1018586068+1018778990+1018793782
2071+1018648630+1018027118+1017065197+1016524010+1016795701+1017154864
2062+1016536891+1014748363+1012526857+1010952412+1011003368+1012807890
2054+1014841215+1014766339+1012044694+1009227154+1009619792+1013665494
2045+1018828035+1022831486+1025289367+1026447183+1026073511+1023811949
2037+1019948908+1015766618+1012973989+1012541861+1014303142+1017375882
2028+1020355559+1021751377+1021219179+1019910550+1019095974+1018950964
2020+1018902203+1018512396+1017822660+1017591239+1019189958+1022836228
2011+1026010879+1025883845+1023562340+1022984635+1025097719+1026477402
2003+1024462548+1020575091+1018160168+1018486635+1019802058+1019894556
1994+1018830158+1018499161+1019951668+1022050315+1022813086+1021229299
1986+1017816928+1014130036+1011580365+1010752838+1012155097+1016797682
1977+1024330206+1031155090+1033445102+1031502859+1028372582+1025802033
1969+1023998007+1023584279+1025065023+1027179239+1028182915+1028120141
1960+1028300961+1029172154+1029843064+1029305628+1027232742+1024194963
1952+1021835737+1022024908+1024915271+1028346043+1029988428+1029592464
1943+1028474492+1027674283+1027483201+1027971876+1028788999+1028806692
1935+1026806912+1022390299+1016034133+1009015053+1003419393+1001126196
1926+1002366460+1005919807+1010428352+1014874477+1018517420+1021142533
1918+1023128300+1024911945+1026332392+1026947888+1027016466+1027494171
1909+1028705348+1029757148+1030005838+1030050423+1030560683+1031162450
1901+1031139237+1030634356+1030475050+1031035204+1031833289+1032256572
1892+1032198822+1031808661+1031235344+1030981418+1031901371+1034270435
1884+1037033905+1038483227+1038110475+1037142539+1036874882+1037337938
1875+1037825056+1037959238+1037946357+1038095826+1038234750+1037870703
1867+1037274456+1037369502+1038335669+1039487894+1040072039+1039780108
1858+1038906438+1038217906+1038406865+1039508063+1040841604+1041481445
1850+1040985977+1039844509+1039043876+1039185347+1040071260+1040960216
1841+1041410533+1041611593+1041827375+1042023481+1041994324+1041643016
1833+1040998008+1040157672+1039434391+1039313301+1039956328+1040978617
1824+1041695245+1041630277+1040940542+1040161352+1039823207+1040135945
1816+1040666021+1040731979+1040156468+1039239062+1038388181+1038114509
1807+1038808845+1040268004+1041895527+1043325316+1044581008+1045834365
1799+1047159695+1048385663+1049253176+1049698892+1049884808+1050091389
1790+1050512902+1051040713+1051463429+1051662791+1051557696+1051243967
1782+1051156423+1051598106+1052302986+1052943253+1053576867+1054294556
1773+1055062848+1055903396+1056784426+1057665102+1058617823+1059481372
1765+1060007272+1060340392+1060690992+1060837700+1060647751+1060469761
1756+1060572167+1060855251+1061051854+1060884409+1060364029+1060078114
1748+1060477475+1061322766+1062268126+1063098413+1063702444+1064136342
1740+1064435562+1064613835+1064948582+1065806257+1067187285+1068683316
1731+1070108009+1071511754+1072779123+1073598228+1073741823+1073394478
1723+1072863129+1071939707+1070171632+1067495069+1064033158+1059716261
1714+1054529870+1048262309+1040672390+1032109934+1022922215+1012785031
1706+1002059951+992107479+981837528+966673966+943563587+913974677+872812567
1696+811658394+738992024+668540437+600733637+537103819+489563603+465193781
1686+460354345+471800088+495176885+522963750+552353261+582261419+612487375
1676+644441668+676023067+702247022+723849199+744952226+764930559+780091785
1666+791047791+801012860+812138930+823761812+833651934+841410077+847940411
1656+854142650+862068803+873544694+883119531+887407058+890232807+895019836
1646+902515205+910235698+916493988+921779882+926842353+932095552+938296305
1636+946683107+956081016+963339939+968594270+973706422+979710077+986366596
1626+992715403+998264354+1003208990+1007432823+1010334439+1011506196+1009972657
1616+1003616207+991870183+976084261+955734379+927296420+884401974+821267625
1606+740865973+658714787+596496428+570100464+579633015+611169829+649146956
1596+685224020+718009166+748521992+776835111+802037272+823596915+841948928
1587+858108664+872843989+885944148+895962649+900366736+894694218+870356738
1577+821526931+768879375+743888536+747700340+768592682+796913089+822252830
1567+839855235+852305786+861821246+868723978+874272433+882129655+893775043
1557+902969202+908378593+912656494+916632133+920230137+923517172+926403430
1547+928640364+930290251+931608434+932823079+934830289+938953415+943690338
1537+946783319+948331932+949287909+950499864+952022292+953371048+954485623
1527+955635795+956776413+957551498+958032600+958788365+959995084+961283684
1517+962558555+963759824+964358689+963809364+962082124+959716245+958057795
1507+959782133+965333208+970252579+972922349+974291133+975148666+976039887
1497+977326294+978757003+979737395+980129608+980194718+980384101+981250552
1487+982857269+984582173+985850817+986630148+987363125+988381662+989388665
1477+989800694+989401333+988605158+988400346+989523767+991307907+992721206
1468+993578952+994241936+995091614+996061886+996692457+996687219+996299677
1458+996699888+998701790+1000411479+999888410+996197483+986995256+967038862
1448+932701706+891979509+862415086+855973994+871227931+896380128+919752573
1438+936618888+945206892+942782061+929045387+906634085+880680546+859572140
1428+848615850+844990812+843799805+844132571+848645999+860168811+878968593
1418+899492146+913592584+918573314+915099726+905204154+894675110+891326575
1408+898744096+913541841+927317864+931248209+922038622+902173381+877424367
1398+856391403+846365400+849279684+862513741+880141199+896613602+909917440
1388+920317468+928403847+934780679+940288087+945565702+950719538+955522066
1378+959693174+962951901+964983598+965522450+964613819+962717507+960524027
1368+958900325+958707049+960396144+963994713+969094268+974665441+979708874
1358+983939430+987435806+990202037+991958010+991878322+988662412+981371429
1349+970305091+956692974+942053756+928908091+921314633+923144845+934965745
1339+952287543+968794906+981569872+991056740+998060250+1002399793+1003605026
1329+1002517132+1001659032+1003234610+1007005436+1010629484+1011396643
1320+1006716902+993855172+971610464+943007326+914527400+890578807+868008694
1310+839268543+804195791+775688689+769154321+786913130+816964671+845708007
1300+867435519+882827883+893649778+900797449+904681014+905275774+902841743
1290+899897452+901285770+910305832+924903012+938746834+945501583+942349650
1281+932237023+923313351+923280372+933110692+947487987+960742497+970664821
1271+977521127+981726134+983108577+981747790+978990901+977208814+978143417
1261+981597826+985997100+990061627+993528775+996286655+997304556+994899612
1251+988555901+980555792+974989998+974521776+978614116+985021521+991844210
1241+997808305+1002078917+1004793273+1007060213+1009830619+1013055235
1232+1016018988+1018060664+1018687059+1017153661+1012323532+1003037370
1224+988273807+966799444+937006076+897344951+847056763+787589561+725383375
1214+673637090+647776049+654511053+684802578+719923595+744328803+752461113
1204+747448819+737635200+732851073+739101082+754423525+770975757+782646269
1194+790581693+800909676+818219159+842345954+869904723+896501500+917184784
1184+925932732+917273673+892650136+865481740+853633664+863126478+881894554
1174+888958431+866251589+807123380+724262785+648822541+611125951+618186361
1164+653198037+694684350+731204512+760744023+784083418+801782992+814805444
1154+825155295+835042799+845500718+856062600+865807075+874424733+882181177
1145+889263030+895562297+900988177+905615830+909483825+912529106+914822161
1135+916708141+918653144+921015201+923911367+927163512+930327972+932917770
1125+934735244+935786478+935602473+933185922+928569876+924143921+923090988
1115+926247522+931451676+935891997+937801473+935723067+927751337+912829247
1105+892905761+873523675+861697963+861963354+873432734+890625587+907402942
1095+920309471+928958197+934471055+937968564+939952915+940527364+939981790
1085+939005148+938299843+938196730+938743861+939992264+942059488+944957070
1075+948378146+951702407+954390294+956446620+958313066+960236130+961963936
1065+963091108+963325077+962325010+959927922+956990354+955388591+956439826
1055+959641865+963471786+966931219+969819743+972122281+973798920+974914839
1045+975685111+976413629+977008885+976317239+972788308+966644809+960728909
1035+958044773+958666639+960110865+960581210+960649221+961720908+964043829
1026+966506947+967716779+966952026+963569450+955460070+940792897+923522267
1016+913733843+918176359+932571346+946802002+955052004+957807124+957580444
1006+956848033+958088510+962450488+968741615+974868484+979691748+983174890
996+985590733+987190443+988350736+989498855+990771886+991999199+993019365
986+993803296+994273146+993980861+991975066+987653003+982310491+979025296
976+979994082+984430582+989716406+993954605+996826355+998738945+1000067673
966+1001047994+1001841905+1002546856+1003177497+1003631494+1003746851
958+1003454354+1002797315+1001658607+999234414+993758711+983656487+970265530
948+959035923+956036218+962524090+974028643+984905385+992547746+997340791
938+1000565123+1003270703+1006051229+1008889222+1011350995+1013129332
929+1014000808+1012893664+1007588873+996754523+982922166+972312160+970266238
919+976817662+987347201+997096135+1004170275+1008759640+1010956800+1010008043
909+1005584423+999438730+995066915+995120913+999383599+1005512307+1011234081
899+1015503562+1018306876+1020174172+1021783224+1023504661+1025191278
891+1026575066+1027812216+1029327213+1031148791+1032744114+1033415661
882+1032547087+1029842781+1025810313+1021483933+1016968736+1010168481+996562096
873+970216273+927734706+874866486+828628459+808189901+820482703+854843284
863+891835419+916041336+920446059+902586755+862555992+807108518+751699332
853+713197296+699698483+708623288+732941730+766252918+802822690+836922551
843+864352516+883787044+895720612+899697029+892071370+868301262+831402757
833+797430214+785546186+799068636+819967348+824234775+801714627+763419525
823+733109670+728765881+745937148+758914448+743384292+700335282+656137586
813+638809348+655949122+693834459+730361557+747152783+740059323+724381822
803+720950767+732676551+744050673+743653576+734436133+722600442+710134463
793+699152555+692397310+687910846+680206136+667798685+656220317+653505962
783+664057016+686289480+714804225+744116632+770862099+793911616+813501486
773+830500921+846016144+860785440+874664576+887075283+897847992+907276049
764+915460446+921459431+922970536+918033330+908232946+899474312+898166037
754+906226584+919856465+931885149+933230862+914169793+871644843+818810240
744+780869206+775050334+796515356+825230737+842706745+842391318+831115002
734+823809299+832292067+855793174+882789313+900879331+903186399+888274924
724+859266692+824175752+793405885+772268392+754896701+729503811+692809977
714+657911535+644562969+660993122+698084619+740191948+777372405+807481836
704+831236304+848624626+858892737+861248707+855397281+843496692+832068714
694+829345866+838844977+856769886+876288420+892854877+905398562+914618270
684+921447754+926590762+930731509+934596107+938219730+939736851+935222644
674+921720364+901366873+879295484+857812699+838925657+831861213+841984809
664+862293714+885160075+905812644+921743365+932936596+940360627+944855160
654+947232574+947730873+945188775+936995036+920467574+895728821+867248258
645+841780210+825618846+823782265+838621836+866654276+898923288+926895502
635+946469095+955327658+949224498+924829764+887318735+851598853+830869426
625+822996281+813314084+793368730+771709512+763994116+776827326+803450076
615+832449038+857064082+876037041+889997139+899978556+907736840+915113385
605+922711938+929586786+934427248+937140400+939026309+941364728+944368113
595+947334838+949121667+949026551+947984092+948000724+949886845+952562559
585+954643301+955922630+957184550+959004996+961037259+962470940+962981837
575+963017293+962922743+961688212+957132109+948456136+938843507+933740697
565+935766662+942639741+950042046+955332045+958334439+959604073+959251845
555+957395448+954420513+950386418+945036405+938452143+930605890+919417967
545+899037088+861369301+803446396+736717440+686612125+676069351+706724003
535+759074957+810305745+848836798+874199751+889731960+897858749+898980613
526+891820415+874211924+843209149+796302405+737397975+683173569+656728879
516+668514110+708386912+757780412+803123255+839320913+866654984+886939331
506+902061350+913347645+920542803+923168624+923514200+925228488+929176101
496+933251527+935661071+936935164+938737421+942070245+946856142+952077706
486+956010882+957519439+957615122+958482988+960752618+962916657+963436188
476+962642702+962157141+963080846+965218204+967507579+968631637+967456200
466+963606321+957115690+947117783+931668731+908360263+875523242+837062748
456+804194376+784361902+776287979+777770210+788553180+807021328+828700221
446+847333549+857075901+855638256+847240555+841600309+846864973+864339848
436+888854398+912637032+930933348+943462455+951527036+956587171+960184821
426+962870302+963514531+960704493+954153706+944267830+933922225+930582465
416+936836438+946500588+953277064+953959723+948488124+938863748+928466692
407+922737840+926407323+938430204+952499502+962405053+965164206+962652468
397+961597766+964834696+969039491+973203027+978890548+983561371+981543403
387+973720151+970373527+978575829+991133456+997786153+996952187+992319368
377+987065674+981195775+972919588
##END=
