##TITLE=FHU 133
##JCAMP-DX=4.24
##DATA TYPE=INFRARED SPECTRUM
##DATE=29/9/2017
##SAMPLING PROCEDURE=Diamant-ATR
##ORIGIN=Rieke
##XUNITS=1/CM
##YUNITS=TRANSMITTANCE
##RESOLUTION=4
##FIRSTX=3997.453
##LASTX=373.96442
##DELTAX=-1.4165319
##MAXY=1.003812
##MINY=0.46135378
##XFACTOR=1
##YFACTOR=9.3487274e-010
##NPOINTS=2559
##FIRSTY=0.99987334
##XYDATA=(X++(Y..Y))
3997+1069528827+1069124735+1068584076+1068162706+1068061397+1068224168
3989+1068546459+1069017241+1069516904+1069823575+1069910667+1069941908
3980+1069976592+1069980417+1070050295+1070281223+1070466118+1070246284
3972+1069616365+1069020748+1068831007+1068902861+1068839869+1068577955
3963+1068415184+1068515155+1068633807+1068459304+1068060249+1067822499
3955+1067981828+1068420986+1068950742+1069454805+1069664310+1069289037
3946+1068531349+1067877394+1067460933+1067140874+1066968602+1067093757
3938+1067407441+1067611272+1067487648+1067023433+1066455996+1066182798
3929+1066352009+1066699229+1066955213+1067175047+1067570404+1068107557
3921+1068546013+1068771012+1068714969+1068203575+1067347956+1066708856
3912+1066643059+1066985115+1067499761+1068207464+1069067163+1069664310
3904+1069523089+1068673463+1067576907+1066593329+1066035200+1066207727
3895+1067080814+1068090661+1068282187+1067311551+1066424947+1066729386
3887+1067574612+1067684019+1067108804+1067013806+1067473685+1067579649
3878+1067202271+1066932133+1066847336+1066730342+1066689474+1066792123
3870+1066652559+1066243813+1066167496+1066479140+1066458547+1065758750
3861+1065129341+1065293197+1066184838+1067389143+1068290475+1067686633
3853+1065045884+1063118702+1063489449+1064909125+1066361891+1067473621
3844+1067944275+1067508942+1066473147+1065571177+1065025290+1064507137
3836+1064125297+1064251408+1064582243+1064536912+1064251026+1064330020
3827+1064882474+1065642840+1066550739+1067323537+1066980078+1065439710
3819+1064671566+1065268523+1065642075+1065026438+1064543287+1064892484
3810+1065593811+1065960605+1065685748+1065260489+1065491927+1066122994
3802+1065989805+1064850086+1064107764+1064258103+1064423488+1064175091
3793+1064055993+1064488839+1065229504+1065850751+1066118021+1065904052
3785+1065288606+1064813808+1064915883+1065207189+1065016492+1064532831
3776+1064532576+1065170911+1066033224+1066651348+1066625654+1065977373
3768+1065421157+1065431358+1065704875+1066006063+1066517203+1067059647
3759+1066881319+1065883140+1065187679+1065432697+1065941860+1065538661
3751+1063878430+1062624075+1063108118+1064355077+1064836378+1064089848
3742+1063455912+1063876900+1064890635+1065748932+1065830987+1064923916
3734+1063626271+1062770908+1062654934+1063261581+1064364003+1065429700
3725+1065976161+1066206069+1066692598+1067400364+1067757212+1067481336
3717+1066882148+1066462563+1066407732+1066397021+1065996882+1065375762
3708+1064910209+1064527922+1064037822+1063384887+1062710084+1062422858
3700+1062793988+1063526045+1064232600+1064898541+1065702516+1066606590
3691+1067091207+1066388669+1064674308+1063382337+1063092051+1063365760
3683+1063840176+1064257848+1064349147+1064032785+1063270188+1061907128
3674+1060710920+1060862343+1061732562+1061752135+1060637281+1059859191
3666+1059927283+1060106696+1060016607+1060068951+1060717232+1061681492
3657+1062212715+1062176565+1062493055+1063695001+1064986271+1064792513
3649+1062341249+1059749019+1058993308+1059464982+1060211384+1060832122
3640+1061321457+1061865176+1062543869+1063161355+1063455912+1063478355
3632+1063462734+1063122336+1061648913+1059620867+1058985083+1059891324
3623+1061358691+1062758156+1063758248+1063936512+1063187304+1062130278
3615+1061246479+1060623191+1060469218+1060889631+1061341222+1061155242
3606+1060575500+1060335328+1060503838+1060682867+1060778758+1061060245
3598+1061475366+1061449417+1060602916+1059479518+1059159713+1060018520
3589+1061263502+1061489265+1060280688+1059179988+1059330773+1060239756
3581+1060961931+1060979592+1060425162+1059844017+1059640632+1059737543
3572+1059938823+1060398065+1061204718+1061587961+1060450983+1058570982
3564+1057869591+1058501933+1059281553+1059394084+1059045397+1058872680
3555+1059119228+1059499028+1059605885+1059469317+1059543467+1059963944
3547+1060266981+1060100384+1059810098+1059733271+1059563359+1058995922
3538+1058309004+1057969817+1058038930+1058286944+1058616122+1058983935
3530+1059191209+1059089134+1058841120+1058690207+1058674523+1058768437
3521+1058976540+1059151042+1059097933+1058931463+1058958879+1059167428
3513+1059180307+1058770668+1058157773+1057771916+1057798885+1057993088
3504+1057972814+1057707840+1057569296+1057667800+1057563558+1056941354
3496+1056167599+1055871002+1056165304+1056641441+1056943330+1057019010
3488+1056937464+1056762770+1056625310+1056697164+1057018500+1057455936
3479+1057836055+1058009665+1057866977+1057517589+1057324916+1057481311
3471+1057687629+1057500566+1056877724+1056212803+1055907343+1056028354
3462+1056317874+1056443029+1056241621+1055806671+1055399455+1055277297
3454+1055513899+1055976010+1056457693+1056779283+1056804531+1056517625
3445+1056088796+1055753689+1055623880+1055631658+1055596592+1055419475
3437+1055257787+1055393781+1055871767+1056425560+1056821809+1057042982
3428+1057061599+1056768700+1056250292+1055820251+1055659201+1055686425
3420+1055747250+1055691845+1055444914+1055206272+1055307454+1055741129
3411+1056146942+1056271969+1056117550+1055728505+1055175987+1054703484
3403+1054652670+1055122304+1055722321+1055875465+1055531623+1055325306
3394+1055751075+1056463559+1056738543+1056431043+1056075407+1056069605
3386+1056195015+1056124882+1056027716+1056258389+1056747214+1057101766
3377+1057108524+1056870073+1056590818+1056378571+1056193803+1055946873
3369+1055608642+1055239107+1054980062+1054960170+1055125045+1055328430
3360+1055569623+1055842757+1055895357+1055568347+1055209396+1055290558
3352+1055733733+1056009099+1055842502+1055554130+1055616101+1056077893
3343+1056577365+1056761240+1056515457+1055941453+1055277233+1054803902
3335+1054802371+1055486037+1056676699+1057641533+1057680552+1056869946
3326+1055911487+1055384536+1055376949+1055628980+1055798893+1055696371
3318+1055407170+1055245737+1055535895+1056261449+1056919549+1056972021
3309+1056469488+1055978113+1055876357+1056002660+1056044548+1055963258
3301+1055871639+1055738005+1055503507+1055315169+1055338312+1055480873
3292+1055569049+1055642561+1055807500+1055949168+1055867049+1055655057
3284+1055703193+1056237413+1056992678+1057497442+1057640959+1057737997
3275+1057963059+1058036061+1057705417+1057237951+1057072757+1057256313
3267+1057514401+1057629355+1057512744+1057143654+1056632260+1056219752
3258+1056129983+1056384755+1056713040+1056781451+1056592986+1056435187
3250+1056433402+1056458777+1056393108+1056207447+1055939477+1055779319
3241+1055911742+1056169384+1056154784+1055800742+1055537680+1055772880
3233+1056400567+1056967111+1057196254+1057194915+1057179613+1057159913
3224+1056975910+1056595281+1056250802+1056187683+1056385265+1056667454
3216+1056913683+1057001668+1056829460+1056544084+1056439204+1056535987
3207+1056569778+1056399292+1056132342+1055869727+1055592001+1055323840
3199+1055223295+1055398371+1055709123+1055881267+1055820953+1055739025
3190+1055924494+1056395403+1056826974+1056904375+1056679504+1056450298
3182+1056378188+1056422946+1056542554+1056719607+1056840936+1056752314
3173+1056443348+1056055259+1055684130+1055301971+1054951818+1054894691
3165+1055348067+1056097275+1056555241+1056297791+1055467930+1054602557
3156+1054132094+1054131011+1054460953+1054985099+1055581226+1056100399
3148+1056426962+1056551416+1056530886+1056438503+1056390366+1056519346
3139+1056809951+1057021305+1056907881+1056527826+1056251376+1056388645
3131+1056803447+1056990510+1056595791+1055791561+1055047453+1054628315
3122+1054480335+1054508834+1054689968+1054916560+1055000783+1054921278
3114+1054850380+1054872950+1054869125+1054748943+1054624171+1054676770
3105+1054940469+1055250647+1055394291+1055314595+1055115163+1054815123
3097+1054202036+1053019153+1051248877+1049150572+1047033713+1045049405
3088+1043181709+1041371776+1039617886+1037998204+1036615698+1035498612
3080+1034598364+1033877719+1033263485+1032522756+1031377873+1029757681
3071+1027800533+1025685970+1023575678+1021623568+1019947525+1018639550
3063+1017793496+1017424980+1017366133+1017351469+1017236260+1017053851
3054+1016858819+1016651736+1016416345+1016040179+1015352050+1014540743
3046+1014321929+1015298303+1017304416+1019630907+1021686368+1023267923
3037+1024448702+1025420805+1026350062+1027250821+1027999009+1028441291
3029+1028455445+1028011824+1027285313+1026594889+1026112631+1025815014
3020+1025800350+1026300268+1027263445+1028346548+1029412373+1030617379
3012+1031980376+1033310346+1034545318+1035816505+1037184602+1038519545
3003+1039622859+1040423646+1041080789+1041843514+1042742360+1043483534
2995+1043781343+1043748763+1043784085+1044112369+1044627334+1045076183
2986+1045181000+1044768811+1044037837+1043519748+1043569670+1044037263
2978+1044481139+1044565490+1044276926+1043848734+1043466447+1043104563
2969+1042685233+1042233707+1041801944+1041396705+1040993697+1040537261
2961+1040016877+1039607494+1039538509+1039728887+1039773517+1039410803
2952+1038769217+1038051250+1037276539+1036491372+1035924764+1035772321
2944+1035993940+1036346580+1036486845+1036152058+1035351206+1034284170
2935+1033114995+1031927139+1030770460+1029673585+1028731321+1028101849
2927+1027818513+1027754564+1027773819+1027751122+1027622332+1027596511
2918+1028001559+1028795716+1029586939+1030186446+1030821848+1031802940
2910+1033156118+1034557687+1035606234+1036226526+1036698582+1037278643
2901+1037957973+1038566151+1038963357+1039215516+1039644026+1040531396
2893+1041749090+1042878799+1043654339+1044093306+1044303385+1044376259
2884+1044364528+1044228024+1043931427+1043617233+1043462048+1043365775
2876+1043068859+1042601712+1042338332+1042516022+1042893974+1043024867
2867+1042783865+1042446974+1042253152+1042113397+1041833823+1041397151
2859+1040866949+1040208403+1039395948+1038595479+1038063300+1037910666
2850+1038085232+1038529236+1039210224+1039995391+1040639783+1040946390
2842+1040927900+1040839151+1041010784+1041543729+1042202402+1042731967
2833+1043168702+1043665815+1044153365+1044419359+1044420825+1044289869
2825+1044102997+1043873918+1043739072+1043932893+1044511169+1045170288
2816+1045432648+1045067193+1044324616+1043701647+1043500047+1043677929
2808+1044045679+1044473616+1044940700+1045452604+1045909295+1046121925
2799+1046047520+1045898393+1045884558+1045944362+1045889913+1045745568
2791+1045738554+1045942130+1046145260+1046204363+1046281572+1046555982
2782+1046941011+1047298623+1047652411+1048003903+1048234002+1048339137
2774+1048476724+1048651737+1048636436+1048308789+1047867080+1047586422
2765+1047504750+1047456804+1047313032+1047069672+1046805336+1046671446
2757+1046816493+1047191257+1047535162+1047669880+1047658978+1047609375
2748+1047512847+1047379340+1047329800+1047455784+1047713490+1047995678
2740+1048216022+1048335694+1048383448+1048418578+1048448289+1048440319
2731+1048378347+1048238465+1047992554+1047732426+1047648266+1047775270
2723+1047895197+1047823726+1047672175+1047699463+1047968454+1048288641
2714+1048464419+1048495533+1048505734+1048559226+1048610168+1048612846
2706+1048613292+1048684700+1048802331+1048841733+1048687314+1048304453
2697+1047762519+1047249467+1046999667+1047105312+1047389668+1047560154
2689+1047506662+1047385652+1047362317+1047360085+1047149560+1046636699
2680+1045987398+1045472815+1045220784+1045152819+1045166017+1045274276
2672+1045507563+1045814425+1046143538+1046472652+1046730995+1046859019
2663+1046919907+1046984875+1046977480+1046774477+1046401372+1046018511
2655+1045736960+1045521271+1045296974+1045095884+1045006561+1045056737
2646+1045275679+1045749202+1046437841+1047080575+1047436402+1047502582
2638+1047418295+1047312395+1047295563+1047465794+1047842470+1048336969
2629+1048847089+1049361480+1049876381+1050269315+1050429281+1050464156
2621+1050550037+1050674044+1050713191+1050630945+1050445731+1050200075
2612+1050058662+1050228830+1050710258+1051259333+1051611527+1051663999
2604+1051467308+1051126783+1050755590+1050515545+1050595942+1051035546
2595+1051585960+1051907168+1051931523+1051870635+1051824475+1051645637
2587+1051296440+1051076415+1051304919+1051921131+1052469440+1052424045
2578+1051643852+1050593519+1049948044+1049905837+1050057578+1049924326
2570+1049410381+1048693498+1047925928+1047246725+1046910726+1047074709
2561+1047493592+1047788149+1047965011+1048311148+1048883430+1049476179
2553+1049943007+1050239732+1050316368+1050188025+1049932933+1049562123
2544+1049095231+1048731944+1048694582+1048925637+1049136609+1049142092
2536+1049038678+1049119140+1049614404+1050386118+1050931431+1050935384
2527+1050696806+1050688326+1050897130+1050993403+1050893432+1050728365
2519+1050499223+1050175465+1049980751+1050242792+1050954447+1051655902
2510+1051878732+1051624852+1051220059+1050820494+1050374132+1049946577
2502+1049720623+1049730505+1049817342+1049766464+1049471206+1049122837
2493+1049169189+1049898122+1051078646+1052061205+1052279700+1051798398
2485+1051327808+1051499506+1052201725+1052809839+1052882968+1052463256
2476+1051901621+1051523032+1051360643+1051226371+1051049445+1050974148
2468+1051085532+1051230515+1051178617+1050926076+1050783515+1051061814
2459+1051704739+1052432334+1053167770+1054006493+1054832592+1055329641
2451+1055366493+1055121411+1054855608+1054732876+1054820032+1055097566
2442+1055436179+1055665768+1055727867+1055687445+1055536342+1055130528
2434+1054466946+1053883442+1053748278+1053975252+1054097666+1053913854
2425+1053823256+1054301879+1055202255+1055871129+1055901286+1055516768
2417+1055216027+1055202701+1055224124+1054954113+1054462929+1054132094
2408+1054122850+1054209687+1054205989+1054206244+1054287534+1054316480
2400+1054217082+1054138661+1054169073+1054124316+1053818091+1053372048
2391+1053057088+1052934101+1052847455+1052729696+1052700304+1052828201
2383+1052987784+1053064994+1053169492+1053486173+1053983923+1054420658
2374+1054601027+1054544666+1054462674+1054597903+1054941935+1055194413
2366+1055209141+1055255301+1055549157+1055897780+1056059212+1055982321
2357+1055603669+1054886467+1053953639+1052961963+1052133569+1051805475
2349+1052087919+1052631001+1052887686+1052712163+1052518661+1052613467
2340+1052915739+1053289291+1053550248+1053415594+1052819976+1052115398
2332+1051782523+1051944019+1052189356+1051996236+1051238804+1050193444
2323+1049290710+1048899561+1049012347+1049132146+1048807687+1048179426
2315+1047790253+1048029979+1048834847+1049775199+1050509105+1051156940
2306+1051995216+1052902031+1053516202+1053790038+1053973212+1054204140
2298+1054391522+1054342684+1053896959+1053053582+1051951033+1050733466
2289+1049615679+1048980787+1049121371+1049908642+1050873540+1051592527
2281+1051956388+1052126810+1052274790+1052429146+1052557999+1052639544
2272+1052636739+1052527969+1052364751+1052282250+1052476262+1053054921
2264+1053863295+1054576927+1054909611+1054701572+1054078411+1053515437
2255+1053354068+1053344441+1053000153+1052195030+1051234277+1050578919
2247+1050374960+1050070904+1048903896+1046892173+1044811656+1043278556
2238+1042432246+1042293319+1042811536+1043702029+1044637854+1045576675
2230+1046735331+1048225968+1049867646+1051500143+1053276476+1055280039
2221+1057039157+1057889292+1057809468+1057563303+1057835354+1058377543
2213+1058410442+1057873672+1057529129+1057658874+1057593460+1056850117
2204+1055878206+1055375355+1055456390+1055672463+1055622860+1055447719
2196+1055516258+1055712183+1055636185+1055456008+1055648809+1056044102
2187+1056085927+1055829305+1055826691+1056373279+1057392370+1058495876
2179+1058942302+1058246905+1056812182+1055359288+1054171432+1053457673
2170+1053670111+1054753597+1055623689+1055033937+1052884116+1050551440
2162+1050020854+1052486464+1057292081+1062272456+1065530118+1066618194
2153+1066074666+1064501782+1062232544+1059748445+1057857732+1057026915
2145+1056921334+1056980054+1056986812+1056791844+1056135338+1055276468
2136+1055258170+1056763217+1058938732+1060173322+1059914086+1058977687
2128+1058298293+1058137881+1058366385+1058729354+1058838633+1058437156
2119+1057609272+1056462220+1054946526+1053248104+1051974304+1051629761
2111+1052085942+1052749397+1053196525+1053581362+1054346955+1055516959
2102+1056457566+1056643609+1056538792+1057076901+1058063731+1058062520
2094+1056550077+1055048728+1055132059+1056394446+1057357942+1057438339
2085+1056969279+1056091091+1054718340+1053276667+1052643242+1053309693
2077+1054898517+1056524766+1057517972+1057825153+1057873799+1058117733
2068+1058556891+1058660433+1058009920+1057105783+1057055797+1058170397
2060+1059457650+1059968980+1059989893+1060139658+1060108863+1059501451
2051+1059093916+1059776052+1060758929+1060349418+1058480000+1057064277
2043+1057896050+1060936492+1064360815+1066207854+1066126564+1065216688
2034+1064307642+1063231169+1062004358+1061603518+1062764532+1064701532
2026+1065860251+1065779917+1065399543+1065533752+1065939246+1066091243
2017+1066063381+1066215377+1066439929+1066302469+1065946196+1066331096
2009+1067937517+1069548783+1069605590+1068618569+1068443938+1069385884
2000+1069664310+1067875609+1064827580+1062684900+1062476861+1062901673
1992+1061785926+1058998791+1056659930+1056099443+1056420396+1056202602
1983+1055241019+1054288809+1054222056+1055695479+1058487269+1061013447
1975+1061828388+1061448333+1061275106+1061303541+1060452960+1058895760
1966+1058241868+1059069625+1060208515+1060641680+1060431091+1060007745
1958+1059691255+1059751569+1060146352+1060328060+1059770314+1058517489
1949+1057050059+1055907216+1055499299+1055818211+1056107731+1055342265
1941+1053531376+1051815103+1051064747+1051164782+1051462590+1051494596
1932+1051215979+1050736909+1050146774+1049685238+1049801594+1050727345
1924+1052100670+1053326270+1054214150+1054823730+1055023736+1054766285
1915+1054318966+1053747895+1052821379+1051683636+1051062005+1051371290
1907+1052044118+1052267968+1051918835+1051405655+1050987219+1050635471
1898+1050358511+1050239732+1050221434+1050100869+1049724257+1049122136
1890+1048562159+1048369868+1048569427+1049041611+1049883331+1051152923
1881+1052484997+1053399208+1053788891+1053838749+1053736291+1053650347
1873+1053726090+1054008852+1054477530+1054977831+1055165786+1054939321
1864+1054603450+1054432964+1054442208+1054565642+1054776996+1054978978
1856+1055109871+1055318229+1055710653+1056099060+1056325079+1056586929
1847+1057132370+1057833951+1058348151+1058624792+1058868727+1059074215
1839+1059090601+1058922219+1058767799+1058824543+1059138992+1059592878
1830+1059955528+1060070163+1059945263+1059538685+1058811154+1058020950
1822+1057526005+1057387015+1057428011+1057481120+1057470855+1057381659
1813+1057268809+1057298329+1057609144+1058081264+1058438941+1058595337
1805+1058713733+1059027290+1059643565+1060403484+1060980230+1061243482
1796+1061306729+1061220083+1060868591+1060254229+1059652746+1059200454
1788+1058784440+1058314296+1057734044+1056968387+1056053155+1055161833
1779+1054353204+1053513014+1052657842+1052024863+1051842008+1052104113
1771+1052582545+1053128241+1053758351+1054485117+1055256321+1055971738
1762+1056481666+1056751485+1057046553+1057616157+1058341393+1058928467
1754+1059336830+1059696228+1059955081+1059933085+1059703752+1059449744
1745+1059127771+1058641816+1058071446+1057606084+1057344170+1057201673
1737+1056985473+1056483834+1055680496+1055013024+1054730198+1054664784
1728+1054726182+1054864726+1054902470+1054721464+1054542434+1054709222
1720+1055224124+1055585881+1055175413+1054311825+1053798773+1053756885
1711+1053935659+1054086763+1053977739+1053356045+1052230607+1051153688
1703+1050713446+1051110588+1052170293+1053416741+1054673200+1055965872
1694+1057063703+1057843578+1058405213+1058805097+1059107751+1059466066
1686+1059936847+1060396853+1060853098+1061442850+1062036491+1062445556
1677+1062624075+1062676547+1062812477+1063165946+1063618110+1063879514
1669+1063829720+1063768513+1063951942+1064381090+1064982445+1065638760
1660+1066240561+1066786385+1067337500+1067939238+1068524655+1068732247
1652+1068466827+1068255600+1068276959+1068496219+1068832027+1069174402
1643+1069478140+1069664310+1069582829+1069055240+1067695814+1064535382
1635+1058978516+1051930184+1043711019+1033861079+1022998678+1013824051
1626+1009141485+1009306041+1012605400+1016540671+1019667249+1022174173
1618+1024434548+1025946353+1025722056+1023315040+1018277602+1010019227
1609+999148792+988312085+980165922+974699719+969653802+963160283+955787747
1599+950305222+949692645+955193978+965427672+977140591+987294014+994442254
1589+998559359+1000278948+1000188605+998717349+996710280+995646686+996718058
1579+999875558+1004175009+1008342482+1011078931+1012214443+1012302172
1571+1011360992+1009354242+1007304519+1006515973+1007263970+1009117448
1562+1011424175+1013398601+1013219890+1008317107+999979737+989160244+975525372
1553+961053434+948745854+941261106+940638136+947081032+959235660+974919553
1543+991345833+1007330978+1021758987+1030684771+1034547167+1036087854
1534+1036306477+1035316076+1033599930+1031595156+1029328788+1027236157
1526+1026473623+1027977395+1032116369+1038349696+1044363508+1048654606
1517+1051809492+1054251639+1055687892+1056156569+1056089561+1055654101
1509+1054179020+1050063508+1043970892+1038902405+1034408368+1028602022
1500+1019674900+1005377146+983975146+958789106+936325679+917963356+901815311
1490+890085816+890605626+903956844+918785183+924404466+915525800+893524101
1480+868878529+855718200+861309494+882818670+910908265+934580588+945729895
1470+944680264+936295714+921486820+896838953+861726018+825210366+795970850
1460+772569622+746780569+709167851+666747476+637782688+620730315+608076981
1451+597480447+589748576+586301939+587815784+593860836+603670737+616515024
1441+631643212+649320275+671309223+697106500+720800500+739070248+754226936
1431+768498485+781870998+793641808+804218450+814498623+824600021+834147817
1421+843475142+853276180+862881167+870949929+877690315+883890998+889913417
1411+895956238+902183508+908674795+915562141+922812646+929859066+936246748
1401+942255714+948251100+954086902+959543924+964737120+969566646+973637464
1391+976978967+980039110+983095746+985950846+988263821+989920164+990770044
1381+990571186+989376062+987688861+986205428+985611596+986404732+988490669
1371+991271939+994239443+997058520+999440544+1001228927+1002420226+1003131562
1361+1003561284+1003701294+1003157894+1001324244+997699278+992312580+985712650
1351+978334376+970245913+961553799+952593651+943794170+935522150+927462378
1341+917605998+902390463+879681955+852119310+825589465+806139639+799168325
1332+807800954+830138460+859250845+886856844+906897634+916488912+915830685
1322+908121767+898088908+888859642+879392243+865234181+842457262+811954337
1312+781064026+759911953+755015864+765834146+785755582+806168457+820900332
1302+828379342+831137149+833495838+838881708+848354589+860749453+873676049
1292+884451868+890770565+891697974+888913708+886560311+888768406+896938414
1282+909329388+922862504+935241046+945684819+954248654+961082507+966349789
1272+970264339+972906363+974260625+974598409+974671092+975432478+977568145
1262+981207201+985941729+991087235+996043765+1000510896+1004400836+1007674246
1252+1010297207+1012266532+1013663638+1014757007+1015923823+1017262783
1244+1018365013+1018620615+1017594765+1014868836+1009639809+1000648994
1235+986315281+964724943+933876009+892937920+844150838+793635305+749739402
1225+719468234+705201275+704192003+711435304+723200631+738099995+755708329
1215+775087703+794714264+813261036+830163071+845569749+859856728+873152859
1205+885285490+896065517+905494726+913666647+920552080+925991632+929977590
1196+932916658+935489634+938204023+941158202+944172440+946947589+949093585
1186+950193010+949888889+947990334+944816959+941577149+940023201+941349792
1176+945393577+950903198+956472305+961272503+965164164+968323449+970756925
1166+972030406+971338707+967941099+961880872+954373745+946809109+938744363
1156+927679088+912196411+895316501+883590703+882335647+891859152+907967412
1146+925398182+940729755+952941700+962318181+969299887+974142037+977211807
1136+979243359+980980417+982517725+983301298+982935971+981656050+979357930
1126+973990997+962121172+942915471+921583795+907004299+904930285+914060410
1116+928516727+942926310+955053713+964925076+972713881+977981800+980602084
1106+981411606+981488752+981373925+981355946+981867978+982959689+983611540
1096+982021696+976671276+967360145+955900724+946002711+941585310+944248502
1086+952298520+962333546+971484966+978306897+982511413+984563495+985185635
1077+984674241+982840017+979969232+977487110+976983621+978559438+980633771
1067+981533063+981092438+980719205+982027753+985437985+990038943+994622558
1057+998608707+1002040617+1005071368+1007696306+1009881257+1011752587
1048+1013565644+1015482114+1017409487+1019079091+1020297359+1021151256
1040+1021917615+1022668990+1022918599+1021585887+1016903130+1006204201
1031+987251042+961968092+938540150+926697103+929245596+939512635+947743977
1021+948789783+943829172+937181234+932704603+932096489+935191060+940933586
1011+947494369+952173046+952879473+950359862+948191169+949910885+956191838
1001+964854497+973215266+980062253+985641243+990517184+994896331+998727869
992+1001969592+1004646109+1006740971+1008027141+1008027906+1006383550
983+1003470175+1000504393+998748717+998628854+999716484+1001366451+1003149159
973+1004870342+1006424290+1007643515+1008296641+1008141457+1006636091
965+1002798368+996445497+989985259+987643147+991703509+1000143592+1008827737
955+1015275414+1019545728+1022539054+1024755564+1026368998+1027514456
946+1028244537+1028372943+1027490674+1025274227+1021826570+1017713353
938+1013683594+1010116520+1006548808+1002077787+996340043+989624778+982280039
928+974880343+968585554+964374279+962531639+963578274+968323130+975878267
918+983015157+986953871+988115586+989281893+992653361+998272007+1004714456
908+1010579587+1015327695+1019159935+1022454002+1025345890+1027693549
899+1029344153+1030426682+1031348799+1032428460+1033573152+1034459310
891+1034980396+1035289298+1035474194+1035536165+1035671266+1036182151
882+1037076215+1038039646+1038826025+1039428974+1039879098+1040101483
874+1040048883+1039801952+1039432927+1038884617+1038041814+1036725296
866+1034593264+1031391325+1027431189+1023533216+1020403004+1018243939
857+1016909760+1016215383+1016133137+1016737744+1017870705+1018964392
849+1019382319+1018904269+1018008229+1017883712+1019716852+1023386958
840+1027369600+1030614702+1033849411+1038192535+1043206957+1047357343
832+1049986936+1051897668+1054050039+1056356447+1057958468+1058354399
823+1057879091+1057149393+1056464069+1055830899+1055080798+1053614388
815+1050577453+1046173759+1042629574+1042632506+1046536728+1052090086
806+1056944605+1060354073+1062623119+1064226989+1065579211+1066877238
798+1068068537+1069063911+1069664310+1069198566+1065104540+1054968076
789+1039602839+1024896021+1017804526+1019315821+1022798226+1020779425
781+1012993106+1006506792+1007548517+1014570645+1020481362+1020313234
772+1015223835+1010339669+1010489179+1017300718+1028254865+1037513269
764+1039123259+1031867972+1020709356+1010927381+1000893310+982718113+949719869
754+902400473+848225864+795250014+744717840+691735040+634249341+577978914
744+531639143+501875034+493493672+508927160+545403824+595674531+651758150
734+706181666+751058534+779608965+790268108+787203248+773987513+748379275
724+707622446+658967915+620955186+611209424+632671548+673431500+718238235
714+756356546+780443926+784978448+770998204+750771245+741867713+753775409
704+781800291+814287332+843070795+866202841+884290882+896612552+899718919
694+889476618+865212185+831752149+798058061+774608889+769478685+783467536
684+809685355+839295618+866710665+889757595+907681653+920561962+929597025
674+936562728+942831631+949190687+956389804+964635810+971861323+976415483
664+979658927+982790350+985760149+988361433+990942315+993895601+997129546
654+1000285643+1003160317+1005885863+1008723048+1011685196+1014575172
646+1017252964+1019207561+1018793715+1014191992+1006451005+1000526262
637+1001018465+1007317908+1014884138+1020554427+1024602612+1028437274
629+1032547175+1036522294+1039227056+1037237711+1023996538+995389236+958506535
619+930334055+923738653+936403973+955452321+969660624+975506117+976562889
609+979390064+987424652+998485847+1008163580+1013339753+1012416425+1005015007
599+992745298+979211353+968439232+963335933+965188137+973434399+985413503
589+997561372+1007683490+1015297092+1020073891+1020617228+1014001423+997458213
579+973420181+951659420+942388966+946889953+957527355+967372897+976168743
569+986997353+1000516570+1013334206+1020703108+1018843509+1005497774+982186253
560+957109620+941746232+940968525+947596635+949659300+943563561+938097804
550+944582015+964652451+989367709+1008860890+1020185465+1026554850+1032028831
540+1037927689+1042990948+1045300990+1042725209+1032124849+1011075998+982063011
530+953603943+935919037+935513607+951492313+975700958+999298557+1018019004
520+1030945345+1038409628+1041819286+1043254328+1044045233+1044264302
511+1043670980+1042558931+1041382997+1039962365+1037574157+1033440091
503+1026767479+1017256598+1006214403+996532781+991474239+992883460+999441947
493+1007306177+1012680825+1013268218+1008842465+1002405434+999535542+1003386718
483+1010458448+1015104036+1016912629+1019748284+1025751831+1033255834
475+1039772242+1044633327+1048631080+1052609578+1056941991+1061533513
466+1065644434+1068321206+1069405967+1069664310+1070556398+1071220363
458+1070809130+1068345625+1063303852+1055882797+1046482534+1033859867
449+1014777664+988348363+959992582+937720745+925487315+923464880+931153396
439+946644680+965338476+981182655+989397930+987679361+975737427+956949781
429+938070134+922385539+906498133+887454247+868957715+857549044+859831416
419+885001134+929291438+968968797+994121365+1009885401+1021788252+1032713326
409+1042947211+1051058690+1056517242+1060803113+1065074192+1068495773
401+1069664310+1069056898+1068696735+1070983314+1073741823+1072174932
392+1062238537+1041786260+1012834670+983538666+967262406+976246336+1006965587
382+1038172197+1056398017+1064006390+1066258286+1066183371+1066856645
374+1069664310
##END=
