##TITLE=2TMG4NMe2qu_CuBr2
##JCAMP-DX=5.0
##DATA TYPE=LINK
##BLOCKS=1


$$ === CHEMSPECTRA SPECTRUM ORIG ===
##TITLE=2TMG4NMe2qu_CuBr2
##JCAMP-DX=5.00
##DATA TYPE=INFRARED SPECTRUM
##DATA CLASS=XYDATA
##$CSCATEGORY=SPECTRUM
##ORIGIN=
##OWNER=
##XUNITS=1/CM
##YUNITS=TRANSMITTANCE
##XFACTOR=0.12501352010900002
##YFACTOR=0.004311067959932441
##FIRSTX=4000.433
##LASTX=249.7859
##MAXX=4000.433
##MAXY=137.9541747178381
##MINX=249.7859
##MINY=32.15625591313608
##NPOINTS=3890
##XYDATA= (X++(Y..Y))
3890B2851B2850B2840B2833B2826B2795B2810B2840B2842B2811B2807B2815B2807B2808
3876B2772B2755B2812B2856B2858B2844B2827B2813B2822B2812B2797B2820B2821
3863B2819B2811B2805B2834B2823B2823B2854B2831B2838B2847B2825B2808B2798
3850B2830B2862B2828B2818B2838B2836B2836B2865B2863B2880B2906B2874B2863
3837B2871B2883B2911B2900B2869B2857B2861B2903B2917B2884B2875B2898B2913
3824B2895B2862B2874B2850B2852B2941B2939B2903B2889B2882B2869B2879B2938
3811B2966B2906B2870B2861B2897B2928B2911B2940B2961B2913B2885B2882B2875
3798B2869B2865B2917B2931B2879B2853B2891B2932B3020B2989B2993B2979B2906
3785B2972B2979B2925B2890B2871B2875B2870B2848B2966B3022B2940B2912B2898
3772B2882B3013B2998B2938B2913B2873B2909B3046B2989B2926B2913B2900B2881
3759B2932B2952B2918B2892B2926B3070B2995B2917B2893B2924B3006B2964B2935
3746B3001B2996B2966B2936B2928B2959B2915B2903B3203B3064B3090B3030B2964
3733B2985B2979B2961B2946B2904B2915B3010B2966B2949B3001B2971B2971B3127
3720B3012B2980B3081B3016B2943B3015B3038B2993B2983B2957B2975B2989B2953
3707B2957B2958B2955B3093B3133B3009B2958B2934B3054B3157B3033B2992B2987
3694B2984B2979B2967B2925B2966B3117B3049B2990B2968B2953B3025B3209B3090
3681B3024B2981B3022B3072B3028B2998B2996B2998B2985B2997B3009B3015B2995
3668B2976B2995B3023B3020B2987B2979B2978B3023B3034B3007B2995B2983B2974
3655B3017B3037B3007B2954B3108B3132B3000B2956B3029B3135B3076B3033B2976
3642B2927B2978B3137B3049B2962B3083B3101B3011B2924B3000B3241B3046B3125
3629B3219B3035B2983B2971B3192B3570B3196B3045B3116B3089B3031B3130B3225
3616B3214B3212B3324B3122B3068B3189B3126B3061B3040B3038B3141B3159B3156
3603B3104B3114B3217B3113B3028B3089B3095B3045B3066B3084B3065B3047B3223
3590B3191B3085B3128B3112B3078B3077B3063B3061B3067B3064B3110B3088B3040
3577B3039B3057B3058B3048B3044B3090B3064B3021B3135B3096B3049B3190B3136
3564B3078B3060B3053B3055B3077B3065B3051B3077B3068B3041B3079B3211B3303
3551B3151B3056B3009B3119B3135B3146B3115B3063B3069B3070B3068B3063B3047
3538B3043B3054B3014B2945B2935B3159B3147B3039B3060B3101B3199B3270B3270
3525B3148B3163B3224B3087B3042B2987B2989B3044B3027B2989B3002B3007B2968
3512B2956B2946B2999B3056B3007B2945B2886B3045B3312B3143B3037B3038B3007
3499B2997B3005B3029B3009B3073B3067B3091B3036B2956B3033B2995B3021B3111
3486B2994B2951B3091B3015B3020B3030B2972B2967B3011B3017B2971B2980B2977
3473B2983B2958B2973B3039B3016B2982B3029B2995B2923B2902B3027B3003B3040
3460B3040B2943B2954B3006B2987B2922B2924B2944B2928B2926B2896B2871B2904
3447B2917B2886B2844B2867B2813B2868B2924B2936B3002B2895B2840B2829B2826
3434B2811B2862B2857B2840B2860B2847B2803B2800B2830B2871B2852B2795B2769
3421B2808B2850B2815B2834B2857B2822B2811B2786B2793B2779B2735B2738B2775
3408B2814B2853B2828B2756B2731B2736B2699B2671B2675B2714B2714B2688B2675
3395B2705B2752B2728B2685B2672B2657B2689B2709B2702B2685B2667B2660B2642
3382B2597B2563B2575B2582B2603B2579B2543B2559B2643B2658B2626B2610B2603
3369B2568B2555B2591B2588B2580B2571B2581B2616B2625B2579B2557B2566B2576
3356B2568B2596B2587B2553B2526B2539B2559B2541B2508B2518B2536B2552B2541
3343B2541B2548B2537B2549B2535B2497B2511B2523B2496B2496B2485B2514B2532
3330B2503B2501B2485B2479B2504B2521B2521B2512B2520B2506B2471B2459B2429
3317B2377B2431B2486B2461B2435B2442B2470B2495B2497B2503B2473B2464B2454
3304B2441B2447B2456B2452B2451B2470B2481B2458B2425B2412B2425B2442B2435
3291B2451B2423B2401B2430B2434B2432B2419B2455B2456B2427B2425B2423B2425
3278B2450B2455B2449B2455B2455B2457B2447B2443B2449B2449B2412B2410B2429
3265B2446B2482B2509B2509B2495B2484B2499B2502B2504B2497B2506B2526B2536
3252B2516B2531B2538B2533B2558B2578B2536B2534B2566B2553B2519B2514B2524
3239B2540B2581B2606B2603B2583B2583B2573B2576B2586B2601B2596B2578B2617
3226B2644B2599B2598B2639B2641B2646B2651B2643B2646B2623B2608B2625B2638
3213B2646B2654B2676B2686B2663B2637B2635B2652B2681B2668B2654B2684B2706
3200B2722B2706B2695B2696B2691B2707B2687B2647B2651B2700B2726B2725B2733
3187B2737B2725B2748B2757B2744B2738B2722B2712B2734B2756B2776B2780B2799
3174B2816B2809B2817B2808B2823B2838B2852B2909B2899B2863B2878B2876B2854
3161B2864B2886B2884B2892B2906B2907B2925B2900B2887B2885B2888B2907B2932
3148B2940B2935B2941B2957B2944B2942B2942B2953B2976B2991B2983B2942B2958
3135B3007B3040B3043B2991B2962B2991B3005B3024B3050B3067B3030B3004B3046
3122B3051B3043B3044B3062B3067B3056B3049B3043B3055B3093B3112B3079B3048
3109B3049B3065B3054B3046B3040B3039B3068B3078B3074B3085B3087B3049B3054
3096B3081B3084B3072B3082B3074B3068B3088B3094B3096B3087B3060B3069B3100
3083B3117B3109B3065B3061B3070B3065B3093B3107B3073B3076B3091B3086B3067
3070B3106B3111B3100B3124B3129B3136B3169B3148B3143B3171B3178B3152B3144
3057B3124B3141B3141B3128B3155B3173B3154B3142B3139B3158B3183B3184B3192
3044B3197B3204B3213B3193B3177B3171B3161B3172B3172B3194B3210B3218B3222
3031B3218B3213B3204B3178B3185B3193B3197B3219B3260B3246B3198B3191B3206
3018B3213B3250B3259B3236B3205B3186B3171B3150B3178B3255B3287B3277B3257
3005B3254B3251B3265B3269B3252B3232B3219B3207B3215B3218B3228B3252B3258
2992B3262B3270B3293B3297B3240B3210B3227B3221B3195B3223B3228B3223B3240
2979B3235B3198B3172B3160B3166B3171B3176B3171B3185B3196B3183B3194B3191
2966B3157B3147B3151B3154B3161B3151B3156B3164B3148B3099B3054B3036B3064
2953B3055B3045B3031B3006B2982B2976B2947B2924B2922B2880B2872B2900B2895
2940B2860B2820B2787B2756B2726B2704B2716B2726B2733B2732B2738B2753B2755
2927B2743B2749B2761B2765B2753B2757B2764B2738B2735B2766B2789B2774B2744
2914B2756B2750B2734B2762B2792B2797B2830B2841B2816B2840B2874B2908B2927
2901B2920B2909B2913B2913B2947B2975B2958B2979B3010B3016B3012B2970B2939
2888B2938B2940B2966B2964B2934B2950B2960B2966B2953B2919B2909B2925B2920
2875B2927B2900B2853B2824B2807B2782B2757B2757B2762B2758B2752B2705B2688
2862B2704B2717B2718B2718B2702B2671B2660B2670B2691B2719B2682B2628B2635
2849B2682B2702B2687B2680B2693B2701B2712B2707B2709B2732B2765B2780B2776
2836B2775B2757B2723B2710B2680B2662B2666B2668B2638B2583B2565B2538B2489
2823B2459B2441B2430B2391B2356B2323B2289B2253B2206B2173B2135B2101B2089
2810B2059B2001B1953B1933B1908B1857B1807B1775B1758B1733B1711B1674B1633
2797B1611B1604B1585B1586B1591B1581B1568B1549B1539B1555B1556B1531B1535
2784B1554B1565B1573B1568B1578B1605B1642B1662B1648B1639B1651B1687B1695
2771B1684B1693B1674B1651B1637B1629B1629B1598B1575B1583B1595B1589B1570
2758B1548B1535B1542B1539B1526B1549B1571B1572B1560B1551B1578B1604B1607
2745B1601B1603B1606B1601B1609B1626B1617B1593B1578B1578B1550B1529B1506
2732B1492B1487B1467B1447B1446B1432B1427B1399B1382B1376B1353B1340B1345
2719B1352B1361B1348B1353B1383B1391B1406B1440B1479B1533B1576B1585B1610
2706B1654B1694B1771B1841B1863B1896B1934B1971B2030B2074B2104B2140B2214
2693B2273B2312B2355B2400B2432B2448B2468B2478B2495B2540B2583B2587B2611
2680B2652B2634B2645B2696B2715B2707B2705B2722B2727B2726B2725B2717B2706
2667B2685B2658B2644B2651B2671B2656B2626B2607B2583B2557B2541B2516B2473
2654B2440B2433B2435B2436B2440B2438B2424B2402B2404B2410B2372B2359B2380
2641B2386B2389B2416B2444B2460B2476B2510B2520B2564B2612B2659B2706B2715
2628B2740B2778B2805B2851B2877B2884B2900B2934B2935B2946B2993B3007B3004
2615B3021B3045B3070B3073B3068B3074B3083B3079B3086B3087B3085B3097B3119
2602B3126B3097B3095B3111B3125B3131B3117B3114B3131B3142B3135B3134B3135
2589B3147B3153B3156B3152B3145B3153B3166B3164B3148B3132B3136B3137B3134
2576B3148B3146B3132B3137B3146B3156B3152B3153B3159B3173B3164B3164B3171
2563B3171B3175B3202B3219B3215B3214B3212B3208B3202B3188B3187B3194B3198
2550B3196B3186B3203B3206B3194B3197B3196B3185B3177B3192B3199B3194B3190
2537B3188B3196B3210B3217B3207B3206B3194B3179B3171B3178B3186B3174B3179
2524B3173B3155B3145B3140B3128B3125B3128B3124B3107B3093B3083B3057B3052
2511B3063B3080B3086B3087B3082B3083B3079B3095B3116B3128B3138B3144B3155
2498B3159B3165B3158B3142B3147B3165B3159B3158B3168B3172B3158B3144B3147
2485B3149B3132B3134B3144B3130B3149B3169B3147B3150B3182B3176B3169B3181
2472B3191B3189B3192B3191B3186B3186B3181B3162B3144B3139B3139B3140B3167
2459B3201B3201B3169B3157B3177B3171B3150B3151B3169B3188B3194B3180B3185
2446B3193B3185B3175B3166B3181B3191B3191B3220B3233B3226B3207B3196B3190
2433B3191B3196B3201B3208B3222B3200B3219B3228B3198B3191B3223B3214B3198
2420B3167B3148B3154B3165B3184B3191B3162B3187B3240B3213B3155B3143B3159
2407B3189B3182B3145B3139B3162B3184B3174B3172B3173B3164B3152B3135B3131
2394B3126B3148B3147B3111B3116B3134B3153B3157B3165B3178B3178B3178B3209
2381B3212B3147B3156B3186B3188B3212B3226B3182B3180B3235B3221B3181B3188
2368B3208B3186B3207B3230B3212B3207B3193B3183B3167B3168B3174B3168B3163
2355B3146B3157B3186B3195B3161B3161B3136B3102B3141B3192B3215B3206B3197
2342B3220B3231B3182B3174B3199B3173B3172B3181B3167B3180B3194B3195B3196
2329B3187B3172B3160B3145B3139B3145B3185B3204B3189B3194B3193B3192B3181
2316B3200B3216B3197B3178B3188B3181B3177B3170B3160B3176B3223B3251B3200
2303B3146B3174B3217B3208B3189B3176B3187B3204B3206B3173B3149B3151B3142
2290B3130B3149B3140B3115B3126B3134B3150B3152B3169B3168B3170B3171B3163
2277B3165B3189B3185B3160B3174B3174B3160B3189B3201B3188B3160B3167B3181
2264B3150B3139B3158B3186B3183B3144B3146B3166B3185B3153B3151B3187B3154
2251B3130B3151B3192B3168B3124B3171B3216B3207B3205B3194B3181B3182B3177
2238B3177B3183B3209B3202B3170B3168B3170B3146B3152B3161B3157B3147B3137
2225B3134B3141B3134B3123B3109B3112B3120B3135B3103B3111B3138B3141B3128
2212B3116B3124B3137B3127B3133B3145B3156B3173B3157B3105B3079B3098B3091
2199B3088B3118B3085B3064B3109B3106B3111B3121B3121B3148B3141B3108B3074
2186B3106B3146B3130B3114B3095B3086B3120B3153B3137B3084B3059B3075B3108
2173B3109B3097B3059B3005B3027B3041B3037B3018B3030B3055B3068B3071B3059
2160B3078B3092B3109B3090B3074B3070B3046B3016B3032B3032B3059B3048B3041
2147B3017B3054B3051B3082B3057B3063B3033B3083B3048B3071B3052B3064B3057
2134B3061B3028B3011B3049B3063B3045B3016B3039B3031B2999B2971B2990B3029
2121B3029B3010B3002B3010B3015B3013B3005B3003B3008B2998B2970B2982B2991
2108B2983B2978B3010B3021B2998B2978B2997B2995B2972B2968B2979B3002B2995
2095B2946B2938B2926B2934B2951B2953B2966B2908B2896B2970B2960B2915B2896
2082B2872B2913B2896B2840B2850B2808B2739B2685B2622B2430B2300B2341B2374
2069B2385B2452B2573B2723B2837B2843B2812B2799B2884B2946B2956B2900B2927
2056B3032B3101B3104B3071B3058B3034B2980B3021B3033B2979B3010B3095B3101
2043B3053B3075B3047B3012B2998B3092B3130B2993B3008B3068B3035B3071B3071
2030B3065B3099B3026B2911B2851B2818B2894B3043B3190B3169B3047B2982B3038
2017B3008B2919B2893B3025B3096B3080B3012B2893B2828B2878B2822B2903B3111
2004B3256B3128B3079B3050B2945B3052B3140B3059B3044B3073B3092B3035B2975
1991B2997B3079B2955B2882B2990B2886B2708B2813B2864B2746B2943B3288B3484
1978B3324B3285B3309B3230B3223B3171B3105B3076B3039B3045B3097B3016B2887
1965B2886B2972B3068B3113B3140B3223B3224B3187B3156B3141B3059B3031B3067
1952B3093B3043B3048B3110B3063B2956B2909B2953B2966B2931B2923B2917B2956
1939B2959B2975B3000B2985B2967B2975B2985B2976B2906B2940B3013B2983B2918
1926B2991B3014B2991B2990B3007B3013B3001B2991B2987B2992B3054B3045B2909
1913B2938B2990B3017B3010B2999B3008B3011B3003B2977B2984B3006B3007B2985
1900B2969B2921B2866B2895B2993B2968B2911B2919B2941B2949B2967B3033B3030
1887B2953B2912B2842B2825B2900B2959B2905B2924B2953B2964B2987B2954B2954
1874B2964B2893B2839B2833B2853B2856B2771B2849B3057B3128B3044B2993B2978
1861B2988B2912B2949B2982B2946B3032B2988B2837B2917B2945B2874B2946B2880
1848B2930B3037B3010B3023B3042B3024B3051B3072B3162B3178B2989B2876B3061
1835B3117B2971B3017B2992B2929B2989B3010B2985B2897B2898B2933B2866B2876
1822B3054B2954B2870B2861B2843B2984B2961B2915B3051B3021B2961B2996B2936
1809B2880B2878B2907B2997B2971B2897B2909B2942B2881B2877B3004B3083B3007
1796B2940B2867B2792B2910B3049B3025B2930B2989B3002B3090B3222B3212B3159
1783B3165B3128B3015B3014B3202B3233B3144B3225B3143B2972B3006B2984B2971
1770B3048B3079B2960B2906B2991B2959B2889B2904B2951B2933B2829B2806B2784
1757B2830B2950B2914B2889B2927B2947B2938B2932B2945B2997B2969B2954B2967
1744B2990B2953B2981B2998B3003B3053B3036B2965B2974B2978B3038B3120B3043
1731B3007B3093B3041B2994B2999B3016B3028B3033B3001B2984B2995B3017B3007
1718B2998B3020B3039B3070B3031B3019B3051B3070B3051B3004B3005B3035B3051
1705B3050B3057B3050B3048B3076B3077B3080B3088B3072B3071B3070B3074B3094
1692B3100B3073B3067B3050B3053B3055B3058B3088B3118B3104B3056B3042B3106
1679B3120B3094B3089B3123B3121B3099B3091B3122B3126B3136B3151B3150B3145
1666B3170B3155B3131B3112B3091B3066B3050B3058B3093B3112B3077B3038B3114
1653B3124B3106B3114B3113B3107B3097B3111B3128B3123B3134B3141B3130B3105
1640B3077B3117B3142B3136B3123B3115B3170B3149B3137B3143B3132B3133B3141
1627B3135B3144B3142B3136B3129B3158B3160B3152B3175B3175B3170B3171B3161
1614B3166B3170B3152B3146B3166B3141B3142B3168B3136B3108B3129B3121B3024
1601B3066B3152B3158B3165B3126B3118B3091B3071B3076B3102B3087B3081B3067
1588B3085B3080B3073B3070B3061B3070B3061B3005B3012B3069B3084B3046B3021
1575B3069B3054B3028B3025B3010B2967B2967B3019B2980B2961B2940B2934B2964
1562B2945B2921B2901B2866B2902B2933B2876B2876B2887B2887B2888B2875B2862
1549B2903B2889B2841B2870B2906B2875B2871B2835B2808B2931B2968B2923B2884
1536B2877B2913B2890B2878B2874B2871B2857B2876B2895B2895B2893B2869B2834
1523B2929B2971B2927B2948B2989B3002B3008B3010B3026B3039B3021B3007B3040
1510B3043B3077B3075B3028B2972B3110B3189B3090B3040B3020B3189B3174B3134
1497B3123B3112B3106B3119B3120B3134B3105B3049B3001B3095B3161B3130B3090
1484B3116B3130B3118B3100B3047B3108B3145B3095B3061B3065B3040B3026B3088
1471B3061B3045B3030B3011B2975B3013B3025B3002B2988B2996B2985B2969B2944
1458B2902B2827B2931B3057B2988B2963B2931B2904B2927B2959B3004B2967B2956
1445B2948B2944B2927B2910B2867B2848B2816B2808B2892B2841B2812B2802B2801
1432B2772B2726B2702B2703B2666B2609B2543B2575B2615B2582B2560B2548B2479
1419B2401B2561B2559B2513B2494B2484B2473B2431B2385B2354B2275B2201B2084
1406B1930B1697B1449B1152B0823B0535B0399B0272B0171B0088B0014A9975A9923
1393A9804A9597A9404A9023A8591A8108A7611A7144A6831A6751A6875A7084A7252
1380A7304A7214A6923A6626A6078A5702A5289A4835A4409A4098A3784A3438A3251
1367A3061A2929A2875A2895A3033A3201A3389A3553A4008A4429A5386A5784A6104
1354A6611A7322A7645A7960A8229A8652A8951A9129A9273A9291A9499A9624A9628
1341A9690A9678A9528A9503A9556A9431A9224A8972A8656A8205A7820A7428A7048
1328A6593A6096A5583A5112A4640A4128A3746A3309A2776A2147A1620A1183A0732
1315I952I420H946H465H117G780G555G495G459G530G569H043H825I443A0026A0684
1299A1454A2194A2806A3630A4218A4671A5414A5852A6277A6683A6969A7235A7578
1286A7949A8161A8413A8633A8788A8981A9064A9038A8981A8914A8816A8631A8382
1273A8057A7620A7275A6741A6159A5418A4810A4164A3492A2887A2465A2248A2327
1260A2572A2872A3224A3587A3846A4065A4209A4344A4473A4487A4518A4572A4642
1247A4756A4886A5046A5246A5605A5933A6225A6515A6763A6984A7211A7442A7661
1234A7886A8091A8488A9230A9606B0001B0413B0726B0856B0939B0951B0763B0332
1221A9700A8866A7962A6877A6074A5282A4677A3994A3390A3343A3562A3725A3667
1208A3422A3173A3138A3311A3513A3550A3447A3050A2516A1596A0560I779I075
1195H611H343H221H220H324H430H627H939I341I677A0047A0352A0586A0707A0748
1180A0599A0421A0207A0055I961A0018A0186A0465A0761A1086A1384A1666A1903
1167A2168A2480A2853A3259A3722A4154A4605A5036A5442A5789A6131A6464A6875
1154A7182A7502A7783A8019A8232A8469A8544A8614A8672A8713A8699A8677A8649
1141A8653A8703A8786A8927A9068A9198A9399A9579A9789A9876A9944A9959A9896
1128A9734A9497A9091A8629A8056A7369A6580A5713A4851A4066A3350A2812A2432
1115A2212A2140A2207A2405A2735A3187A3749A4334A4989A5622A6239A6807A7358
1102A7853A8124A8476A8791A9057A9275A9406A9459A9387A9195A8863A8417A7831
1089A7084A6320A5667A5223A5096A5290A5745A6334A6958A7556A8113A8609A9053
1076A9432A9755B0007B0196B0300B0330B0276B0118A9852A9544A9220A8940A8763
1063A8755A8935A9281A9698B0121B0533B0898B1212B1476B1682B1866B2030B2173
1050B2281B2385B2494B2590B2678B2762B2831B2892B2950B3016B3074B3122B3158
1037B3174B3172B3170B3139B3082B2995B2893B2743B2537B2248B1896B1477B0995
1024B0464A9918A9396A8959A8641A8468A8391A8394A8462A8580A8734A8910A9070
1011A9267A9492A9750B0042B0338B0603B0842B1016B1100B1105B1030B0848B0560
998B0186A9740A9278A8881A8573A8420A8470A8718A9133A9639B0130B0548B0878
985B1108B1262B1361B1381B1358B1279B1188B1098B1028B0965B0917B0876B0846
972B0838B0839B0825B0827B0795B0701B0522B0273A9980A9727A9552A9408A9262
959A9104A8871A8515A8063A7586A7083A6662A6479A6613A7019A7590A8208A8829
946A9339A9713A9970B0080B0040A9902A9689A9436A9149A8837A8483A8121A7773
933A7413A7035A6716A6515A6527A6771A7149A7557A7935A8240A8438A8541A8571
920A8538A8464A8365A8306A8296A8334A8444A8621A8844A9110A9408A9711A9969
907B0207B0433B0634B0790B0908B0984B0997B0979B0978B1008B1070B1106B1165
894B1252B1358B1478B1547B1537B1561B1563B1515B1471B1436B1394B1385B1374
881B1341B1263B1184B1087B0970B0884B0847B0827B0820B0756B0626B0487B0347
868B0183B0059A9959A9848A9747A9636A9508A9401A9324A9286A9299A9373A9473
855A9587A9682A9737A9728A9670A9598A9568A9613A9686A9699A9702A9737A9759
842A9699A9573A9470A9491A9637A9858B0141B0433B0649B0786B0825B0746B0552
829B0218A9789A9406A9189A9197A9369A9604A9847B0119B0367B0624B0912B1213
816B1512B1788B2002B2145B2266B2380B2464B2540B2580B2615B2622B2670B2742
803B2800B2841B2885B2911B2952B3004B3036B3045B3052B3072B3101B3119B3146
790B3184B3185B3185B3206B3210B3213B3191B3165B3169B3159B3117B3053B2990
777B2912B2809B2672B2483B2254B1975B1640B1233B0715B0017A9117A8059A6963
764A5910A4931A4038A3276A2739A2537A2697A3188A3771A4251A4548A4660A4672
751A4658A4729A4971A5336A5736A6180A6731A7331A7929A8519A9062A9481A9835
738B0155B0437B0696B0895B1059B1227B1383B1490B1591B1697B1792B1873B1932
725B2011B2085B2152B2234B2320B2377B2414B2450B2478B2483B2485B2480B2449
712B2399B2333B2221B2036B1733B1306B0788B0243A9749A9453A9405A9556A9866
699B0239B0578B0902B1207B1449B1643B1860B2072B2250B2355B2431B2514B2573
686B2587B2596B2542B2399B2218B2065B1961B1939B1977B2051B2149B2281B2407
673B2495B2576B2643B2711B2753B2764B2792B2838B2890B2929B2975B3006B3057
660B3114B3137B3154B3155B3130B3116B3124B3162B3186B3201B3197B3190B3183
647B3138B3080B3040B2954B2818B2683B2530B2323B2067B1753B1376B0973B0564
634B0216A9987A9782A9535A9139A8576A7993A7539A7326A7430A7718A8094A8464
621A8833A9175A9461A9729B0019B0304B0634B0961B1246B1484B1693B1873B2015
608B2136B2245B2303B2352B2369B2299B2155B1916B1554B0968B0060A8894A7773
595A7037A6785A6829A7000A7284A7624A7767A7567A7095A6517A5951A5515A5406
582A5797A6461A6933A7217A7819A8725A9475B0010B0287B0233A9864A9325A8829
569A8613A8771A9298A9952B0554B1073B1499B1834B2122B2322B2487B2632B2682
556B2699B2756B2787B2753B2644B2412B1989B1434B0852B0331A9931A9761A9782
543A9808A9724A9423A8954A8481A8136A7982A7908A7784A7600A7384A7186A7128
530A7202A7431A7804A8246A8710A9107A9458A9835B0180B0416B0550B0644B0627
517B0470B0212A9933A9780A9828B0077B0501B0989B1465B1838B2077B2269B2452
504B2554B2560B2505B2343B1954B1349B0577A9815A9245A9134A9541B0159B0777
491B1315B1742B2083B2328B2451B2586B2682B2720B2742B2627B2448B2273B2072
478B1658B1040B0601B0563B0734B0912B1078B1233B1373B1566B1823B2050B2233
465B2393B2535B2694B2730B2852B2965B3051B3057B3060B3084B3097B3069B3014
452B2974B2929B2902B2812B2735B2644B2507B2366B2252B2143B2089B2156B2287
439B2454B2573B2670B2761B2839B3010B3052B3121B3126B3094B3113B3134B3129
426B3132B3151B3158B3188B3188B3177B3179B3206B3208B3209B3202B3200B3206
413B3214B3194B3210B3215B3187B3230B3252B3240B3291B3262B3201B3150B3133
400B3194B3277B3236B3164B3141B3139B3112B3082B3066B3049B3012B2998B2986
387B2969B2925B2891B2806B2632B2458B2262B2014B1842B1842B1929B2045B2243
374B2417B2475B2491B2468B2379B2266B2114B1900B1694B1640B1696B1828B1990
361B2183B2368B2431B2459B2520B2473B2441B2398B2269B2104B1855B1525B1072
348B0628B0359B0349B0490B0622B0868B1208B1422B1431B1414B1262B0992B0490
335A9912A9660A9683A9830B0103B0538B0946B1205B1420B1564B1637B1616B1586
322B1608B1626B1600B1599B1537B1522B1479B1409B1322B1229B1156B1095B1001
309B0942B0886B0935B0995B1018B0915B0799B0675B0517B0340B0131A9722A9191
296A8813A8742A8901A9322A9807B0232B0561B0870B1122B1317B1384B1419B1495
283B1545B1524B1541B1516B1394B1419B1467B1320B1220B1000B0816B0821B1050
270B1072B1000B1105B1342B1612B1785B1858B1926B1937B1864B1837B1958B2053
257B2081B2141B2135B1981B1947B1967B2021B2137B2221B2244B2062B1982B2127
244B1932B1753B1776B1633B1347B1141B0983B0784B0714B0778B0571B0538B0478
231B0310B0132B0064A9999B0191B0329B0424B0488B0618B0832B1158B1433B1577
218B1489B1638B1838B1926B2114B2245B2204B2262B2198B2222B2334B2301B2311
205B2434B2565B2560B2381B2450B2677B2509B2412B2703B2765B2603B2648B2886
192B2832B2842B2754B2795B2896B2898B3039B3085B2773B2914B3011B3071B3111
179B3039B2858B2758B2378B2313B2727B2955B2813B2794B2859B2888B2955B2945
166B2866B3021B3072B2831B2704B2825B2857B2873B2759B2305B2120B1831B1029
153B1639B1648B1271B0935B0698B0715B0723B0487B0234B0213B0237A9719A9328
140A9931B0447B0700B0599B0247B0323B0352B0189A9771A9300B0304B1334B1363
127B1538B1764B2070B2030B2383B2551B2284B2328B2481B2462B2275B2238B2397
114B2198B1970B2259B2675B1891B1042B2067B1557B0834B2339B3358B3205B3138
101B3257B3047B3076B3079B2788B2786B2763B2407B2578B2771B2794B2687B2663
88B2396B2195B2222B2109B1945B2444B0528B0547B0833B0724A9218B0557B0545
75B1000B0204A9529A9464A9906B0004A9416A8508A8836A9682A9471A9652B0171
62B0112A9867A9693B0221B0762B0566C2000B1179A9170A9142A9009A8949A9535
49A9702A9953B0221B0481B0105A8700A6591A6857A9296A9261A9833A9808A9313
36A9922B1050A9035A7927B0885B1165A9941B0712B1174B0916B0302B0821B1234
23B0961B0959B0324B0212B1040B2443A9407A9294A9228A9252A9397A9782A9227
10A9092A9478A9920B1535B4687B9720B6655B2540B1359B0512
$$ === CHEMSPECTRA INTEGRALS AND MULTIPLETS ===
##$OBSERVEDINTEGRALS= (X Y Z)
##$OBSERVEDMULTIPLETS=
##$OBSERVEDMULTIPLETSPEAKS=
$$ === CHEMSPECTRA SIMULATION ===
##$CSSIMULATIONPEAKS=
##END=


$$ === CHEMSPECTRA PEAK TABLE EDIT ===
##TITLE=2TMG4NMe2qu_CuBr2
##JCAMP-DX=5.00
##DATA TYPE=INFRAREDPEAKTABLE
##DATA CLASS=PEAKTABLE
##$CSCATEGORY=EDIT_PEAK
##$CSTHRESHOLD=0.93
##MAXX=4000.433
##MAXY=137.9541747178381
##MINX=249.7859
##MINY=32.15625591313608
##$CSSOLVENTNAME=
##$CSSOLVENTVALUE=0
##$CSSOLVENTX=0
##NPOINTS=0
##PEAKTABLE= (XY..XY)
##END=


$$ === CHEMSPECTRA PEAK TABLE AUTO ===
##TITLE=2TMG4NMe2qu_CuBr2
##JCAMP-DX=5.00
##DATA TYPE=INFRAREDPEAKTABLE
##DATA CLASS=PEAKTABLE
##$CSCATEGORY=AUTO_PEAK
##$CSTHRESHOLD=0.93
##MAXX=4000.433
##MAXY=137.9541747178381
##MINX=249.7859
##MINY=32.15625591313608
##NPOINTS=100
##PEAKTABLE= (XY..XY)
368.4101204422727, 94.97282715731167
486.0699163281047, 94.76589589523492
357.801450321419, 94.71416307971573
492.8208882231934, 94.61500851663727
329.8331381846233, 94.60638638071741
903.6657492671638, 94.58051997295782
614.3383823347904, 94.16234638084437
499.5718601182821, 94.14079104104471
483.176642658781, 93.77866133241038
2921.241921342247, 93.48119764317505
600.836438544613, 93.29151065293802
2925.0996195680123, 93.28719958497808
2896.166882874775, 93.12337900250066
2893.273609205451, 93.12337900250066
560.3306071740803, 93.05871298310167
2944.3881106968374, 93.05440191514174
2913.526524890717, 93.01129123554242
2930.88616690666, 92.98111375982289
2900.0245811005398, 92.90782560450403
2938.6015633581897, 92.85609278898484
1107.159330676266, 92.84747065306497
2907.73997755207, 92.83884851714511
2935.708289688866, 92.82160424530538
2904.846703882746, 92.80004890550572
520.7892003599895, 92.79142676958585
459.0660287477499, 92.64053939098822
517.8959266906659, 92.23098793479464
2869.1629952944204, 92.03267880863774
2873.020693520185, 91.99819026495828
353.9437520956544, 90.71349201289841
397.34285713551026, 90.6574481294193
508.2516811262535, 90.53242715858126
1115.8391516842375, 90.43758366346275
545.864238827462, 90.04096541114896
1186.2421443044482, 89.8340341490722
351.0504784263303, 89.81678987723247
1184.3132951915659, 89.77799026559308
512.1093793520185, 89.73919065395368
476.4256707636923, 89.29946172204058
392.52073435330385, 89.23048463468166
303.7936751607094, 88.66142366397058
706.9231397531498, 88.64849046009078
322.1177417330932, 88.570891236812
327.90428907174055, 88.49760308149314
582.5123719722292, 87.72592191666524
273.896513911031, 87.52330172254841
379.98321511956783, 87.28619298475213
387.6986115710979, 87.13961667411442
268.10996657238366, 87.13530560615449
468.71027431216226, 86.21704813068888
277.754212136796, 85.9670061890128
744.5356974543583, 85.27292424746368
774.4328587040368, 85.19101395622496
306.6869488300331, 84.89786133494955
570.9392772949341, 84.75559609227179
1067.6179238621753, 84.358977839958
1539.221531961944, 84.07875842256239
311.5090716122395, 83.94080424784455
1058.9381028542039, 83.93649317988462
318.2600435073282, 83.91062677212503
925.8475140653122, 83.65627376248902
384.80533790177424, 83.32432152957422
284.5051840318847, 83.25965551017524
375.1610923373614, 83.2036116266961
1077.2621694265877, 83.14325667525705
287.3984577012084, 83.03547997625874
263.28784379017725, 82.89321473358098
324.0465908459755, 82.85010405398165
1045.4361590640265, 82.7250830831436
726.2116308819745, 82.48797434534733
258.46572100797084, 82.30690949103015
298.0071278220621, 81.69042677275982
1274.0047789406017, 80.85407958853293
533.3267195937256, 80.7980357050538
1350.19431889946, 80.39710638478009
797.5790480586265, 80.24190793822252
314.40234528156316, 79.78924580242962
1206.4950599897143, 79.40987182195556
1230.6056739007454, 79.28485085111753
1132.2343691437386, 78.87529939492394
280.6474858061197, 77.28451531770887
852.5512477757775, 74.69356347378947
760.9309149138594, 73.83997201772284
821.6896619696577, 72.36127570746602
1583.5850615582413, 72.21469939682832
290.29173137053203, 71.52492852323913
1145.736312933916, 71.19728735828426
1166.9536531756235, 71.0420889117267
811.0809918488039, 66.42062405867911
1295.2221191823091, 65.08419299110005
973.1043173309331, 63.191634156689716
1417.704037850347, 57.52257978937856
1411.9174905116997, 56.63881085759241
1565.2609949858575, 55.50499998413017
980.8197137824632, 54.04785901367301
1465.9252656724093, 52.801960373252534
1323.1904313191048, 52.33636503357983
1382.9847538184622, 42.94254794888705
1398.4155467215219, 35.43697863064467
1509.3243707122651, 32.15625591313608
##END=

##END=

