##TITLE=X9647
##JCAMP-DX=5.0
##DATA TYPE=LINK
##BLOCKS=1


$$ === CHEMSPECTRA SPECTRUM ORIG ===
##TITLE=X9647
##JCAMP-DX=5.00
##DATA TYPE=INFRARED SPECTRUM
##DATA CLASS=XYDATA
##ORIGIN=Default
##OWNER=
##XUNITS=1/CM
##YUNITS=TRANSMITTANCE
##XFACTOR=1
##YFACTOR=8.9915148e-010
##FIRSTX=3996.5625
##LASTX=399.65625
##MAXX=3996.5625
##MAXY=0.965456549288348
##MINX=399.65625
##MINY=0.20708303247300314
##NPOINTS=1765
##XYDATA= (X++(Y..Y))
1765A055205449A054596642A054375764A054519945A054611624A054572911A054487529
1758A054574236A054728161A054671815A054457566A054163703A053689598A052675363
1751A051200678A050702443A052396017A054642581A055144661A054607381A054467046
1744A054742347A055238726A056108516A056629753A056183025A055640774A054777614
1737A053555029A053395337A054191479A055115029A055925821A055934107A055478961
1730A055186622A054640858A054915762A056141727A055957242A054064997A052669794
1723A052451237A053169554A055940670A060488222A063517272A063018705A059778125
1716A055764471A053962845A055320727A056521236A056610065A058343877A059557910
1709A059668879A059824992A057863143A056822657A058635950A061921078A064881650
1702A063667882A061381876A061444453A060136156A057386982A057939442A064332836
1695A073741823A072270916A062079046A056237516A056189787A059554728A063960685
1688A068173340A069239679A065962109A062587158A060306124A058740025A058247823
1681A058013422A060012791A064756031A065721874A063735432A060365453A054486402
1674A051260339A053651017A057834837A058838532A060336352A061524399A058855436
1667A056152731A053204754A050206993A049125341A049387318A050145873A050851463
1660A051663315A053706568A054288527A051689698A050076004A051765335A055052982
1653A056404898A055599409A053798048A053033195A055445153A057638552A057949783
1646A061412303A069105376A072015436A067672255A065327980A062939091A057221722
1639A054867901A058664123A065302856A066589939A060176328A053202301A050478317
1632A051076053A052598334A052891932A050807248A048691871A050024828A055511111
1625A060156308A057624830A052327341A050084224A050722993A050555677A048778313
1618A047599745A048397478A052944765A060009940A061808584A055009761A048358698
1611A046627671A049737196A056072719A063091492A065123542A063108992A062443376
1604A058142753A050302980A045240754A043852445A044689487A047394379A049817076
1597A050943540A055727481A064013054A064677875A055565933A048478086A046697010
1590A046280643A045318313A045679924A047710052A051700106A057255662A056382492
1583A049628083A047169922A050435693A054844301A055653237A055329610A055902553
1576A055452378A053789099A050978739A047548768A045777437A046137523A046951231
1569A047270749A047504885A047550956A048193504A050536520A051188083A047863049
1562A044920772A044105606A044042034A043709524A043164223A043460141A045860630
1555A049703388A051390532A049102670A046163840A044307392A043246688A043519802
1548A044613452A044657005A044198478A044591643A044661844A043517681A042290456
1541A041745885A041667066A041955957A042757601A044173752A045548007A045448970
1534A044245013A043122195A042001896A041049642A040942120A041792685A042583921
1527A042219195A041162468A041074302A042542822A044181508A044238053A043109202
1520A042249091A041612311A040791112A040298909A040314819A040304743A040256351
1513A040457275A040404045A039823279A039699185A040001997A039346523A038279719
1506A037977438A038191421A038855315A039536774A039436544A039076723A039131014
1499A039219710A038819253A038372525A038924455A040133317A040621542A040094935
1492A038907418A037611120A037026509A037292332A038013234A038759194A038722934
1485A038089799A038203155A038984447A039089716A038328244A037892388A038395329
1478A038982459A039087395A038965753A038541763A037712146A036875567A036462846
1471A036352341A036578986A036991641A036970295A036765857A036378128A035783972
1464A035829712A036394037A036513426A035933323A035249675A034926048A035101783
1457A035710059A036281676A036432287A036147572A035687586A035449274A035610624
1450A035541682A034870829A034459235A034895555A035666042A036092021A036057417
1443A035716422A035593189A035880689A036106008A036088971A035723383A035377416
1436A035140032A034389233A033570884A033256670A033285639A033624314A034044790
1429A034205212A034022252A033793287A034131829A034654525A034627279A034458373
1422A033851622A032406502A031662266A032164676A032767716A032983025A032692145
1415A032305808A032527017A033074439A033346493A033103673A032475377A032088841
1408A031949964A031662199A031748774A032060270A031634490A030845044A030708354
1401A030963504A031175632A031961962A032859991A032765595A032459799A032759894
1394A032746238A031954604A031120280A030916306A031255644A031227338A030756348
1387A030524400A030444653A030346942A030276277A030044395A029449510A029018029
1380A029400919A030008532A030207932A030292849A030452343A030693439A030728904
1373A030096830A029436119A029093533A028607495A028299247A028167463A027731939
1366A027369133A027616130A027877246A027737242A027671217A027423160A026826949
1359A026447639A026401832A026279792A025970749A025855736A026070847A026223910
1352A026322881A026594537A026430138A025850632A025191379A024365142A024161035
1345A024393116A024080559A023768732A024135249A024349299A023558924A023010309
1338A023360651A023089857A021961405A020910445A020095145A019360985A018864474
1331A018808061A018836168A018533356A018322355A019051080A020000550A019974829
1324A019354820A018249503A016549366A014456594A012356266A011773843A012696664
1317A013607090A014358949A014382283A013330727A012261471A011253070A009562877
1310A006663092A002771876I99081651I96825342I96633433I98381232A001515815
1303A005136502A007887996A009105808A009675569A010446255A010942634A010738528
1296A010301412A009968571A009461586A008724111A007748920A006365185A005320523
1289A005277766A005768709A006309634A006781883A006940913A007016483A007700661
1282A008727293A009205110A008873860A008243907A007744081A007610043A007707025
1275A007227085A006331179A005649785A004817250A003567156A002118921A000150907
1268I97042375I92563499I86213061I77324715I65084023I48609065I28632543I07008187
1260H85150425H64394400H46820488H34921720H30823679H36475488H51676288H72868832
1252H95663735I16470935I33528979I46808698I56894107I64369087I69810691I74121787
1244I77381526I79187196I80024039I80908412I82268018I83473566I84283827I85081559
1236I85789270I85977069I85013016I82981695I80329437I76209056I69903563I62114700
1228I54598886I49740700I49433645I54066247I61925377I70417177I77814929I83430610
1220I87541975I90584415I92681363I94228502I95391956I95918032I96088265I96495218
1212I97155134I97940736I98630880I98586532I98008815I97580119I97192389I96856764
1204I96946387I97364080I97692414I98081734I98936476I99828207A000336717
1197A000656367A000706946A000591867A000895673A001609019A002046863A001942788
1190A002028236A002775058A003365104A003267923A003177437A003383465A003381279
1183A003195137A003178034A003043200A002401117A001639711A001170909A000833958
1176A000504232A000000230I99232129I98901077I99398384A000178682A001230769
1169A002568499A003514124A003951504A004310398A004875188A005427250A005713688
1162A005869072A006020080A006326803A006597134A006486032A006366113A006674560
1155A007036768A007143031A007114261A006952447A006757224A006702534A006915590
1148A007088010A006946614A007009324A007417736A007414089A006804753A006498892
1141A006763587A006974456A006944559A006947144A007050225A007247437A007515845
1134A007337194A006730244A006221204A005905000A005854554A005956972A006084713
1127A006352590A006548543A006355639A006163531A006367837A006496041A006244471
1120A005877491A005451910A005012142A004864050A004951819A005064379A005283268
1113A005252443A004857356A004773897A004828718A004732333A004932396A005202792
1106A005205046A005191854A005433149A005778188A005930390A006067610A006185473
1099A006094192A005930987A005671660A005499572A005836523A006386133A006866403
1092A007287808A006981615A005870066A005149959A005394569A005922501A006033338
1085A006120509A006874623A007510210A007283698A006956690A006743236A006154383
1078A005838711A006424051A006701474A006195218A005984284A006085707A006121636
1071A006099893A005886108A005779846A006005231A005972815A005412136A004536844
1064A004131614A005114693A006063235A005383764A004438801A004773300A005937417
1057A006839092A006535683A005160300A004260680A004335919A004390874A004072749
1050A004028798A004557725A004809295A004116566A003257913A003074754A003379423
1043A003785780A004110600A003848490A002988578A002611256A003064811A003709546
1036A003949582A003567885A003247771A003691184A004399955A004550235A004402474
1029A004720997A005313629A005482138A004843368A003444983A002334760A001957637
1022A001119667I99822838I99760988A000709664A000823219A000258031I99906894
1015I99647700I99406272I99294044I99508823A000318156A001156922A001281348
1008A001396427A001516743A000894944A000170992I99832649I99963770A000448880
1001A000529356A000173379A000085147A000063338I99428479I98770287I98453223
994I98180108I98671913I99734275A000394124A000887917A001167263A000773899
987A000144476I99703781I99084634I98339469I98370559I98971875I99066006
980I99028486I99234118I99019670I98601513I98345237I97465371I95628081I93250660
972I90467148I87856387I85946112I84628269I83742901I82692406I81485267I80608517
964I78965190I76694365I76358076I77678570I79468861I81798752I83796265I84412562
956I83122892I80943546I79875749I79666206I79890001I80608318I80994125I80817595
948I79899878I79039170I79553646I80029342I79475424I79637503I81371381I83554373
940I85119610I85999011I86804433I87420333I87432928I87401970I87775779I88666450
932I90011936I91427622I92522267I93305283I94471786I96055054I96784110I96047364
924I94584214I92623160I91263223I91493514I91588176I91440416I92164302I92558461
916I91929105I91779555I92856699I93984953I93585689I92024496I91937590I93441641
908I94270928I93536237I92010575I91734147I93178471I93995028I93996952I95601565
900I97738750I97812597I96584511I95149269I94518322I96363500I97864502I95778360
892I93039063I92136195I92082301I92909334I94720771I95295305I95136276I96221176
884I96482889I95765035I96844898I99463348A000151304I99158216I99932349
877I98399859I91997251I89218247I92605395I93435211I87699082I78305275I65521338
869I43084334I02565771H48024511G95935248G58832537G46025133G62986725G97023397
861H30649403H57952150H80858818I00221363I15625607I26874403I34338246I40150874
853I45290594I50522191I55753060I58766399I59361616I59895779I62110657I64596395
845I65529226I65657497I66227259I66981571I67133640I66832485I66581048I66493678
837I66742132I68060704I69740821I70664836I71935480I74159771I75564188I74823797
829I73835415I74488701I76330102I78292813I79318914I78693601I76765891I75339665
821I75033008I74803512I73903428I72934867I74106010I76772123I78466890I79818076
813I80407924I79703063I80418795I82349422I83409927I83134161I80141505I77269761
805I79529715I83033136I82244551I79083982I77294222I78944044I82606825I82817362
797I76516244I69107289I67427437I70233355I72380816I72186255I72049167I74229773
789I76999232I77641448I76590820I74605438I72293578I70935232I72184995I76094905
781I78185887I77322660I76720019I76041343I75448844I77356136I80115055I80647959
773I80432120I79578571I76818592I74003194I72052681I70791648I70649125I70271139
765I69302048I69252198I69205133I67168973I64355696I64075290I66365208
758I67710031I66955519I65969391I65207588I64923867I65351636I64825161
751I62899440I62228056I64074892I66164350I67304801I68740242I69625411
744I69151173I69373973I69955866I68819723I66901228I66295139I66610414
737I66144131I65275402I64675678I64532359I66181519I68343762I67892527
730I66571502I66591190I66683731I66822674I67617357I68521883I69624151
723I71967366I74628904I73675656I69445500I66665501I65861272I65297212
716I64806733I64182415I63007161I61895480I62171909I64727052I68465338
709I69277654I66992443I66050662I66664440I67152268I67988647I69942342
702I70439185I68794798I67108914I64586451I61773308I60245989I59679674
695I59835986I61516832I63624254I63909565I63035997I63241761I64828012
688I65603471I64363320I63459325I65244843I67132580I64140387I59634597
681I57936913I58269158I59434932I59798731I58112250I57650475I60786981
674I62368723I57255719I50381458I45604079I43624530I42276791I39141743
667I35634412I32359095I30312926I30535195I30614876I27582379I23266576
660I20597348I19838130I18846632I19338105I25362661I31215595I29292989
653I25436178I22877190I22458768I23817180I27567464I35502429I42642048
646I41505177I38267048I38561243I42807110I49169149I54072280I58796428
639I66265773I69856099I67330654I61749709I57358998I57171995I60038435
632I67310435I75201384I70397953I61920140I59501023I61875460I63902008
625I65288262I67360617I64401105I59659589I59152338I58959965I56287820
618I56261768I63155584I74105877I72343031I67398071I68598647I64426096
611I55133713I50755863I52769949I59464299I62033032I54041521I47841760
604I47727675I49657771I51593900I52623050I51208424I51868009I54659078
597I52231410I47845737I46696138I46993316I46316894I45187712I44265156
590I43088179I42105166I41648562I40658854I38438341I36120184I35527950
583I36928855I38796572I40432871I43086919I48272976I52317122I49501659
576I47667683I49923527I49669372I47583627I47995619I52957748I64781145
569I68218806I57616800I50747511I48203570I47588665I47961811I51211275
562I58989133I68747865I68525065I57528037I52084909I51063183I48161609
555I46835745I49406267I53087079I57532810I59795682I57344017I54145994
548I50281957I47560558I49600099I57736320I65020054I56884031I47316346
541I45755750I48544764I49164442I46206123I45932147I49460559I49792539
534I43064381I32726606I16824128H86762462H31315882G50764130F96243288
527G30741470H00483662H40200715H62646666H77984091H86491535H95451939
520I06868647I08836529I02776109H99465791H99037426H95692438H76268310
513H33120292G89996603G86073236H22188163H60051617H75426959H82090948
506H85661851H84677645H81748030H78816095H78170233H79707560H77330671
499H71204757H64975829H58690222H53863987H53411294H57409899H63495111
492H71124878H79745877H86382488H89551675H89796815H90074238H91925781
485H92710454H90514138H87498147H85165539H83779484H83948191H84671348
478H84096615H83463480H83640076H84554744H87741696H91592277H92832693
471H92772502H92822816H92969648H93654024H94947870H96375357H97916265
464I00066841I03188100I06371805I08262989I09624318I11436285I13379507
457I15235889I16897643I18151251I19119481I20106869I20734369I20551608
450I20256883I19978200I18760522I16390592I13578907I10980343I09200195
443I08878755I09744369I10976233I12471335I14217411I15659282I16482669
436I16561686I15881088I14220394I09934819I00288780H85683594H72992794
429H67976374H66700294H60326787H42015201H11012749G80688443G68152297
422G66101819G44871026F82700199E87476972D97732504D57995134D86465080
415E62227421F44889710G07864766G45991988G61065246G53473729G26334187
408F94330559F80842624F98176168G35308644G70736012G92774083H05241155
401H15566268H24123098H28652222H28704127H22856564H07588148G84168065
394G66704195G70586661G92789263H17777963H36260113H47895909H55352659
387H60984846H65564549H69068632H71353976H72513916H73203861H73633884
380H73734247H73782704H73758045H73169059H70811923H66273453H63023989
373H65043444H70570893H75047118H77190402H78313419H79039094H79226827
366H79089607H78625976H77500108H76058105H75401636H75897153H77058618
359H78602708H80175502H81210685H81753068H82270593H82789444H83252943
352H83892243H84781986H85453237H85213466H82636514H72193272H44379430
345H04930121G81882258G88397824H08972811H29727841H47910758H62234609
338H71758079H77490563H81033956H83040948H84000030H84736511H85230901
331H85221885H85434145H85964067H86322364H86879530H87892638H89089104
324H90044739H90459913H90490539H90937664H92192001H93429700H93622868
317H90544830H76633434H46081754H19668816H26035163H52940967H72067984
310H80120415H84066121H86311492H87811035H89302956H90488683H91139119
303H91801885H92924637H94362000H95723661H97133249H98407672H99019527
296H99439474I00279764I01035866I01288299I01484185I02110293I03067784
289I03988418I04651582I05183558I06343366I08145191I09426376I10297160
282I11609832I12838382I13240364I12798940I11715697I09914535I06737924
275I01480407H94812308H88341354H83036440H80709864H84106094H92685728
268I01990971I08544124I12238790I14557544I16583429I18503781I19828319
261I20311572I20142732I19215933I18206736I17330052I15374302I11641850
254I06392288I01050649H97231026H95486476H95347930H95757800H95958725
247H95118501H92395180H87572524H80312523H70957960H59951056H45564494
240H25058316G95520605G54601916G04074774F50038445E97388237E46559542
233D96290798D48567088D08897666C80028953C59926049C47299948C44315610
226C52501383C69528337C89619242D04545867D06249783C90638582C60063004
219C21617193B82778448B50403463B31541126B30309394B45457212B72280004
212C05060035C38847656C71292874D02252635D31454024D58869564D84981413
205E09888245E33018574E53657929E72433610E90414541F07493268F23036919
198F36309744F46151869F52863455F58703593F64386426F68625398F69724750
191F65415974F55655916F46877412F48552690F61811196F76491820F82878253
184F77932100F59892104F25900708E75573430E13755497D47804390C85738003
177C37100819C11498208C17497873C57237398D18509168D81836488E34202843
170E72113960E98295613F18133059F35164719F49343130F60095681F68785290
163F76676437F83321136F88224135F91464715F93012253F93213177F92844142
156F91987544F90484686F87270356F80282010F68556059F51707226F30876427
149F10426993E97789887F00706907F19660709F46389585F72655426F94440932
142G10154551G20504854G27219224G32398187G37440924G41968126G45856955
135G48976358G50276701G51241351G54454620G56153232G55023189G51603426
128G44875334G33376758G15436131F91973755F69112033F50667470F29324117
121E96805880E70041407E80322437F27053091F78457116G13312269G32778094
114G45135191G53840909G59023849G63057589G67884619G71791148G74082325
107G76366409G80013678G84807100G87326513G85268742G81083332G79661547
100G83243918G87901975G89973866G91089458G93641751G96531924G97829548
93G98652670G99363165G99338505H00237130H02626284H05073242H06253268
86H03884002G97908897G95065326G99483149H04997606H06561980H06216345
79H06566886H07496403H08891539H11204592H12383889H12188666H14769662
72H18502644H18652658H17026700H14873737H12054097H11604188H13677271
65H14948181H15138764H15122125H13191830H06478986G87309344G45698257
58F94760715F74031206F99598749G45313113G80345062G95779335G98725721
51G95173047G87533205G83379017G89366253H01889737H11466835H14978740
44H17634578H22447489H25822506H28102546H31286582H31807554H30784634
37H30965009H29624495H28608139H33478722H39791507H39130332H36612642
30H40986647H46178206H44684894H42750223H44422054H45881558H44689932
23H44921615H48721086H50189406H49304901H53521865H60091192H60941957
16H56802816H52219269H50673057H49887721H49459886H55758154H61644762
9H56538186H52001440H54535437H58690752H61426735H66228840H71562391
2H66611332H43558297
##END=


$$ === CHEMSPECTRA PEAK TABLE EDIT ===
##TITLE=X9647
##JCAMP-DX=5.00
##DATA TYPE=INFRAREDPEAKTABLE
##DATA CLASS=PEAKTABLE
##$CSTHRESHOLD=0.93
##MAXX=3996.5625
##MAXY=0.965456549288348
##MINX=399.65625
##MINY=0.20708303247300314
##$CSSOLVENTNAME=- - -
##$CSSOLVENTVALUE=0
##$CSSOLVENTX=0
##NPOINTS=72
##PEAKTABLE= (XY..XY)
413.9296875, 0.7660783557381312
422.0859375, 0.7637931136975313
438.3984375, 0.7636537587054035
446.5546875, 0.7595042024988994
452.671875, 0.75776011028078
460.828125, 0.7522414952410101
468.984375, 0.7450442345218957
497.53125, 0.7043764025364951
513.84375, 0.6060561564410849
534.234375, 0.7297551068143983
548.5078125, 0.7302806410731257
560.7421875, 0.7249106198069406
568.8984375, 0.7148841645695825
583.171875, 0.7187263997917375
603.5625, 0.7010338338841395
642.3046875, 0.5125535747653324
699.3984375, 0.5375036616250828
756.4921875, 0.28008407474054786
783.0, 0.5816407823783698
836.015625, 0.20708303247300314
860.484375, 0.3095918903186028
907.3828125, 0.8050534163744364
950.203125, 0.7918915776661988
1037.8828125, 0.7370064290162477
1072.546875, 0.7959485680261398
1099.0546875, 0.7030305894664418
1135.7578125, 0.7871186766038213
1160.2265625, 0.7759892969848537
1201.0078125, 0.6893832116564587
1227.515625, 0.6121806530166836
1247.90625, 0.41180700256889835
1300.921875, 0.8172196776988074
1358.015625, 0.802737716476603
1370.25, 0.7943674955679504
1378.40625, 0.7946516310322363
1406.953125, 0.7673460280488151
1421.2265625, 0.7896080646938949
1439.578125, 0.7067989135377893
1474.2421875, 0.6260281828452663
1512.984375, 0.8520004781153259
1529.296875, 0.8513487614336526
1549.6875, 0.8520257505659742
1566.0, 0.852021220640818
1588.4296875, 0.841181340823866
1629.2109375, 0.852150741613209
1641.4453125, 0.8548735413351273
1657.7578125, 0.8598241839646167
1678.1484375, 0.862736764891964
1690.3828125, 0.8606426159188026
1712.8125, 0.843644204844431
1725.046875, 0.8294301664861766
1739.3203125, 0.8261823090558154
1753.59375, 0.8364922442760305
1784.1796875, 0.8616291316540539
1816.8046875, 0.8628973992030176
1849.4296875, 0.8651382959917754
1926.9140625, 0.8651887806499229
1949.34375, 0.8671018513048301
1996.2421875, 0.8730178508369434
2018.671875, 0.8698638117711568
2065.5703125, 0.8748158256066532
2159.3671875, 0.6707896024541469
2181.796875, 0.8894570508330556
2214.421875, 0.8920807280958186
2330.6484375, 0.8810784255555194
2359.1953125, 0.8778938090453525
2791.4765625, 0.8984610476539009
2854.6875, 0.8963252346986107
2897.5078125, 0.8536846670635446
2958.6796875, 0.7470363405918949
3060.6328125, 0.8961244262994309
3089.1796875, 0.9102616348611737
##END=


$$ === CHEMSPECTRA PEAK TABLE AUTO ===
##TITLE=X9647
##JCAMP-DX=5.00
##DATA TYPE=INFRAREDPEAKTABLE
##DATA CLASS=PEAKTABLE
##$CSTHRESHOLD=0.93
##MAXX=3996.5625
##MAXY=0.965456549288348
##MINX=399.65625
##MINY=0.20708303247300314
##NPOINTS=106
##PEAKTABLE= (XY..XY)
3060.6328125, 0.8961244262994309
2958.6796875, 0.7470363405918949
2897.5078125, 0.8536846670635446
2854.6875, 0.8963252346986107
2424.4453125, 0.8975151214147599
2404.0546875, 0.8976584110937641
2359.1953125, 0.8778938090453525
2340.84375, 0.8808683190308849
2328.609375, 0.8803045186834716
2322.4921875, 0.8806967771132276
2304.140625, 0.8878239426804156
2277.6328125, 0.89129579403002
2271.515625, 0.8914551173782157
2263.359375, 0.8917600547119914
2253.1640625, 0.8919021521161332
2242.96875, 0.8917192260415876
2224.6171875, 0.8942226211134165
2212.3828125, 0.8920322692259555
2204.2265625, 0.8947782553670885
2198.109375, 0.8953436049525019
2181.796875, 0.8894570508330556
2159.3671875, 0.6707896024541469
2106.3515625, 0.8690242209843435
2088.0, 0.8756255546736642
2065.5703125, 0.8748158256066532
2053.3359375, 0.8809014590569832
2041.1015625, 0.8787135519623963
2030.90625, 0.8787355461067485
2018.671875, 0.8698638117711568
2010.515625, 0.8740194471408171
1996.2421875, 0.8730178508369434
1981.96875, 0.8770762717468892
1947.3046875, 0.8668497238349292
1935.0703125, 0.8676127231003732
1926.9140625, 0.8651887806499229
1914.6796875, 0.871413711546686
1904.484375, 0.8688457043486557
1894.2890625, 0.8672606981027413
1886.1328125, 0.869094196549123
1851.46875, 0.8648897444473104
1839.234375, 0.8686258824922798
1816.8046875, 0.8628973992030176
1806.609375, 0.8659152419958256
1796.4140625, 0.866295877993551
1786.21875, 0.8613303930705812
1776.0234375, 0.8610728419189531
1753.59375, 0.8364922442760305
1739.3203125, 0.8261823090558154
1725.046875, 0.8294301664861766
1712.8125, 0.843644204844431
1690.3828125, 0.8606426159188026
1678.1484375, 0.862736764891964
1657.7578125, 0.8598241839646167
1649.6015625, 0.8698374072887951
1641.4453125, 0.8548735413351273
1629.2109375, 0.852150741613209
1621.0546875, 0.8552804622280675
1610.859375, 0.8512232335929842
1588.4296875, 0.841181340823866
1572.1171875, 0.8520967997176209
1566.0, 0.852021220640818
1549.6875, 0.8520257505659742
1529.296875, 0.8513487614336526
1512.984375, 0.8520004781153259
1500.75, 0.85037768233101
1492.59375, 0.8505362899546276
1474.2421875, 0.6260281828452663
1439.578125, 0.7067989135377893
1421.2265625, 0.7896080646938949
1406.953125, 0.7673460280488151
1378.40625, 0.7946516310322363
1370.25, 0.7943674955679504
1358.015625, 0.802737716476603
1300.921875, 0.8172196776988074
1247.90625, 0.41180700256889835
1227.515625, 0.6121806530166836
1201.0078125, 0.6893832116564587
1160.2265625, 0.7759892969848537
1135.7578125, 0.7871186766038213
1099.0546875, 0.7030305894664418
1072.546875, 0.7959485680261398
1037.8828125, 0.7370064290162477
950.203125, 0.7918915776661988
907.3828125, 0.8050534163744364
860.484375, 0.3095918903186028
836.015625, 0.20708303247300314
783.0, 0.5816407823783698
756.4921875, 0.28008407474054786
699.3984375, 0.5375036616250828
642.3046875, 0.5125535747653324
603.5625, 0.7010338338841395
583.171875, 0.7187263997917375
568.8984375, 0.7148841645695825
560.7421875, 0.7249106198069406
548.5078125, 0.7302806410731257
534.234375, 0.7297551068143983
513.84375, 0.6060561564410849
497.53125, 0.7043764025364951
475.1015625, 0.7470012332223583
468.984375, 0.7450442345218957
460.828125, 0.7522414952410101
452.671875, 0.75776011028078
446.5546875, 0.7595042024988994
438.3984375, 0.7636537587054035
422.0859375, 0.7637931136975313
413.9296875, 0.7660783557381312
##END=

##END=

