##TITLE=X7400
##JCAMP-DX=5.0
##DATA TYPE=LINK
##BLOCKS=1


$$ === CHEMSPECTRA SPECTRUM ORIG ===
##TITLE=X7400
##JCAMP-DX=5.00
##DATA TYPE=INFRARED SPECTRUM
##DATA CLASS=XYDATA
##ORIGIN=ComPlat
##OWNER=
##XUNITS=1/CM
##YUNITS=TRANSMITTANCE
##XFACTOR=1
##YFACTOR=8.7759783e-010
##FIRSTX=3997.453
##LASTX=373.96442
##MAXX=3997.453
##MAXY=0.9423134929674463
##MINX=373.96442
##MINY=0.26242566132287837
##NPOINTS=2559
##XYDATA= (X++(Y..Y))
2559I93605503I93756552I93917042I93801514I93478428I93103589I92785733I92801694
2551I93436455I94447753I95230440I95613361I95862416I95898413I95305081I94171599
2543I93267747I93235554I93946043I94776816I95283212I95450833I95399827I95129378
2535I94673716I94260911I94143752I94379630I94770975I94902939I94460929I93715869
2527I93436727I94134719I95454705I96348369I96106649I95258625I95129988I96329624
2519I97857710I98429647I97988995I97185118I96398153I95847067I95903167I96555179
2511I97111291I97081204I96674851I96293288I96081451I95948400I95748518I95402408
2503I95031100I94961077I95373543I96112149I97019195I98045299I98869755I98874305
2495I97835908I96416898I95704099I96148690I97398720I98986506A000253311A000473434
2487I99644835I98552918I98207691I98941952I99743791I99614339I98851757I98187112
2479I97589909I96764638I96330846I97021911I98182357I98822959I98945416I98605621
2471I97450202I95975499I95836879I97484025I99216204I99832831I99597360I99086957
2463I98503270I97882296I97248214I96513070I95732829I95651938I97300171I99726608
2455A001236424A001833898A001960429A001689504A000879175I99532159I98046793
2448I97096689I97256500I98489958I99977768A000966110A001300742A001129453
2441A000666592A000223903A000162166A000508751A000783954A000683775A000582714
2434A000807590A000954768A001027237A001707299A002896881A003474184A002853618
2427A001294154I99540241I98838988I99809671A001053181A001099026A000413937
2420A000440154A001529218A003084403A004654666A005654894A005664199A005028690
2413A004336471A003848276A003626456A003712712A003956809A004027308A003826475
2406A003642825A003782736A004071659A004026289A003631143A003443078A003935347
2399A004829691A005182932A004631981A004029278A004160835A004714842A004978227
2392A004863786A004715589A004565558A004139577A003395060A002514708A001788868
2385A001556385A001573433A001121507A000339024A000228318A001317654A002401217
2378A002256348A000967265I99232708I98265557I99207170A001337010A002828217
2371A003472486A004038515A004810810A005665421A006343514A006524176A006222009
2364A005880721A005717990A005490668A005006957A004286279A003380118A002684367
2357A003239867A005435858A007936937A009413541A009665109A009207138A008637850
2350A008081331A007314673A006605881A006569477A007353249A008637714A010214973
2343A012056704A013704937A014009820A012477795A010086268A007985159A006795712
2336A006612673A007033425A007485215A007807825A008303083A008720506A008296630
2329A007442902A007511567A009086584A010867257A011634866A011415015A010660718
2322A009739547A008790598A007928040A007645773A008365703A009295636A009234781
2315A008310961A007916290A009047260A010321061A010457440A010298852A010598098
2308A011173363A011671134A012178141A012750757A012835383A011820553A009839658
2301A007558974A005713575A005427369A007313654A009637738A010743034A010688836
2294A010290973A010456014A011569529A012868256A013256067A012678357A011901579
2287A011595881A011803098A012448523A013713494A015150842A015659003A014974934
2280A013891643A013092589A012481531A011780210A011121134A010798864A010914188
2273A011218868A011299487A011112644A011256834A012328783A013892458A015023360
2266A015300873A014964271A014766291A015185752A015697242A015548569A014964068
2259A014709172A014919513A015264944A015810733A016774488A017568585A017552624
2252A017099951A016826582A016822167A016844444A016757034A016534602A016222451
2245A016071334A016323989A016824408A017205632A017239251A016851779A016260214
2238A016071877A016733941A017952050A018959409A019312582A019183266A018883612
2231A018529217A018231057A018123679A018099839A017896357A017571030A017561318
2224A018160150A019076703A019636347A019478030A019038330A019150938A019993120
2217A020698312A020331487A019059995A018000068A017917683A018603179A019527814
2210A020410815A021098485A021403029A021241384A020733969A020136699A019715132
2203A019618417A019796837A020048881A020205432A020296238A020447559A020604178
2196A020559760A020271176A019869781A019364811A018809039A018749271A019799418
2189A021554757A022715339A022608708A021730529A020612056A019224764A017800117
2182A017085824A017284484A017686898A017811256A018060583A018862150A019818299
2175A020127326A019596615A018893664A018751648A019128049A019307760A018776710
2168A017783681A017053495A017060898A017423377A017235380A016214980A015054602
2161A014404084A014132616A013864001A013617323A013591582A013724633A013671792
2154A013065014A011818176A010273450A008970920A008241006A008020272A007933405
2147A007521755A006545094A005151486A003751358A002747123A002247790A001942703
2140A001344142A000201898I98580764I96615490I94399599I92083597I89874226
2133I87886947I86067969I84287432I82509815I80835094I79285003I77639827I75696762
2125I73663910I71957879I70559720I68965006I66880265I64530644I62133208I59571954
2117I56713559I53650528I50653716I48117388I46173169I44223245I41573358I38609894
2109I36356648I34806828I32787900I29551202I25492425I21283550I17275100I13735556
2101I10750087I07778609I04016362H99305641H94228367H89319801H84594206H79782898
2093H74698560H69390773H64098946H58978340H53842452H48282417H42019703H35039232
2085H27463868H19516585H11565770H03889480G96286337G88223865G79511894G70504412
2077G61586106G52842146G44224920G35648649G26994136G18340439G10072107G02570774
2069F95925274F89964387F84512614F79673663F75801457F73096829F71442280F70705302
2061F70873195F71785469F73069865F74482287F76096221F78064348F80380078F83032274
2053F86218508F90087998F94334568F98420444G02181876G05834299G09467094G12992104
2045G16511204G20233719G24047312G27638881G31082593G34834177G39023356G43229311
2037G47126578G50883392G54661056G58159985G61033797G63481900G66131447G69485235
2029G73592505G78053764G82296938G86099664G89772734G93554474G97045864G99708587
2021H01780356H04169234H07497689H11591036H15750739H19315548H22203419H25033696
2013H28462398H32428738H36393856H40130701H43782378H47290612H50379452H53054265
2005H55603972H58134120H60491551H62579961H64462782H66241214H68005449H69808129
1997H71642864H73563312H75770374H78432010H81434119H84370144H86822050H88771635
1989H90670078H92874898H95207676H97409304H99705338I02395568I05220004I07662130
1981I09633516I11432323I13232828I14999034I16746020I18564726I20478790I22480468
1973I24537091I26442054I27984131I29327412I30772434I32173242I33127353I33580027
1965I33756477I33882941I34313133I35357847I36772170I37967119I38678899I38996755
1957I39089123I39234807I39693184I40445580I41428693I42766269I44392360I45834394
1949I46714475I47192821I47796068I48963374I50701462I52560309I54052806I55075175
1941I55845432I56614195I57510305I58459254I59234470I59710371I59952023I60001128
1933I59836427I59596269I59517008I59512865I59094763I57896282I56120907I54321693
1925I52861253I51830259I51407605I51882623I53181078I54729065I56036893I57151358
1917I58315540I59419546I60012877I59736587I58582729I56856051I55049162I53672193
1909I53018959I53088031I53762456I54915771I56264010I57381736I58114231I58843602
1901I60197682I62497180I65440880I68279443I70411251I71791819I72655192I73071190
1893I73099240I73105828I73505661I74265119I74894923I74925757I74330253I73421375
1885I72417208I71364548I70444124I69886993I69566352I69223978I69071502I69552700
1877I70553200I71399865I71594110I71146123I70318407I69333122I68292211I67311884
1869I66581426I65996856I64894616I62671458I59629413I56818017I55180787I55105941
1861I56462127I58752117I61401935I64015010I66285711I67874244I68569860I68410660
1853I67550140I66151981I64335446I62071810I59249344I55909479I52287890I48672414
1845I45332277I42464306I40121272I38237500I36645775I35066003I33327576I31615636
1837I30206202I28944355I27219646I24461838I20502833I15384740I08868420I00388185
1829H89625160H76766255H62115877H46205487H30599708H17632677H08558024H02353651
1821G96997166G91920775G88918870G90445325G96973056H06092534H14086002H18164814
1813H17320798H11653385H01561592G87696075G71231270G53884075G37819442G25372731
1805G18147484G16049702G17462395G20475575G23972467G27840666G32343965G37134082
1797G40986795G42907855G43406780G44283465G47187093G52496987G59386040G66743320
1789G73972370G80916573G87282726G92499979G96075384G97844443G97972061G96910571
1781G95276941G93633462G92377048G91769454G91897955G92530475G93194848G93658320
1773G94341982G96072599G99349369H03826588H08319972H11209880H11076422H07244695
1765G99972516G90469776G80818907G73334349G69364885G68547696G69230543G69560081
1757G68423678G65938560G63360598G62341286G63927034G67954976G73063695G77142577
1749G78142872G75042825G68404457G60316991G53899696G52131928G56168835G64683640
1741G75176284G85729918G95407411H03740672H10542586H16019762H20706372H25275823
1733H30330887H36139775H42483990H48806744H54546761H59345912H63020273H65542202
1725H67156136H68264082H68964859H68876226H67562014H64961775H61292372H56724686
1717H51374586H45571473H39885110H34807632H30663618H27892430H26985794H27962725
1709H30240150H33140313H36328858H39825207H43782242H48221970H52953542H57763288
1701H62556257H67296591H71970432H76592113H81134126H85489500H89528648H93190581
1693H96587089H99915205I03172414I06179005I08929207I11539158I13870306I15669792
1685I17056065I18457959I20129420I21973732I23753318I25351427I26880193I28520615
1677I30266853I31965277I33587226I35235798I36843756I38126930I39001373I39822977
1669I40961417I42275085I43277351I43735933I43839237I43837674I43855469I44071176
1661I44722781I45805054I47037017I48223069I49376927I50483853I51481364I52434932
1653I53421440I54338061I55079453I55748241I56495881I57300778I58000876I58441256
1645I58578382I58502993I58352216I58232544I58276080I58659273I59391904I60179275
1637I60721126I61101534I61588234I62108825I62339407I62295056I62352242I62642389
1629I62894364I62938511I62939530I63030132I63073668I62954336I62839011I62951076
1621I63241697I63439881I63329311I62890561I62273526I61673471I61194310I60861988
1613I60718952I60807042I61148601I61781053I62610399I63277965I63531910I63652668
1605I64130607I65025426I65970844I66674609I67161038I67582808I67960092I68176275
1597I68239847I68419557I68986536I69903225I70883281I71697753I72318931I72746882
1589I72834224I72493276I72044814I72001482I72411095I72806174I72934879I73075197
1581I73423820I73701808I73660446I73492757I73438490I73426265I73335119I73218164
1573I73124030I73018893I72979704I73268152I74101098I75340600I76521897I77318846
1565I77827144I78190573I78208707I77647569I76734820I76048034I75939569I76220953
1557I76447459I76416285I76221292I75955393I75695268I75621237I75778467
1550I75987247I76363445I77423712I79160170I80538700I80575104I79553551
1543I78552983I78146970I78214412I78636047I79413028I80273685I80779945
1536I80779266I80497746I80376105I80905050I82298454I84202806I85880719
1529I86729217I86699334I86329589I86241159I86496191I86674476I86551884
1522I86280280I85894437I85181096I84148200I83126850I82329085I81777320
1515I81662878I82197393I83063007I83581085I83537821I83465828I84064253
1508I85513826I87296672I88666713I89335705I89498912I89256241I88551592
1501I87712738I87415868I87955680I88959847I89842577I90244990I90129394
1494I89783013I89715162I90291039I91395996I92509986I93049730I92672514
1487I91510302I90155407I89107433I88255877I87253680I86263369I85878138
1480I86412245I87577309I88739861I89423183I89740088I90226245I91065507
1473I91802824I92044476I92006578I92079317I92320970I92668099I93186721
1466I93855237I94500865I95098679I95747838I96344498I96660179I96627716
1459I96260687I95541300I94623185I93858496I93465524I93439104I93814962
1452I94705638I95964768I97077129I97589773I97519478I97166644I96807087
1445I96760903I97270966I98017453I98312420I98036062I97788501I98025399
1438I98597676I99143532I99526046I99924996A000557516A001235133A001466122
1431A001175501A000885560A001020716A001513733A002201810A003111570A004257143
1424A005497188A006551275A006968767A006411704A005241545A004401876A004385372
1417A004712464A004733179A004499202A004458927A004706080A005014631A005384309
1410A006079517A007026904A007563524A007299323A006963401A007457165A008323322
1403A008376298A007612968A007187938A007649237A008256695A008028354A006908184
1396A005703795A005179332A005511519A006280418A006836259A006999941A007205189
1389A007752472A008462690A009118709A009723994A010250290A010560947A010679192
1382A010685576A010323098A009296858A007996976A007296335A007542402A008185313
1375A008597643A008791073A009033744A009311868A009402131A009161090A008674798
1368A008246235A008149928A008400002A008830669A009274106A009599500A009815072
1361A010217214A011191158A012723183A014188105A014753794A014175540A013205603
1354A012912946A013574806A014617075A015548094A016346877A016988973A017315591
1347A017400420A017461818A017463109A017258336A016976000A016872426A016920376
1340A016807565A016302187A015537567A014949669A014915303A015371643A015795587
1333A015719791A015284369A014957819A014717661A014168069A013536161A013595589
1326A014516488A015915462A017867900A020452381A022538752A022694081A021273034
1319A020092416A020035365A020253314A019774153A018863169A018517603A019261576
1312A020652332A021648688A021500151A020569336A019996380A020360352A021268823
1305A022278355A023241636A023746877A023372989A022571285A022427096A023637122
1298A026059212A028910951A031297248A032805773A033472795A033328198A032534984
1291A031575508A030658887A029555967A028293712A027111329A025717652A023654780
1284A021355079A020016076A020335155A021738611A022934579A023272742A023382701
1277A024315147A026562959A029973731A033646801A035787711A035023430A032375241
1270A030592124A031035560A032468968A033324666A033644560A033916843A034046906
1263A034594053A036546354A038955404A039813955A039272852A038649298A038312085
1256A038274051A038615406A038911937A038765098A038459739A038066630A036894706
1249A034437502A031069043A027891638A026495449A028186062A032547685A037274027
1242A040234774A041259249A041436583A041407378A040948592A039902927A038936115
1235A039048520A040246660A041165454A040707415A039599266A039264838A039686812
1228A039661275A038743296A037730911A037506170A038173736A039069099A039362572
1221A038927286A038474341A038648754A039304095A039829168A039889683A039651767
1214A039426890A039302940A039135387A038783436A038362548A038234319A038490166
1207A038584164A038065475A037545087A038062351A039536170A040770783A041069418
1200A040924277A041019702A041439163A042082618A043112865A044469866A045338537
1193A044759536A042701283A040075711A037915512A036945169A037453738A038660165
1186A038594692A036052523A032778538A032383731A036415341A042592206A047582410
1179A050283439A051678270A052287765A051121139A047757366A044116964A042484149
1172A042806012A043803048A045313406A047466881A049337953A050407729A051699324
1165A053859998A055559509A055157570A052936382A050782907A050537452A052892507
1158A056553692A058532957A057110211A054268592A053127435A053768852A053795204
1151A052137463A050365280A050712680A053448687A056017683A055528946A052199404
1144A049205785A049137391A051414680A053388851A053026305A050260143A046694451
1137A044194730A043754622A045792840A050657531A057502641A063333058A065526604
1130A064653451A062778711A060476361A057386094A054423038A053189987A053510560
1123A053730614A053468383A054284961A057125425A060283949A060934739A058146368
1116A053829571A050982111A051226819A053789024A056546900A058065138A058454240
1109A058320509A057698517A056543979A055481471A055273438A055994659A057010440
1102A057535582A057176024A056223882A055459058A055386182A055768628A056149444
1095A056510496A057064435A057706599A058226715A058861136A059953596A061011283
1088A061011894A059781832A058372534A057772819A057683846A057268460A056527815
1081A056057212A055928235A055627019A055053520A054879514A055667159A057065386
1074A058147658A058362279A057833673A057058594A056771097A057749455A060082165
1067A062532713A063296722A061911128A059591865A057517583A055804148A054112856
1060A052478071A051507931A051965155A053884381A056145573A057751085A058967632
1053A060225132A061328867A061938023A062052872A062025026A062250921A062843572
1046A063597802A064165868A064248660A063887744A063594610A063950228A065094238
1039A066503807A067297564A067309586A067211580A067454047A067818359A067871403
1032A067518773A066932030A066312143A065928814A066128900A067068613A068412913
1025A069407299A069671976A069697241A070033571A070736250A071608384A072317244
1018A072550067A072403092A072222906A072120350A072065133A072144053A072360032
1011A072611532A072904802A073265175A073587038A073741822A073673294A073421386
1004A073122072A072878246A072699486A072575264A072447103A072239614A071917479
997A071397567A070682799A070093814A069875458A069786961A069559232A069230102
990A068777293A068044662A067039204A065935198A064961730A064314540A063872666
983A063418906A063139695A063298963A063619943A063672851A063392690A062825099
976A062113930A061414172A060519828A059112704A057352746A055576828A053712412
969A051546984A049021999A046324841A043780906A041543214A039681651A038355145
962A037409863A036221299A034611508A032985416A031364826A029739617A028157401
955A026411095A024500902A022813481A021423336A020165835A019174980A018141881
948A016044982A012815755A008772464A003798357I97829727I90472448I80730908
941I68978250I57476753I46284622I32155176I13543688H93387067H70826966
934H41922377H10008140G79679516G47762019G10382017F70851393F32820670
927E88480708E26637918D60530457D10513404C73694167C45265412C28514230
920C29526717C48116607C76169573D09884484D51568073D96595805E33586196
913E60951424E84809336F09152895F32145769F50456924F65109405F78764853
906F93951103G17710771G57334510G94179726H13674826H26898519H43078816
899H61239328H74261033H80268444H80803026H76464767H65823382H41779410
892G91753018G19634615F50379090E90514172E30917632D66563677D03499925
885C53050065C20219717C03534111B99027245C01128423C06082766C14002576
878C26133774C40966443C57124429C76231853D00067624D28270213D58394743
871D87842268E15694129E42348256E67860649E91629520F13401977F33625022
864F53070950F72195354F90504606G07055260G21238973G32194546G38087786
857G36404372G24850985G03504442F77529222F55916916F46134761F52726266
850F77582877G11039123G36777173G51870036G60078192G62723120G62201035
843G64683776G74585737G90322257H06522455H21217047H39314599H61946898
836H77618353H86094581H92876460H99307543I05326092I10826970I15102813
829I17680842I18620012I17519877I13634155I06457333H97326987H90444114
822H85959968H79688696H66856414H44801283H15125078G77717230G26937696
815F59665239E86104463E21662622D71508002D36978618D21997311D26323073
808D45887619D74319363E04227643E32763064E60112094E86283019F15108687
801F55359106F99720801G29677778G48388834G64004461G79543340G95241148
794H09831010H20608027H26017284H27207070H26122081H24396626H22601690
787H19767610H15166440H09303831H03542555G99926128H00151140H04408713
780H11904885H21574499H31922342H40215667H41629039H33829682H20796974
773H08862228H03765530H06809205H11166752H09806492H01797539G87425286
766G66339004G44337460G28378847G14468708F95967859F70013829F38028822
759F04272989E72369960E42448096E13929281D90143667D76948127D78446839
752D96560590E26207929E49809620E55464401E46646478E32448740E22959584
745E24499963E37581265E61247716E92818288F26701059F60171839F94898898
738G28580699G54817132G73493549G88352094H01317427H12751074H22718984
731H31379949H39360240H47214476H54310068H59711310H63553361H66265121
724H67550264H66593368H62696983H55869803H47002707H37109983H27459114
717H20724845H19881916H24310030H29661150H31589136H27467060H17074595
710H02533906G86040779G67853303G47545836G26563808G06945029F88527515
703F70056889F51512369F33921892F18528152F07452501F02601393F02456049
696F02440291E97427132E83337010E59432202E29829043E01430782D80139116
689D68423644D65350560D68572893D76041762D86539025D99836442E16093215
682E34274578E51821588E66543007E78131439E88512630F01130223F18539699
675F40175912F62915657F83471703F99786070G10652398G14788669G10788031
668F98580662F81069174F63370231F50218192F44269395F45621302F52307892
661F61830056F72476806F83550963F94874855G06207712G17069694G27033189
654G36078434G44648796G53322529G62353851G71544643G80491271G88740925
647G95786122H01259969H05200636H07907574H09531628H09898860H08555919
640H04699198G96941610G83246023G61396819G30107427F90508138F47236730
633F07866189E80276628E69434104E75458936E94167275F19848885F47901783
626F75138782F98303489G12826044G13505699F97927020F70710735F43639320
619F29258441F32894972F50573607F73796791F95307696G11121779G19461560
612G19641611G12299409F99947918F86485970F75813275F70627604F71894408
605F78827202F89226391G00125456G08645219G12887239G12601236G09393403
598G06281675G06455748G11771482G22160076G36289862G52598999G69938927
591G87679435H05416411H22687199H38905801H53285322H64307658H68193719
584H57943542H27900241G83637978G44414751G28689368G36481866G49844859
577G49060814G24336303F75579773F09298035E37686878D76226160D38189697
570D29459626D47083281D82195129E24801960E67191046F04912437F35957256
563F59080126F72674990F75342332F67857434F54900931F44374260F43613307
556F55264156F76564040G02141804G27232189G48858147G64791290G71553201
549G63392180G34177886F82719580F18228838E59421980E24709727E20815482
542E40256384E68945027E95831332F17426184F36134183F55398634F75982391
535F95994550G13391937G27762084G40037575G51364047G62510605G73742604
528G84616064G93863364G99817731H01450343G99592108G97187812G97562651
521H01814451H07904993H12009749H10091203G98833328G77637291G51743573
514G32143268G29109577G44178396G68915268G91114793H00882481G91672603
507G59257471G03317328F31132094E58250599E02717929D76088014D78458792
500E01074179E33005056E66172243E96431523F22118907F42304461F55929752
493F61767504F58553015F44778032F18621132E79183828E28923629D75124327
486D28442622C98768387C90871499D02950944D28913396D62062041D97420499
479E31953550E63774875E91537424F14306577F31677882F44000440F52645036
472F59939560F68355069F79278788F92356865G06026982G18772397G29911620
465G39402813G47431666G54412273G60936199G67434249G74068338G80875619
458G87722971G94262858H00212878H05579754H10388616H14146992H15895947
451H15391181H14194738H14754246H18150212H23394360H28964447H34261232
444H39464562H44739342H49965899H54887301H59240979H62914796H66095801
437H69066193H71752959H73621042H73937540H71758053H65267678H51211447
430H26427576G92315650G58103545G36847944G35889554G51757632G74757774
423G96862485H14728098H27888423H36696023H41557929H42683941H40265926
416H34131034H21942275G99790224G68645769G38730561G21284003G15741083
409G11104460G00333421F87215612F78918959F78607691F86823318G04105719
402G29069777G56805362G81475538G99208643H07617700H04965097G92875973
395G79199132G74286355G82649568G99905956H18300650H33249594H44372042
388H52867490H59650999H65220746H70006924H74375271H78421483H82059032
381H85292742H88151340H90490367H92060833H92458493H90728147H84869749
374H71499082H47274311H13678698G81080120G64295353G70861525G94638852
367H22211298H43899672H57538072H64483973H65245401H58423858H42298642
360H18245433G92985389G74882267G65774674G57222989G36874907G00693861
353F60498389F38303550F49714716F91303458G44982273G93374831H29344856
346H53948201H70590136H82042799H89797739H93909017H92966519H83874479
339H62768569H29608989G93307388G68674431G64507597G75635477G88636263
332G94172595G92521985G89347839G89087578G92034266G95219210G94797304
325G87912665G72905108G48602164G15086014F76551883F42553108F23666417
318F24546294F42121014F70193880G03230597G34979589G56235258G56550058
311G28619345F72344366E97410221E22390465D68096245D47395160D58877131
304D90279640E28837814E68655968F09188891F49769390F87878152G21267770
297G49303077G72283591G90693837H05204711H16753683H26218185H34098569
290H40762950H46822182H52882704H58998715H64599433H69065378H72391524
283H75112520H77699175H80082824H80404959H73853865H56690116H34304088
276H20735576H25406022H43281347H61654171H72843925H76643323H74999777
269H69997822H65395228H65447932H71343414H80052804H85874731H82284520
262H65402087H39598836H18211542H13672042H25900601H43283521H53517873
255H47913691H16154307G48119946F49911610E52893469D95974084D96919570
248E44240790F12953787F81051039G35131114G70994644G91281056G99645899
241G97831538G88924914G80055645G78786734G87277700H01308665H14788341
234H24079041H28373901H28121789H24312543H18168550H10294686H00344706
227G87717673G72098922G53337607G31261285G05841770F77655821F47792706
220F16919380E85216572E53521302E23488970D96599473D73738189D55526976
213D42719349D35818987D34584239D39704233D53949650D75329371D94356686
206E06433652E11097306E07179697D96391474D86297882D85739902D98386564
199E21374922E48837952E75873167F00220462F21498680F39631414F53863892
192F62142275F61658631F51893117F37737454F27942871F28772488F39487088
185F54512033F68908125F81072637F91517671G01026727G10129294G19314518
178G29101698G39593595G50138536G60049870G69395040G77768101G82271944
171G79240902G69682741G60911273G60299197G68315688G79852910G90823221
164H00525232H09128331H15996737H20331940H22125857H22502462H23194546
157H25463752H29538694H34686806H39490982H42395018H41968425H36790565
150H26581682H14205130H05231878H04391597H12232045H25287369H39180190
143H51261842H61098059H69221657H75443485H78265679H76040755H67748585
136H50855829H20469066G76135421G30216979G03114321G06443727G33768272
129G69195973H01527090H27739411H47350923H59412607H64523705H65269580
122H63393414H58688874H51000562H41733158H33234381H27417752H24454831
115H21809970H14577388G97760089G69177295G30285508F84189392F34623416
108E87962359E52620099E33895222E32086262E44528490E66826598E93689947
101F20381362F43774409F62442268F76183700F85419114F90537819F91835119
94F90594870F89592808F91577439F97598229G07381130G20529298G35784417
87G50211004G61310020G69453721G76861532G85028869G93627485H00619231
80H03110122G99363700G90183230G77425251G62283827G46439792G33568458
73G27944512G31979110G45104525G63196848G80914264G95981250H08552794
66H18353762H24685752H27398191H27008750H25002454H23426282H22791928
59H21139484H17089877H12016066H08483993H08100461H10753947H15444157
52H20672684H23693131H20234070H06346140G81171741G46446109G05244092
45F64644848F35616512F24993058F30909255F47331476F68727463F90927056
38G10747076G26431436G38463304G48285191G55796441G60195350G63699577
31G68856383G73507744G74608218G72151626G68547085G64945532G60414861
24G55198830G51774951G51963491G54869768G58027681G59956890G62983178
17G71546953G84390780G96666542H07518132H19067783H30221405H35847184
10H34004299H31232228H36332933H48766401H60837662H67655945H68268972
3H62742149H52568176H42806533
##END=


$$ === CHEMSPECTRA PEAK TABLE EDIT ===
##TITLE=X7400
##JCAMP-DX=5.00
##DATA TYPE=INFRAREDPEAKTABLE
##DATA CLASS=PEAKTABLE
##$CSTHRESHOLD=0.93
##MAXX=3997.453
##MAXY=0.9423134929674463
##MINX=373.96442
##MINY=0.26242566132287837
##$CSSOLVENTNAME=- - -
##$CSSOLVENTVALUE=0
##$CSSOLVENTX=0
##NPOINTS=56
##PEAKTABLE= (XY..XY)
385.29667513682534, 0.7294875995188652
405.12812162627006, 0.6597560656459563
433.4587594683344, 0.5484925514658642
450.4571421735727, 0.7091872109955997
475.95471623143067, 0.6388425240916089
504.28535407349455, 0.6051851518844067
521.2837367787329, 0.4669577489040115
559.5300978655196, 0.6170516023515235
580.7780762470679, 0.7059323199974346
610.525245981235, 0.6672369254379426
638.8558838232993, 0.5510813009535699
657.2707984206409, 0.42628428393961265
671.4361173416728, 0.3813901850986014
709.6824784284595, 0.6834615477911872
726.6808611336978, 0.4352657798546377
739.4296481626266, 0.7140768183908689
752.1784351915558, 0.7594689741851552
763.5106903283813, 0.7202757605014001
806.0066470914776, 0.3926330215685028
824.4215616888191, 0.5473282942030752
847.0860719624702, 0.6709302081457145
871.167114128225, 0.5601738103612965
896.6646881860825, 0.670743943271884
930.6614535965596, 0.6795120249466097
946.2433044096947, 0.5955446370429105
975.9904741438622, 0.6458150757100678
1009.9872395543389, 0.7145355352662185
1058.149323885848, 0.3430279793312472
1083.6468979437059, 0.4178138079754096
1099.228748756841, 0.6398649826074179
1141.7247055199373, 0.45706653683360404
1161.556152009382, 0.5648336415823239
1179.971066606724, 0.3768928358502116
1219.6339595856134, 0.6198312653487652
1232.3827466145422, 0.5885413300084993
1249.381129319781, 0.552235842330783
1266.3795120250193, 0.49973413399839434
1313.1250644644251, 0.5654094229874128
1347.1218298749022, 0.4083906416452848
1386.7847228537917, 0.7195265903378423
1429.280679616888, 0.4589481960961027
1440.6129347537135, 0.4185686412777644
1466.1105088115714, 0.7053828849567999
1481.6923596247066, 0.7020134340931022
1519.9387207114933, 0.37034392439943514
1568.1008050430023, 0.6689059743397541
1579.4330601798279, 0.5670464641411687
1621.9290169429241, 0.26242566132287837
1677.1737607349492, 0.2883033753721209
2796.2339554964815, 0.725760938255227
2842.9795079358873, 0.6600693478865163
2857.1448268569193, 0.6690290583130094
2891.1415922673964, 0.6948551546906848
2927.97142146208, 0.6284036646473466
2949.219399843628, 0.6923534883580521
3293.4366496247067, 0.5886095176046947
##END=


$$ === CHEMSPECTRA PEAK TABLE AUTO ===
##TITLE=X7400
##JCAMP-DX=5.00
##DATA TYPE=INFRAREDPEAKTABLE
##DATA CLASS=PEAKTABLE
##$CSTHRESHOLD=0.93
##MAXX=3997.453
##MAXY=0.9423134929674463
##MINX=373.96442
##MINY=0.26242566132287837
##NPOINTS=99
##PEAKTABLE= (XY..XY)
3988.953808647381, 0.8712666049357594
3973.3719578342457, 0.8716613668692478
3960.6231708053165, 0.8724583994632582
3952.1239794526973, 0.8718379158575024
3943.624788100078, 0.873323918036726
3933.709064855356, 0.8739532250110646
3916.7106821501175, 0.8731756821096629
3903.9618951211883, 0.8738277566045052
3892.6296399843627, 0.8760249035109106
3881.297384847537, 0.8743777884116641
3869.9651297107116, 0.8739442840443725
3854.383278897576, 0.8737819802240946
3840.217959976544, 0.8750498905665849
3736.81113185301, 0.8760756865869413
3293.4366496247067, 0.5886095176046947
3096.538716622361, 0.8349532495934971
3076.707270132916, 0.8363673703672589
3034.2113133698203, 0.8504550472700406
3010.1302712040656, 0.838198901241708
2949.219399843628, 0.6923534883580521
2927.97142146208, 0.6284036646473466
2891.1415922673964, 0.6948551546906848
2865.6440182095384, 0.6744757902610997
2857.1448268569193, 0.6690290583130094
2842.9795079358873, 0.6600693478865163
2796.2339554964815, 0.725760938255227
2729.656956567631, 0.8283098945746474
2698.4932549413606, 0.8409428012497795
2684.3279360203283, 0.8445080529653285
2671.5791489913995, 0.8449854266929462
2657.413830070367, 0.8431248675150742
2619.167468983581, 0.853026391359984
2597.919490602033, 0.8538848768644424
2580.921107896794, 0.8564824479655353
2571.005384652072, 0.8562030804931157
2556.8400657310394, 0.8584196582930751
2545.507810594214, 0.8603759423318521
2534.1755554573883, 0.865523100995085
2518.593704644253, 0.8615052115243548
2511.511045183737, 0.8630874765319533
2497.3457262627053, 0.8665540230643665
2487.430003017983, 0.8685718784892985
2470.431620312744, 0.8652045145532405
2456.266301391712, 0.8705828201985257
2432.1852592259575, 0.8718400019075443
2419.4364721970287, 0.8747552055016405
2412.3538127365127, 0.8756570232765528
1677.1737607349492, 0.2883033753721209
1621.9290169429241, 0.26242566132287837
1579.4330601798279, 0.5670464641411687
1568.1008050430023, 0.6689059743397541
1519.9387207114933, 0.37034392439943514
1481.6923596247066, 0.7020134340931022
1466.1105088115714, 0.7053828849567999
1440.6129347537135, 0.4185686412777644
1429.280679616888, 0.4589481960961027
1386.7847228537917, 0.7195265903378423
1347.1218298749022, 0.4083906416452848
1313.1250644644251, 0.5654094229874128
1266.3795120250193, 0.49973413399839434
1249.381129319781, 0.552235842330783
1232.3827466145422, 0.5885413300084993
1219.6339595856134, 0.6198312653487652
1194.136385527756, 0.6394962081008715
1179.971066606724, 0.3768928358502116
1161.556152009382, 0.5648336415823239
1141.7247055199373, 0.45706653683360404
1113.394067677873, 0.6996102939136479
1099.228748756841, 0.6398649826074179
1083.6468979437059, 0.4178138079754096
1058.149323885848, 0.3430279793312472
1009.9872395543389, 0.7145355352662185
975.9904741438622, 0.6458150757100678
946.2433044096947, 0.5955446370429105
930.6614535965596, 0.6795120249466097
896.6646881860825, 0.670743943271884
871.167114128225, 0.5601738103612965
847.0860719624702, 0.6709302081457145
838.586880609851, 0.6925015461327557
824.4215616888191, 0.5473282942030752
806.0066470914776, 0.3926330215685028
763.5106903283813, 0.7202757605014001
752.1784351915558, 0.7594689741851552
739.4296481626266, 0.7140768183908689
726.6808611336978, 0.4352657798546377
709.6824784284595, 0.6834615477911872
671.4361173416728, 0.3813901850986014
657.2707984206409, 0.42628428393961265
638.8558838232993, 0.5510813009535699
610.525245981235, 0.6672369254379426
580.7780762470679, 0.7059323199974346
559.5300978655196, 0.6170516023515235
521.2837367787329, 0.4669577489040115
504.28535407349455, 0.6051851518844067
475.95471623143067, 0.6388425240916089
450.4571421735727, 0.7091872109955997
433.4587594683344, 0.5484925514658642
405.12812162627006, 0.6597560656459563
385.29667513682534, 0.7294875995188652
##END=

##END=

