##TITLE=YTL-3
##JCAMP-DX=5.0
##DATA TYPE=LINK
##BLOCKS=1


$$ === CHEMSPECTRA SPECTRUM ORIG ===
##TITLE=YTL-3
##JCAMP-DX=5.00
##DATA TYPE=INFRARED SPECTRUM
##DATA CLASS=XYDATA
##$CSCATEGORY=SPECTRUM
##ORIGIN=Angelika Moesle
##OWNER=
##XUNITS=1/CM
##YUNITS=TRANSMITTANCE
##XFACTOR=1.0
##YFACTOR=8.1187512e-10
##FIRSTX=3997.453
##LASTX=373.96442
##MAXX=3997.453
##MAXY=0.8717442713971437
##MINX=373.96442
##MINY=0.6568282220993908
##NPOINTS=2559
##XYDATA= (X++(Y..Y))
2559I95653088I96030446I96439300I96599347I96540174I96476522I96467125I96431004
2551I96449138I96655216I96866581I96793017I96584075I96700808I97235790I97762550
2543I97865700I97543771I97067080I96674378I96458975I96357147I96212004I96025307
2535I96087711I96593107I97206424I97354210I96899398I96235057I95829580I95886844
2527I96316768I96838609I97119940I96988672I96608304I96345034I96355459I96381081
2519I96117444I95714096I95605367I95954020I96485479I96859313I97068842I97332039
2511I97607202I97604559I97291440I96956368I96800947I96844483I97187997I97871280
2503I98455524I98290045I97372051I96413971I96023472I96243793I96713215I97086022
2495I97360231I97798670I98456846I98874877I98577615I97748675I96963123I96480413
2487I96172580I95929940I95835894I96004750I96306197I96461398I96419551I96398774
2479I96575413I96930967I97466904I98116122I98526664I98514698I98361331I98370215
2471I98543550I98824366I99186821I99338352I99054305I98647140I98527986I98601621
2463I98479311I98108266I97674525I97294964I97186381I97963417I99872600A001501335
2455A001823411A001370654A000742433A000100998I99528279I99279766I99433059
2448I99659620I99839196A000408611A001413970A002098794A002006217A001497370
2441A001103714A000939482A000791769A000376381I99630401I99028021I99208479
2434I99816731I99676286I98786117I98253557I98619315I99258842I99570567I99680103
2426A000036685A000749335A001099896A000409051I99196365I98471382I98513743
2419I98875023I99357734I99903288A000244820A000439738A000842646A001303479
2412A001258548A000681572A000237772A000317428A000534519A000482027A000403398
2405A000742360A001446199A002093435A002392165A002258474A001854393A001583267
2398A001623205A001645817A001436949A001174634A000937573A000682526A000668283
2391A001245553A002144092A002558304A002073760A000927808I99703156I98995352
2384I98868416I98993589I99591931A001132786A002890807A003148791A001937426
2377A000687592A000427038A001422192A003276974A005213983A006339671A006031324
2370A004562196A002971858A002155545A002132565A002290631A002364120A002603750
2363A003042925A003301936A003052102A002355163A001723125A001898589A003058782
2356A004126986A003973987A002669384A000979200I99886623A000290705A002072878
2349A003706899A004011135A003378950A002759979A002521377A002551918A002964883
2342A004093875A005604410A006524166A006733181A006845875A006955485A006492303
2335A005097839A003343710A002450971A003177790A004414850A004383281A003376673
2328A002867093A003429974A004305460A004999168A005675770A006187993A006002912
2321A005003940A003877958A003604484A004505812A005725326A006367276A006590020
2314A007033086A007759537A008008858A007355896A006231309A005253775A004781122
2307A004796466A005116780A005683772A006434451A007039620A007093727A006574823
2300A006012456A006100188A006701098A006909306A006603455A006291143A006240633
2293A006489146A007092993A007895871A008571004A009146733A009682156A009672171
2286A008592369A006878764A005646551A005411179A005607273A005530993A005177569
2279A005157747A005934195A007170153A008117147A008505077A008702493A009023247
2272A009342974A009514327A009643539A009798080A009824876A009640015A009319921
2265A008997698A008867751A009072069A009486429A009847048A010081392A010244082
2258A010231675A009920464A009602353A009821059A010396274A010531800A010199372
2251A010204071A011001222A012051878A012497514A012046813A011013629A009926778
2244A009159948A008692948A008291289A007940654A007977803A008744413A010141373
2237A011589578A012433348A012435697A011955190A011558303A011463522A011570857
2230A011954088A012803879A013781046A014092843A013563368A012885664A012612116
2223A012633774A012707263A012784717A012846753A012874138A012872669A012712549
2216A012195332A011413967A010817315A010740081A011024935A011289013A011427622
2209A011609914A011816947A011774366A011339082A010666812A010105179A010000561
2202A010334090A010544134A010045492A008833026A007322492A005906737A004833101
2195A003989184A002747278A000594794I97748234I94613297I91052913I86682457
2188I81481372I75691931I69520213I63257239I57371843I52348645I48644880I46605016
2180I46064527I46399010I47310030I49093525I51872175I55138454I58321699I61250411
2172I63841850I65884798I67478220I69307306I72032876I75510961I78852124I81275440
2164I82795666I84041242I85567414I87397088I89099606I90250109I90835014I91222431
2156I91825102I92881486I94366178I95932215I97149380I97920835I98381154I98394883
2148I97708369I96664320I96234396I97106798I98979348A000852337A001949687
2141A002350832A002699558A003395835A004291438A005064508A005512933A005578420
2134A005455375A005533196A005939260A006396274A006726353A007068178A007386951
2127A007297604A006577686A005313609A003289089I99637082I93172067I82744421
2120I67477926I47366780I24027459I00767133H81568622H69416361H65096195H67433541
2112H74449029H84097217H94461137I04125255I12590490I20122974I27184568I33908228
2104I39943319I44879519I48777690I52026202I54912333I57658092I60479250I63233378
2096I65505017I67278234I69015183I71012027I73148213I75150635I76730841I77722031
2088I78365669I79134482I80120753I80955199I81397384I81674163I82179558I83113484
2080I84444590I85995136I87462282I88471826I88782155I88546196I88323158I88632533
2072I89445102I90238729I90573433I90478726I90302748I90341145I90616895I90924802
2064I91076039I91106800I91217805I91549571I92065320I92639286I93210023I93785017
2056I94314200I94683262I94870032I94994399I95207526I95610139I96198495I96773710
2048I97009522I96735680I96158336I95755063I95897343I96504347I97121261I97423075
2040I97529822I97749409I98160612I98563079I98779728I98898296I99128088I99456111
2032I99623720I99513963I99435261I99889266A000967674A001992635A002056874
2025A001081028I99971272I99516826I99579303I99669165I99818199A000353549
2018A001164576A001775691A002005923A002033528A001926707A001554488A000871132
2011I99996380I99143432I98565134I98301351I97986176I97260090I96323009I95719382
2003I95661163I95872822I96020975I96070750I96204002I96477403I96670854I96583342
1995I96374694I96362947I96536429I96586426I96459636I96539660I97120307I97942493
1987I98529821I98858725I99371022A000284685A001220372A001661162A001511173
1980A001065758A000717178A000828624A001565280A002650369A003512420A003774075
1973A003474757A002940729A002618433A002835891A003484594A004071189A004190270
1966A003862688A003430488A003261117A003506180A004015393A004499058A004801826
1959A004929716A004874728A004641559A004394220A004322566A004444583A004774662
1952A005439297A006348775A007062379A007293419A007268678A007341066A007514695
1945A007561461A007410811A007222939A007131315A007111053A007152460A007347673
1938A007723637A008210605A008777450A009361548A009747349A009775908A009539068
1931A009230427A008982134A008890291A008990797A009188654A009338349A009406699
1924A009523063A009831925A010267796A010572398A010565057A010250102A009716515
1917A009147761A008842350A008998800A009517410A010079777A010391355A010387097
1910A010274477A010362282A010823114A011527688A012038883A011908424A011103416
1903A010014437A009051366A008436580A008291510A008663729A009492155A010625846
1896A011791619A012578271A012627460A011927585A010926998A010283360A010331080
1889A010750359A010905854A010501479A009754397A009015979A008418666A007856226
1882A007175586A006398184A005784499A005645596A006053569A006754692A007386070
1875A007744707A007820252A007604336A006933607A005631794A003932874A002613074
1868A002352153A002988083A003671879A003574750A002182269I99383796I95896242
1861I93249667I92654557I94026702I96470061I99329615A002323448A005068766
1854A007127718A008408535A009126544A009487457A009662847A009875020A010211559
1847A010447004A010312653A009957466A009942122A010656093A011857913A012962604
1840A013756304A014570709A015655210A016713502A017345101A017638911A017935512
1833A018242905A018290919A017930740A017150695A015942047A014382103A012595231
1826A010481657A007595893A003226318I96679003I88033092I78902708I72010338
1819I69535409I71764027I77240716I83955566I90323011I95379246I98523214I99374326
1811I97899618I94417349I89207821I82187561I73227796I62787523I52042867I42437482
1803I35160045I30742676I28864327I28666838I29355700I30450994I31678143I32935833
1795I34223990I35324643I35695615I34891562I33048012I30981131I29949930I31108434
1787I34750604I39985827I45339029I49748028I53000286I55362813I56964678I57539452
1779I56708382I54502157I51552375I48791859I47056891I46851766I48238449I50929880
1771I54554209I58697590I62745529I66083021I68606183I70730476I72761971I74494369
1763I75500022I75573291I74785831I73324117I71482109I69724383I68518378I68051672
1755I68181765I68595538I68912695I68716454I67652436I65554499I62530640I59035744
1747I55792517I53363328I51668739I50085743I48174871I46286757I45423678I46498269
1739I49622414I54028183I58699719I63022087I66798975I69946099I72455092I74467058
1731I76135731I77556772I78914234I80419703I81988530I83234180I83939341I84356711
1723I84901310I85690386I86524906I87215604I87744713I88160689I88510296I88876128
1715I89344595I89908576I90453324I90858801I91125153I91408760I91883322I92524097
1707I93113774I93517416I93853000I94305757I94881632I95441503I95881338I96178086
1699I96333581I96361259I96299663I96206057I96153271I96203855I96364416I96607716
1691I96920836I97298414I97709691I98102834I98442970I98755795I99107679I99496637
1683I99797496I99872380I99705873I99411621I99137265I98939703I98763945I98589802
1675I98528426I98707855I99154298I99795514A000443116A000852778A000984927
1668A001085139A001333359A001592885A001677827A001658225A001692069A001736780
1661A001681204A001653379A001923991A002510658A003094022A003344224A003212002
1654A002945722A002899102A003221986A003708000A004032793A004111275A004130510
1647A004294448A004579228A004732741A004591709A004352740A004350317A004643467
1640A005031985A005323593A005396863A005223087A004978758A004898221A004959964
1633A004952108A004826787A004761227A004889264A005123094A005234980A005087120
1626A004792649A004609843A004674449A004903580A005150992A005359567A005538115
1619A005682818A005772973A005815187A005862981A005984925A006189535A006381592
1612A006447813A006385923A006275432A006155544A006074272A006189095A006618579
1605A007229399A007755866A008063553A008173090A008164867A008173677A008337101
1598A008635023A008889850A009005334A009130728A009488191A010039839A010449133
1591A010448766A010112888A009678338A009308322A009139832A009302008A009734648
1584A010211045A010614613A011005480A011410663A011734428A011870613A011831704
1577A011779799A011913342A012251790A012606169A012806522A012859528A012846607
1570A012764086A012531871A012166334A011929567A012152532A012834200A013589724
1563A014070452A014239676A014216844A014141666A014210897A014549492A015019868
1556A015366245A015471964A015316689A014899906A014410148A014220147A014477030
1549A014907909A015178006A015243786A015260085A015323297A015382396A015335484
1542A015243640A015401852A016008709A016781853A017175068A017049601A016882506
1535A017171912A017821570A018286294A018200104A017665561A017021483A016532826
1528A016290846A016260305A016376229A016639132A017124118A017837428A018537670
1521A018811144A018517408A018086969A018081096A018463300A018628633A018256047
1514A017806594A017919654A018544425A019035431A019014728A018740152A018668571
1507A019025226A019717319A020346861A020469540A020101652A019739638A019743162
1500A019995639A020272491A020569459A020913927A021146729A021110902A020914514
1493A020789707A020790808A020829645A020936759A021260451A021844769A022546039
1486A023155538A023556170A023756155A023739783A023409410A022838969A022409925
1479A022398693A022534733A022214272A021180133A019858351A018954673A018791469
1472A019167727A019755349A020343484A020778034A021017664A021214052A021466896
1465A021582600A021318156A020797636A020466677A020591704A020984847A021381000
1458A021861067A022520637A022985213A022869143A022523720A022644857A023265002
1451A023774802A023823990A023635459A023481432A023355010A023207517A023167946
1444A023377549A023731487A023960764A024005329A024123088A024459921A024720034
1437A024574744A024196578A024015020A024127346A024296717A024348474A024299874
1430A024267351A024373290A024593758A024732735A024681931A024569237A024527611
1423A024523940A024520049A024600072A024840730A025201790A025600659A025980440
1416A026236442A026164421A025641332A024932353A024653079A025165082A026056866
1409A026571953A026584067A026743159A027549634A028719152A029559764A029685894
1402A029347152A029109505A029101062A028845794A028055838A027064281A026236148
1395A025601834A025221611A025453680A026501694A027715481A028109799A027625693
1388A027105100A027108331A027297083A027053269A026335040A025782731A026056940
1381A026991012A027557784A026979705A025680609A024857322A025144819A025978310
1374A026458012A026424093A026315952A026330855A026201423A025767974A025304352
1367A025128961A025263680A025561896A025862387A026073385A026313309A026789265
1360A027459039A028072503A028517992A028824210A028928167A028720840A028220070
1353A027510357A026649040A025807399A025427324A025940355A027213169A028495453
1346A029083883A028863781A028187326A027591482A027607266A028399645A029547578
1339A030461828A030992993A031500591A032340691A033271679A033534949A032821786
1332A031905040A031752555A032220656A032279095A031514173A030691547A030661887
1325A031328284A031925670A031908197A031372994A030894395A031028306A031671651
1318A031856292A030636924A028426148A027001657A027771497A030293191A032760409
1311A033638172A032622462A030590820A029016487A028922294A030031756A031209497
1304A031768046A031990790A032351336A032617249A032208028A031371746A031190629
1297A032196722A033911133A035812241A037567251A038437598A037891750A036702117
1290A036206926A036525698A036374388A034857686A032943363A032447217A033655131
1283A035053560A035545741A035428642A035057304A034402286A034010685A034660123
1276A036163463A037853794A039430036A040164196A038794327A035736109A033635456
1269A034075805A035405149A035202227A033296053A031010172A029315877A029238717
1262A031737505A035416749A037103335A036271972A035592507A036938296A039355152
1255A040822077A040801080A040358235A040316388A040495890A040615778A040736915
1248A040728839A040221314A039360804A039055688A039927356A041162140A041225792
1241A039820169A038243266A037661297A037874717A037960981A037504113A036920823
1234A036803724A037149147A037390832A037088799A036224986A035058112A034171833
1227A034227116A035134978A036049081A036530029A036994606A037851518A038950482
1220A039908048A040419537A040380920A040054072A039881618A040022283A040209274
1213A039975223A038991669A037545299A036643677A037111484A038542583A039641694
1206A039597131A038655790A037530176A036899826A037299797A038731702A040451693
1199A041655495A042226599A042524448A042751817A042725461A041973314A040175943
1192A037883748A036487155A037050549A039298401A041894979A043536414A043787350
1185A043157294A042467330A042135123A042140629A042529881A043448462A044798656
1178A046306107A047673775A048460280A048280044A047379376A046685080A046941743
1171A047647492A047167277A044663791A041785662A041078666A042620917A043796895
1164A042708796A040392079A039215000A040163609A042225570A043891381A044558659
1157A044471147A044330409A045197893A047611665A050423865A051704021A050842043
1150A048727588A046494346A044931246A044403751A044664158A045067873A045295095
1143A045613354A046169480A046338337A045381433A043596762A042074481A041305521
1136A040866274A040451399A040394796A041287755A043541627A046849166A049892701
1129A051321670A051066549A050147454A049531934A049563944A050000108A050205673
1122A049691027A048817449A048642939A049670911A051151051A051928086A051487590
1115A050014644A048114271A046728323A046595146A047521510A048610782A049170874
1108A049181666A049078150A049232250A049597935A049853570A049797994A049486930
1101A049082774A048772005A048731773A049002972A049314476A049101349A048025878
1094A046637654A045920380A046093054A046523786A046728837A046881469A047361095
1087A048332023A049554913A050345751A050066770A048687063A046624292A044371595
1080A042492878A041524595A041557118A042147457A042824940A043567616A044597643
1073A045803281A046768849A047432897A048242822A049372034A050283200A050374824
1066A049691320A048854451A048502274A048879559A049709528A050353900A050336794
1059A049801738A049307133A049255670A049624512A050175205A050779272A051442513
1052A052146059A052744106A053014350A052880366A052551387A052335692A052349201
1045A052502126A052731037A053097237A053632660A054214996A054661512A054852614
1038A054771416A054516368A054266313A054235993A054523123A054855257A054738085
1031A054094740A053505797A053583985A054202515A054793514A055122931A055168376
1024A054931977A054703065A054875813A055433554A055982780A056263156A056318071
1017A056254199A056139964A056034318A055933665A055802617A055722227A055867150
1010A056270791A056733165A057076973A057367847A057680012A057899305A057967729
1003A058040778A058197595A058195979A057855917A057346556A056957818A056844831
996A056908116A056889909A056623555A056203395A055889762A055801956A055764513
989A055467179A054826184A054173002A053819724A053687134A053507118A053184969
982A052977055A053308601A054271673A055434583A056327909A056727145A056700715
975A056627887A056898865A057462994A057726190A057303461A056531932A055881760
968A055471878A055226815A055145397A055207801A055229972A055107441A054972502
961A054918321A054746014A054417330A054268002A054518057A055005539A055469162
954A055892478A056431866A057216242A058306177A059498894A060106558A059817813
947A059329670A059160299A059097675A058770020A058173661A057630823A057375188
940A057309187A057350007A057737056A058575761A059343619A059780518A060242158
933A060819868A061284372A061621057A061877353A061929405A061799312A061959652
926A062920081A064159343A064680450A064489348A064153470A064186507A064738228
919A065431643A065821922A065989091A066364614A067126232A067903781A068449409
912A068980427A069697261A070417619A070888362A071103765A071111547A071016987
905A071207061A071999514A072633902A072497348A071985124A071507920A071201702
898A070954289A070725599A070642052A070790352A071188707A071895483A072852314
891A073598662A073741823A073283487A072128359A069951280A066396917A061120066
884A053413807A042361611A028285630A012310890I93135579I67331388I36632550
877I11571843H98725360H96635499I02731305I14561269I28951472I43137430
870I55733344I66317732I74775405I80993890I84638114I85080078I82177575
863I77556258I74381822I74973115I79012905I84338063I88840301I91534522
856I92427701I91945358I90587455I88857700I87228157I86268978I86942128
849I89800949I93860929I98312363A003501555A009400165A014706749A018599780
842A021475706A023642874A025018470A025205461A022657704A015539727A005209945
835I92804986I78251507I63176701I50013575I40515670I35981790I36950735
828I42818291I52091689I63097412I75511548I88687302I98734137A004289308
821A007842423A011601838A016005185A020008193A022985507A025371454A027736919
814A030170293A032500591A034786546A037089827A039180201A041078740A043186881
807A045642573A048221972A050806143A053393837A055910906A058527453A061678395
800A064074181A062224097A053499189A036716947A014494283I96472631I94126255
793A006788463A021814742A031615194A037007748A039916344A039748001A034821932
786A024551764A008773266I87009011I60055199I31976726I08498207H93414885
779H87896716H91717286I03274657I18110201I30931355I40381980I48094260
772I55667857I63393719I70252171I75443271I79227133I82025458I83464853
765I83067451I82148136I82165463I82870990I82945948I81717184I80937800
758I83583567I90198938I98394589A005267724A008896311A007680101I98721657
751I80447821I58971064I43178543I36896040I41142203I54386894I71078981
744I85876936I97066787A005029782A010655653A015121256A019276015A022457793
737A022820394A018841099A009787801I97043954I85358179I80082283I82632462
730I90216044I98901160A005853804A010132563A012082126A011768199A007404277
723I94442164I67548185I27412158H84749885H52093483H36227399H38843946
716H55969555H78364747H98637040I14887604I27714705I37919826I46245351
709I53398568I59961520I66124281I71557801I76030526I79853665I83449435
702I86970101I90455086I93987131I97538191A000864524A003732301A006153855
695A008299585A010278588A012100774A013808944A015448104A016934705A018170811
688A019193422A020060686A020787945A021472990A022319844A023492298A024940869
681A026387606A027611744A028678553A029764743A030901516A031998572A032963259
674A033665777A033892045A033383712A031943877A029714306A027457497A026282988
667A026767533A028437968A030234091A031149736A030309416A026788751A019669158
660A008410370I93458903I76715864I61125825I49282572I42227659I39615737
653I40723217I44865496I51016364I57634305I63357598I68033685I72826357
646I78942059I86335419I93947707A000924946A007135721A012711595A017579371
639A021491563A024183216A025243490A023824651A018621144A008480262I93585986
632I76460744I61596274I53296519I53099764I59068853I67345851I74033023
625I76230658I72985816I66254595I60155925I57953224I59519848I62060998
618I62991032I61821074I59888691I59012911I60300482I63711831I68477559
611I73783775I79091534I84080520I88560879I92450093I95743095I98484744
604A000786703A002798890A004602427A006210312A007733695A009418005A011403321
597A013538846A015504120A017040497A018061054A018598973A018544204A017270069
590A013726351A007483640I99962241I94120822I92264131I94154079I97565428
583A000531950A002668062A004322713A004984044A003312141I99077064I94295772
576I91457656I90814605I90178161I87301721I82096672I76879656I74719242
569I77066645I82738328I89371245I95547883A001064069A005507354A007328805
562A004536720I96397526I84833548I74150195I68693035I70108569I76661903
555I84983904I92245042I97013854I98864011I97660062I93275950I86106435
548I77884648I71544073I69645167I72706982I79051375I86067745I91481809
541I93900794I93106066I90361848I88024502I88083235I90827599I95054380
534I99423882A003337029A006722683A009573060A011878029A013719670A015265078
527A016731416A018292240A019874356A021138874A021854239A022240848A022742940
520A023451185A023919359A023560721A022015094A019027722A014128597A006760125
513I97212958I87715494I81989558I82683927I89069432I97756971A005590461
506A011395980A015394730A018067955A019846458A021151575A022223889A023064135
499A023685088A024225283A024724659A025067732A025309858A025781116A026646838
492A027592289A028188941A028456029A028859303A029767165A031073677A032432828
485A033703512A034967883A036223004A037294290A038004737A038316168A038397366
478A038555064A038914655A039255012A039362420A039390685A039636555A040110601
471A040530689A040667463A040596470A040600434A040845791A041237171A041596396
464A041830740A041910837A041888372A041923831A042107004A042285332A042196058
457A041691909A040778100A039613723A038608143A038356253A039227114A040977793
450A042945855A044641326A045983077A047056860A047932566A048683172A049337822
443A049802546A049847917A049135708A047269179A043601167A037024340A027111560
436A016332840A009697353A010315296A015830381A020560502A020811365A017496851
429A014419398A014930374A019828104A027478127A035409114A041898943A046557043
422A049829930A052102229A053159934A052097090A047702260A039871340A031019863
415A024691035A021746611A019057162A013070085A003994984I95698899I92063631
408I94054674I99585177A005025304A007039032A004638475A000451119I99039841
401A002907619A010528276A018579885A025100915A029973318A033553523A036031021
394A037770834A039331879A040978013A042574884A044042471A045565413A047206482
387A048595219A049255743A049147968A048677665A048214410A047724725A046808419
380A044921555A041455657A035428715A024896746A006840882I78579971I40867113
373I00642105H69853847H59149570H70801721H97167178I25887601I47330659
366I59143225I65395554I71456707I79251800I86911148I91565504I91102835
359I83844854I68611396I46305405I20713313H96381480H75606800H58588084
352H46489931H42581335H49330103H65348526H86120048I07248446I26519859
345I43474777I58103727I70313400I80138740I87950424I94352596I99835452
338A004497516A008259060A011309716A014016712A016385553A017992924A018601836
331A018558521A018365657A018055621A017226900A015389665A011859382A005753077
324I96957177I87126551I79160617I75434314I76427927I80787884I86502514
317I92009964I96430931I99365589A000783620A000779655I99073394I94644058
310I86021052I72825549I57641280I45073411I36984799I28618750I11268047
303H80950826H45481489H21547571H22072569H45779631H79885927I11497472
296I34950515I50805660I61775336I70249161I77576888I84098580I89624604
289I94060988I97671515A000866286A003890586A006719452A009138804A010934560
282A012103710A012845653A013335337A013681641A014113914A014924794A016096661
275A017173821A017608077A017127349A015759975A013708438A011354206A009303109
268A008258985A008699629A010510803A012929640A015131754A016988813A018974276
261A021300536A023614682A025629732A027496922A029342967A030950485A032151498
254A033123012A034038436A034712909A034752554A033760630A031157224A025962820
247A016943809A002534078I80065324I46313186I01783357H55531115H22935794
240H15006276H29892697H56489634H84200146I07873437I26619191I41192566
233I52459503I60877825I66721374I70429543I72215976I71274122I66193366
226I57176923I47807569I43361202I46324713I53840825I59938981I59753239
219I52001681I39458186I27892152I23116660I27433375I38636587I52263262
212I64403703I73404802I79785315I84572921I87651328I88750660I88745154
205I88520280I88610729I89402300I90928546I92718796I94309720I95816071
198I97623280I99620710A001168393A001956955A002577834A003747939A005138438
191A005792355A005608227A005395321A005470132A005251279A004299293A002988817
184A002126252A002275654A003344518A004668209A005622984A006109879A006378361
177A006603308A006817977A007160903A007988448A009600224A011875827A014417857
170A017078527A020134469A023924204A028371746A032901149A036803356A039411975
163A039519971A034887272A023236737A003993809I78089478I45982815I08136560
156H68991356H38553952H26441116H33529947H51800626H71769271H87918594
149H99065129I06473540I11861836I16203513I19719333I22473315I24543941
142I25845240I26451289I27231187I29440349I33059098I36191613I37018571
135I35741133I33888993I32508331I31695542I31278833I31207106I31376109
128I31568092I31809998I32460537I33555611I34443357I34533365I33890975
121I32588575I30198663I26451509I21499818I14991928I06152565H96016235
114H88620672H88144495H94784608I04325974I11183325I10720657I00182962
107H80426415H56860899H37570030H29847252H36020365H51389276H68140904
100H81383981H90321794H95942011H99428098I01518472I02455188I02721688
93I03265480I04685713I06978201I10093171I13822852I17296311I19510170
86I20423466I21094782I22694297I25542105I29104397I32716686I36007633
79I38873427I41538943I44377206I47268843I49522862I50770347I51601343
72I53002708I55395043I58059751I58465375I51312451I29975258H93244633
65H51216161H20065448H09026174H13661588H23102228H31657324H40996210
58H53101558H66262262H77334426H84975052H90362613H94717285H97827262
51H99679841I01429199I03635717I05109030I04484700I02256817I01042370
44I03047949I06777483I08387349I06559510I03881000I02995602I03442119
37I03145151I01427657H99191331H96619641H92685790H88042153H85881667
30H88367093H95852003I06883275I17513916I24213422I27780412I31282724
23I34695248I34912926I30529623I22895163I13297119I02777410H93618026
16H86820584H81416284H77913679H78231497H83135907H91719856I02107342
9I09855082I08275537H96608042H83244635H77872566H85659657I05008597
2I23159167I23699142
$$ === CHEMSPECTRA INTEGRALS AND MULTIPLETS ===
##$OBSERVEDINTEGRALS= (X Y Z)
##$OBSERVEDMULTIPLETS=
##$OBSERVEDMULTIPLETSPEAKS=
$$ === CHEMSPECTRA SIMULATION ===
##$CSSIMULATIONPEAKS=
##END=


$$ === CHEMSPECTRA PEAK TABLE EDIT ===
##TITLE=YTL-3
##JCAMP-DX=5.00
##DATA TYPE=INFRAREDPEAKTABLE
##DATA CLASS=PEAKTABLE
##$CSCATEGORY=EDIT_PEAK
##$CSTHRESHOLD=0.93
##MAXX=3997.453
##MAXY=0.8717442713971437
##MINX=373.96442
##MINY=0.6568282220993908
##$CSSOLVENTNAME=
##$CSSOLVENTVALUE=0
##$CSSOLVENTX=0
##NPOINTS=0
##PEAKTABLE= (XY..XY)
##END=


$$ === CHEMSPECTRA PEAK TABLE AUTO ===
##TITLE=YTL-3
##JCAMP-DX=5.00
##DATA TYPE=INFRAREDPEAKTABLE
##DATA CLASS=PEAKTABLE
##$CSCATEGORY=AUTO_PEAK
##$CSTHRESHOLD=0.93
##MAXX=3997.453
##MAXY=0.8717442713971437
##MINX=373.96442
##MINY=0.6568282220993908
##NPOINTS=73
##PEAKTABLE= (XY..XY)
2745.238807380766, 0.810680385682161
3864.299002142299, 0.8106800284571083
3801.9715988897574, 0.8106340730778158
3875.6312572791244, 0.8105447254089847
3816.13691781079, 0.8104572263798018
3855.799810789679, 0.8095908127367407
3923.7933416106334, 0.8092778884617386
3980.4546172947616, 0.809101816292589
3192.862885285379, 0.8090007865526563
3987.5372767552776, 0.8089775409442205
3885.5469805238467, 0.8089513742091029
3197.1124809616886, 0.8089222871591786
3945.0413199921813, 0.8089077440401541
3412.425328561376, 0.8088179198006274
2773.56944522283, 0.8087520564315175
3964.872766481626, 0.8086481656436618
3912.4610864738074, 0.8086466758528166
3892.6296399843627, 0.8084943859415572
3954.9570432369037, 0.8084892597620496
3269.3556074589524, 0.8084287612637325
3209.8612679906173, 0.8083525261899646
3937.9586605316654, 0.808307226805769
1497.2742104378417, 0.8071063725732756
3007.297207419859, 0.8059115375829218
1202.635576880375, 0.8055945604273207
951.9094319781075, 0.8054317794657607
3301.935840977326, 0.8040021623688297
662.9369259890536, 0.8025550209474336
3310.435032329945, 0.8023949825000289
1134.6420460594213, 0.8021525111241902
1578.0165282877247, 0.8007272448660273
1454.7782536747459, 0.7973816357727763
1096.3956849726346, 0.7972528902399969
1447.6955942142295, 0.796398994087536
1409.4492331274432, 0.7957044211204989
827.2546254730255, 0.7919308507308677
1179.971066606724, 0.791350301565059
1593.5983791008598, 0.7910763586620686
1145.9743011962469, 0.787230786315545
2949.219399843628, 0.7871416773379991
1162.9726839014852, 0.7864577740337891
2859.9778906411257, 0.7859370673712006
1243.7150017513682, 0.7785987221996743
1252.2141931039873, 0.7777383886893868
1263.5464482408129, 0.7737979852694716
2885.475464698983, 0.768725391955337
3460.587412892885, 0.7680862513858682
2838.7299122595778, 0.7675659620270914
689.8510319390148, 0.7658914890770943
1298.9597455433932, 0.7628506392307635
1432.1137434010943, 0.7606425849025248
1548.2693585535571, 0.7599003280740648
556.6970340813132, 0.7560238809286027
2906.7234430805315, 0.7550032110127416
2922.305293893667, 0.7539615005412705
678.5187768021888, 0.7494554491114992
427.7926318999216, 0.7331196635450973
436.2918232525408, 0.7315338822688344
1612.0132936982013, 0.7279560533468848
532.6159919155589, 0.7210624184554644
1476.0262320562938, 0.7208612528501059
416.46037676309606, 0.719225284701425
392.3793345973413, 0.7127562734877665
379.63054756841257, 0.7127228948659579
3367.0963080140737, 0.7023500771271683
898.0812200781857, 0.6975221602416983
869.7505822361218, 0.6840708224628852
1389.617786637998, 0.6789122199104128
519.8672048866297, 0.6737323372991703
590.6937994917903, 0.6709669802254339
798.9239876309616, 0.6669940327913335
712.5155422126659, 0.6616833181282531
461.7893973103983, 0.6568282220993908
##END=

##END=

