##TITLE=C. Zippel CZ006
##JCAMP-DX=5.0
##DATA TYPE=LINK
##BLOCKS=1


$$ === CHEMSPECTRA SPECTRUM ORIG ===
##TITLE=C. Zippel CZ006
##JCAMP-DX=5.00
##DATA TYPE=INFRARED SPECTRUM
##DATA CLASS=XYDATA
##ORIGIN=Angelika Moesle
##OWNER=
##XUNITS=1/CM
##YUNITS=TRANSMITTANCE
##XFACTOR=1
##YFACTOR=7.6637818e-010
##FIRSTX=3997.453
##LASTX=373.96442
##MAXX=3997.453
##MAXY=0.8228923041006221
##MINX=373.96442
##MINY=0.4177784900938225
##NPOINTS=2559
##XYDATA= (X++(Y..Y))
2559I41016917I41342715I41472831I41398401I41203498I41097414I41275206I41609637
2551I41672634I41241139I40571425I40078569I39958952I40140866I40372632I40425054
2543I40384065I40562792I41000740I41378335I41537229I41676523I41889547I41952544
2535I41770396I41619592I41707788I41864115I41929056I42030241I42255942I42399436
2527I42265975I42053184I42194967I42697310I42961588I42664025I42272897I42312795
2519I42525584I42391348I41951144I41459454I40853902I40051348I39461817I39646609
2511I40448775I41261674I41981865I42882338I43722224I43735135I42713023I41336648
2503I40481051I40418287I40613968I40528027I40299448I40298437I40356379I39885999
2495I38796223I37865185I38066465I39439340I41119191I42448512I43123283I42938802
2487I42023552I40974764I40646167I41247752I41566161I40732341I39646220I39641321
2479I40473507I40935332I41253274I41986065I42151336I41104647I39845090I39295069
2471I39103433I38829744I38975027I39438329I39414764I39291180I40032448I41326304
2463I41858281I41181177I39602822I37487202I35716588I36441446I41023373I45205694
2455I45803468I44444515I42681991I41120435I39966418I39144264I38432161I38002224
2447I38512345I40045826I41555350I42359382I42784497I43154159I43287387I43060830
2439I42791108I42603050I42057540I41150143I40935410I41903080I42612538I42609194
2431I43027931I43779233I43593741I42460955I41377791I41252107I42396247I43619328
2423I43219956I41905879I42126292I44344031I45853089I45512981I44545467I43889128
2415I43641883I43761578I44032542I43903359I43213190I42730833I43231623I44268590
2407I44871419I45028368I45305867I45586711I45242946I44083253I42354949I40713519
2399I40240806I41350959I42889415I43813687I44223636I44180393I43610151I43169557
2391I43809876I45194339I45743504I44860298I43470935I43262499I45313956I47334459
2383I46431262I43936570I42819805I44196648I45462039I44561410I42385048I40435398
2375I39963229I41533418I44003068I45561434I45722894I44799011I43335918I42309684
2367I42626382I43926460I44935972I45112287I44662360I43717169I42359771I40916822
2359I40000015I40492795I42766687I45316367I46466885I46315456I45466705I44535511
2351I44380818I45286346I46107411I45813424I44777157I43762589I42947668I42134225
2343I41577749I42270097I44368452I45878832I45617508I44400262I43252389I42601105
2335I42202433I41470809I40486885I40556804I42017486I42918425I43084629I44188793
2327I46314447I47412077I46900788I45729816I44650618I43856307I43105473I42316840
2319I42164168I43117839I43846430I42892682I40977719I40463397I42961123I45878676
2311I46536959I46074512I45672185I45330289I44795045I44212203I43854829I43710636
2303I43606107I43327596I42812185I42836684I44895685I48135613I49199957I47781039
2295I45566490I43837641I43477001I44735159I46324324I46810492I46549403I46399843
2287I46275793I45771736I45276702I45310301I45382786I44783690I43786155I43183791
2279I43391527I44193615I45222804I46298814I47104246I47058670I45942374I44338120
2271I43339338I43915649I45589200I46481351I46048380I45206627I44689738I44571210
2263I44552075I44370474I44006179I43552054I42936313I42024019I41141823I41297605
2255I43134949I45297779I46174840I46166053I46322380I46875589I47178287I46626631
2247I45449284I44483714I44269834I44436194I44286244I43770133I43415404I43590474
2239I44069643I44396995I44366896I44013956I43564186I43391527I43632706I43879406
2231I43691192I43261177I43171348I43601285I44089786I44192682I44003845I43809176
2223I43568152I43089605I42537019I42327028I42508165I42620316I42347405I41999831
2215I42100393I42614871I42957857I42814130I42480010I42397956I42657414I42998922
2207I43165592I43107961I42954046I42825640I42742344I42730600I42809385I42865927
2199I42835673I42908159I43264677I43820375I44344731I44572921I44298999I43626950
2191I42959568I42593561I42494010I42459322I42333561I42091760I41857193I41809750
2183I42090205I42752921I43609840I44193537I44157061I43649427I43171270I43134171
2175I43506244I43817885I43693059I43310408I43102906I43117372I43033842I42758832
2167I42572718I42703301I43023498I43220268I43096062I42655392I42065939I41637480
2159I41636469I41992442I42346938I42450845I42349427I42217677I42186101I42260220
2151I42240310I41855482I41177211I40763217I41109391I41962344I42518587I42342116
2143I41734776I41222086I41097025I41375845I41813950I42094949I42244121I42571551
2135I43094429I43412215I43225945I42594493I41736251I40962475I40662266I41023450
2127I41830672I42649635I43071483I42826883I42011419I41181877I40860902I40965429
2119I41061793I41058916I41244874I41735476I42275619I42559885I42482966I42124115
2111I41732754I41693320I42221098I43013077I43435936I43207513I42700423I42409389
2103I42379057I42405891I42496732I42798108I43236756I43543265I43592652I43529888
2095I43553607I43677348I43756600I43721368I43674704I43712813I43762045I43668793
2087I43377605I42990753I42714812I42761398I43235278I44059221I44936205I45436217
2079I45324689I44823355I44342631I43979891I43535954I42978000I42547519I42423857
2071I42588739I42979245I43477312I43819520I43826831I43655494I43553453I43481668
2063I43275021I43061141I43178814I43683026I44215236I44385251I44091419I43503522
2055I42950156I42753543I42949224I43250911I43438968I43646238I44087842I44639418
2047I44894207I44623163I44055410I43678436I43788721I44262212I44758880I45097510
2039I45376720I45763881I46223995I46552436I46693753I46842380I47112335I47310815
2031I47217252I46916109I46684342I46659454I46744772I46788249I46744695I46601668
2023I46244061I45589200I44831599I44331431I44235069I44405084I44717270I45188117
2015I45762481I46171886I46160142I45806966I45539191I45768703I46492472I47277294
2007I47710420I47867758I48212921I48966478I49738467I49946980I49494100I48838850
1999I48451766I48379358I48350193I48138258I47727918I47229385I46766938I46415942
1991I46197863I46150265I46338479I46734973I47207453I47657534I47999119I48060639
1983I47788584I47453920I47364402I47479275I47533326I47409511I47260806I47395823
1975I48022762I48957845I49710857I50000177I50009666I50046532I50157905I50173071
1967I49939047I49435458I48760453I48096569I47651389I47512095I47528194I47482928
1959I47429731I47641979I48187333I48828817I49367483I49768488I49959502I49858240
1951I49616361I49533920I49703313I49933759I50049254I50101440I50257767I50560310
1943I50858497I50954004I50746502I50273244I49714279I49288542I49067040I48996810
1935I49106161I49415314I49705335I49747567I49680681I49770588I49984468I50169649
1927I50357007I50566298I50652239I50602619I50638706I50863241I51108931I51215948
1919I51225826I51227381I51145018I50799310I50194925I49592795I49205245I49020142
1911I49015242I49251988I49640782I49954135I50193759I50630383I51350265I52038802
1903I52400842I52599556I53019071I53660010I54100914I54085437I53809026I53535338
1895I53149888I52159039I50113962I47146167I44087220I41899891I40908733I40639400
1887I40390364I39912054I39572646I39899843I40956876I42270642I43396894I44357019
1879I45457683I46867423I48464832I49951180I50983869I51240447I50517145I48902003
1871I46820292I44825221I43355906I42653681I42729900I43356373I44222158I45149463
1863I46106789I47071114I47946544I48539885I48659502I48396858I48203510I48480465
1855I49194512I50022577I50684049I51049744I51173328I51321333I51815198I52735894
1847I53829403I54733065I55297240I55637893I55865772I55922934I55761476I55451778
1839I54914435I53692365I51226214I47364791I42419502I36665592I30005532I22304073
1831I13958563I06077833I00274381H98149894I00414997I06225760I13536092I20159753
1823I24681560I26970538I28187477I29930247I32921919I36383271I38492825I37165449
1815I30599263I17964492I00287836H80522003H62177031H47629864H37659257H32143026
1807H30712520H32819275H37603570H43960775H50798395H57338447H63315494H68877145
1799H74161919H78992724H83119747H86658563H89993920H93326400H96590359H99668829
1791I02400812I04582539I06237270I07670731I09093693I10435380I11549266I12269768
1783I12313943I11434859I09624503I07053436I04020699I01084246H98998724H98347908
1775H99217815I01193053I03666746I06223971I08737019I11167082I13428763I15417300
1767I17081439I18527812I19991994I21509218I22721099I23243199I23054518I22299795
1759I20932909I18839454I16250187I13831479I12160884I10910660I08680866I04106326
1751H97413136H90774231H86909696H87146597H90684713H95607991I00421452I04621428
1743I08212197I11190570I13530257I15327704I16806585I18200770I19591689I20860734
1735I21872189I22654758I23295619I23771443I24051976I24287088I24721147I25433172
1727I26264970I26985706I27462463I27688165I27748207I27822559I28154189I28858437
1719I29720334I30298429I30335450I30022798I29784653I29890893I30352793I31039388
1711I31722092I32133208I32169607I31963736I31732748I31708015I32119053I32976128
1703I33943953I34662976I35092915I35380836I35534830I35403313I34941333I34387967
1695I34060304I33949008I33742439I33347890I33099011I33259927I33584635I33592568
1687I33153765I32639831I32518658I32909942I33570947I34188709I34557825I34573226
1679I34283205I33955230I33899466I34175721I34581004I34910767I35089493I35069894
1671I34857258I34659245I34752341I35146735I35601949I35943845I36121404I36063696
1663I35785263I35544083I35617193I35981177I36377515I36600417I36611072I36494877
1655I36397115I36409559I36483211I36522176I36512377I36486011I36461668I36506466
1647I36726100I37120651I37571198I37973912I38255145I38328877I38198060I38034889
1639I38030923I38236014I38590666I38996959I39330923I39486550I39435685I39235649
1631I39017958I38921594I38932018I38855408I38576822I38268446I38202571I38420884
1623I38735248I39005592I39259759I39507704I39600643I39422697I39115721I38920351
1615I38860776I38816911I38843433I39147142I39733950I40290426I40489216I40309948
1607I40033304I39981273I40286071I40829403I41294650I41356945I41017151I40694698
1599I40795338I41256774I41695811I41876247I41838138I41699777I41533029I41367291
1591I41202332I41038150I40921722I40934632I41119113I41417223I41677378I41740764
1583I41599681I41496864I41739053I42329128I42916092I43208057I43261877I43303409
1575I43490456I43888739I44450815I45018412I45488015I45870043I46110678I46096211
1567I45883809I45658341I45442828I45129942I44778401I44603409I44671306I44812000
1559I44873364I44938694I45210283I45705006I46170253I46336846I46151820
1552I45742493I45326711I45179795I45449439I45942918I46296870I46346177
1545I46182541I45979082I45944162I46253083I46793304I47146633I47038760
1538I46684886I46539370I46844791I47527261I48316050I48812484I48705933
1531I48119203I47549816I47384545I47638168I48063283I48265419I47927955
1524I47178521I46478084I46013537I45600633I45262234I45373842I46070624
1517I46955697I47592514I47956965I48235165I48443133I48453011I48213932
1510I47810127I47446532I47407178I47796827I48314961I48568038I48594560
1503I48756329I49104216I49249266I48990354I48701500I48820262I49256810
1496I49594818I49589840I49215976I48563606I47915589I47607758I47707465
1489I48021749I48319783I48412568I48297071I48295673I48714100I49332251
1482I49527232I48908847I47738419I46805825I46819669I47776760I49038108
1475I50052054I50754357I51249858I51432628I51088863I50290666I49493944
1468I49088972I48967489I48814118I48644180I48634459I48676301I48632048
1461I48755165I49266843I49811808I49892538I49570319I49303163I49368803
1454I49752077I50287088I50651306I50487902I49764055I48893992I48364737
1447I48273118I48319083I48221010I47987686I47774584I47664222I47690588
1440I47916211I48323127I48663080I48618359I48245120I48066237I48457522
1433I49143492I49592329I49641793I49435069I49082906I48702511I48469810
1426I48384803I48243020I47937911I47573537I47278228I47093357I47033160
1419I47118090I47331970I47586992I47760896I47845359I48082260I48812407
1412I49965724I50800710I50631784I49920537I50003678I51422439I53141799
1405I53808871I53254106I52317468I51572466I50835320I50006477I49628883
1398I49993178I50469311I50446603I50112173I49972490I50198192I50555410
1391I50772245I50715159I50296654I49609361I48961500I48563995I48361781
1384I48209421I48073083I48028049I48084748I48108001I47979053I47721618
1377I47421333I47178287I47097480I47110390I46972730I46693984I46700519
1370I47247584I47966065I48352682I48418479I48476110I48607937I48718455
1363I48842970I49051407I49213334I49154145I48950534I48876415I49059185
1356I49287453I49216911I48799574I48367848I48141602I47910923I47520184
1349I47314782I47639334I48196899I48409535I48191300I47967232I48112514
1342I48663935I49477456I50470169I51624109I52771748I53554471I53712819
1335I53285760I52517737I51828187I51768536I52528159I53482762I53717719
1328I53045903I52078545I51365742I50978968I50848617I50960926I51209493
1321I51459616I51775147I52223516I52486394I52084222I51155284I50573920
1314I50885329I51524013I51722338I51765347I52429074I53488984I53912233
1307I53424587I52823624I52709918I52734961I52306191I51521446I51088787
1300I51493447I52620399I54054327I55208344I55345383I54260507I52800758
1293I51997815I51930073I52036858I52108566I52477217I53529347I55123415
1286I56288709I55926980I54215165I52809313I53272616I55562451I58119753
1279I59297647I58934906I58482182I59223295I60623702I61035362I59748039
1272I57531623I55207955I52842990I50818910I50470791I52511360I55429613
1265I56780088I56189858I55723522I56801865I58292024I58780758I58779514
1258I58940740I58612377I57519646I56858174I57651784I59242116I60216864
1251I60094135I59534781I59378688I59783115I60161488I59937653I59158664
1244I58118898I56847908I55480088I54640902I54849026I55787686I56552442
1237I56497845I55737133I54956353I54722954I54878814I54785405I54238963
1230I53802104I54052927I54842027I55512907I55624904I55269942I54785329
1223I54333537I53868524I53431120I53220585I53353112I53818126I54620681
1216I55610981I56291665I56284820I55907614I55820196I56180992I56630295
1209I56999179I57341698I57276756I56238934I54670689I53934321I54588171
1202I55782553I56788099I57931617I59494806I60905323I61597360I61677001
1195I61426178I61024240I60835404I61125191I61545251I61605060I61452544
1188I61496564I61526274I60936666I59650975I58285800I57507357I57466292
1181I57898485I58655075I59790893I61119203I62269954I63338886I64685706
1174I65842290I65684174I64152484I62757055I62862750I64286723I65770426
1167I66345102I66180764I66166376I66741440I67376158I67264318I66339033
1160I65394153I65078078I65094644I64739992I63866272I62962224I62564408
1153I62823708I63430504I63902750I64039011I63891240I63319598I62149792
1146I60920800I60658078I61457133I61994942I61349571I60645634I61548362
1139I63913172I65881177I65940208I64417693I63064729I63232724I64323277
1132I64712460I64278245I64407584I65759382I67704288I69584019I71253759
1125I72447596I72391132I70509457I67393579I64682517I63622918I64134516
1118I65523570I67129457I68109882I67709110I66075380I64192460I62939981
1111I62636893I63250689I64375697I65151653I65152273I65019825I65291491
1104I65387465I64447483I62666214I61158557I60825060I61707644I63076630
1097I64067866I64411005I64363097I64076187I63568554I63173693I63329631
1090I63925927I64404316I64520591I64480070I64530935I64640208I64506980
1083I63832287I62405748I59981207I56303331I51365042I45738682I40740663
1076I38054644I38662451I41898802I46101966I50033310I53026615I54744809
1069I55560274I56222134I56929493I57360830I57518790I57926017I58845622
1062I59815234I60182409I59848446I59333890I59304803I60090713I61218910
1055I61654680I61129625I60272006I59576544I59000393I58327178I57620286
1048I57141739I57005556I57116307I57371718I57805000I58474249I59241338
1041I59917587I60639023I61611204I62416714I62558108I62289475I62099005
1034I62133304I62160136I61863193I61204831I60551138I60391701I60791072
1027I61456588I62302930I63151527I63475145I63156427I62793065I62914315
1020I63312987I63372328I62971635I62583929I62554608I62707357I62767010
1013I62771910I62801775I62802785I62832263I63105640I63626651I64010079
1006I63900262I63338108I62726567I62588984I62920848I62874806I62046585
999I60934411I59937575I58925963I57651007I56224701I54918012I53795805
992I52811724I52071623I51935517I52930097I55048829I57113974I58220627
985I58586789I58561823I58359532I58324767I58692951I59174453I59424031
978I59571802I59674542I59502194I59152676I59143109I59740651I60303582
971I59840202I58167896I55654770I52786370I50191270I48426801I47471653
964I46752006I46164731I46708996I49413992I52756971I54739831I55821285
957I56624773I57090875I57277456I57442260I57573932I57562888I57768368
950I59001638I61256086I62746244I62741500I62194823I61719155I61280274
943I60847070I60678844I60768440I60580535I60072434I59992795I60607836
936I60988231I61111270I61839939I62691958I62845717I62570552I62352239
929I62102661I61697534I61889790I63623228I65448907I65479161I64392494
922I63149116I62256965I62043474I62323385I62473800I62553208I63290430
915I64552945I65113465I64724671I64046711I63573218I63330953I63126560
908I62833585I62346950I61835272I62478934I65714817I68552496I68693890
901I68148458I68710534I70384707I71501237I71710372I71699095I71708739
894I71646908I71774847I72791593I74198844I74439011I73613902I72634955
887I72036947I71730283I71336122I70964671I71132275I71720172I72048613
880I72202529I73116690I75187746I77088554I77951150I78380854I79060292
873I80189499I81534219I82748901I83721392I84605221I85648566I87026107
866I88731387I90656152I92740351I94801374I95969236I94005975I84719628
859I62835063I26245526H81051725H40873986H18945868H19034607H33599897
852H52223223H70478987H88997318I05233902I14801171I19759526I24521578
845I31154183I37970959I43046442I46886789I49929092I51767991I52736517
838I55045018I59636666I61268841I58800435I54524707I49955147I46015793
831I43194136I41753519I41911713I43685748I46080112I45166496I30693214
824H95133723H58586260H37080693H27825066H28965162H39245078H52015643
817H62644145H72546853H83646745H94821769I04276654I13342278I23696002
810I32913442I38904174I43328608I47532783I51052155I53612490I55559496
803I57241057I59734504I65201584I71579867I74511186I75327351I75912759
796I76998102I79156499I82914794I87482487I91318634I94433112I98120242
789A003345365A008280387A008761578A003253124I92446675I76807710I57271001
782I35996263I14220118H91116906H67079544H46913795H38155380H42624845
775H52275099H60894530H68379855H76156056H84116660H90282930H93835667
768H96135224H99455025I05523379I09669535I03519675H86458527H62799771
761H40566777H29834058H35248482H50590971H66392173H79161572H89186310
754H96571228I01018371I01514961H96307495H87239149H79910462H78071330
747H82933478H92420483I01828703I08794495I14031437I18247435I21392089
740I24033776I27512239I32047423I36095817I39059101I41562039I43971647
733I46117211I47837270I49441991I51556445I54504641I57774435I60513418
726I62208901I61757264I55404880I35464131H94065335H35010570G77258060
719G37301668G21124970G29744247G56710126G86862972H10224785H27085975
712H40125096H50545237H58891449H65980358H72828554H79841864H86205993
705H91174770H95172454H98801877I02024228I04765933I07430641I10240244
698I12627608I14076156I14896678I15643313I16496421I17222757I17504456
691I17197558I16370660I15431378I15138946I16080250I18144148I20816947
684I23838018I27183098I30471401I33022479I34634746I35683690I36663259
677I37903839I39490358I41311527I43212335I45063289I46641022I47589870
670I47573771I46024426I41498030I32414674I19681049I07778760I01884779
663I03448123I09418555I16054429I21764474I26489194I30325030I33221584
656I35184922I36379305I37080052I37463869I37435480I36701524I34930831
649I31882774I27633723I22844527I18733992I16559652I16909637I19422218
642I23130193I27037348I30509511I33310091I35389625I36712490I37318820
635I37478102I37649595I38247758I39503193I41454165I43855218I46126855
628I47642756I48133124I47695721I46469684I44507124I41893124I38719616
621I34968943I30642194I25945628I21200608I16680513I12654596I09428667
614I07211707I06010558I05666795I05933172I06567034I07457241I08633268
607I10117049I11815332I13572568I15248219I16742655I18065209I19383720
600I20864934I22430845I23804031I24815177I25539412I26101955I26500860
593I26716140I26891988I27259939I27832903I28224497I27834381I26253691
586I23470845I19688362I15063349I09672413I03557785H96700411H89082559
579H80804635H72044121H63132799H55042003H49574848H48456840H52052042
572H59129595H67781381H76438300H84289008H91135883H97028931I02030684
565I06228871I09807585I12968181I15798084I18275200I20348434I21935111
558I22811940I22547973I20798670I18013801I15732754I15618270I18039933
551I21922045I25898341I29197143I31599831I33212095I34429888I35734865
544I37319520I38988326I40435553I41560016I42517498I43537042I44732825
537I46074435I47457031I48750029I49854273I50797599I51712538I52641787
530I53454453I54070971I54640202I55343672I56122661I56700992I56661016
523I55160902I50564276I40934321I25784324I07779615H92306155H84566663
516H86476493H95914189I08601536I20770827I30634261I38081010I43601129
509I47650923I50643139I53047459I55326406I57807100I60566693I63399005
502I65986250I68195045I70187315I72249894I74586549I77204749I79883768
495I82323241I84427507I86359580I88322917I90480692I93057282I96282667
488A000209032A004682541A009462792A014343606A019251794A024190628A028856475
481A032271240A033294907A032091892A030933130A032836893A039265419A049386831
474A060948548A070713907A073741823A062750737A029300333I68232143H84052652
467G93247944G17385730F70999955F54837957F59585389F74636457F93554704
460G13786562G34104982G53328727G70592167G85685311G98793262H10127022
453H19914082H28515936H36329703H43598503H50351114H56457887H61791114
446H66436116H70672568H74682230H78414315H81774094H84785365H87539670
439H90101560H92489314H94718407H96824851H98829409I00747172I02686867
432I04820375I07179041I09592072I11860752I13901632I15738276I17429481
425I19014058I20544270I22163145I24027321I26118521I28230331I30178814
418I31986603I33833047I35822906I37867983I39852867I41855482I44028033
411I45762326I44470103I36156403I19527834I00061199H87578090H88079502
404H98992347I12955506I24522511I32504114I37999191I42207489I45724994
397I48607004I50704815I52131198I53389200I54993298I57100052I59527004
390I61955434I64133974I66074524I68012586I70098886I72363367I75042151
383I78554991I82922960I87354391I90310289I89417593I80896002I59450163
376I20407465H64410869H01223947G47504899G18057935G17171617G37257103
369G64846113G87838186G99166580G97317181G86087016G73462823G67984079
362G73860872G89056834H08073155H26175159H41260914H53275278H63070426
355H71493866H78803187H84810797H89466143H92836421H94443163H92986757
348H86806490H74262015H53468781H22135320G79057139G27606771F78259269
341F45620092F40062446F60989996F98137486G39035105G75294722H03634644
334H23728141H36233496H41833256H40723491H32133071H13751779G81983170
327G34786209F76376038F18836864E76827926E59079485E64503786E85603995
320F14351922F45065793F74194776F99808081G21548686G40095559G56150929
313G69936373G81548566G91456331H00339184H08495003H15759524H22051402
306H27644240H32826508H37631336H41995725H45934381H49467752H52477001
299H54714495H56074303H56857414H57566251H58436158H59389984H60352987
292H61308991H62169409H62861058H63424922H63820250H63795672H63152088
285H62048003H60933262H60233759H60106364H60432784H61093011H62274483
278H64239221H66691294H68852646H70448033H72115207H74535859H77658658
271H81043792H84466101H87904432H91344474H94842224H98539855I02494453
264I06641308I10871384I14925144I18325521I20756283I22469888I24057731
257I25847788I27663744I29103582I30179203I31819311I35381536I41406801
250I49146137I57382140I65446884I73553549I82344785I91943008A001427058
243A009129684A012072125A003741003I73969720I15857115H36776206G60716756
236G13633191G03633651G16893107G32147866G36715093G30852842G22993579
229G22458880G33511252G53933813G78456720H02889332H25447732H45898060
222H64493854H81518449H97150648I11326597I23537420I32256325I34448943
215I26156708I03412580H64477988H14495769G64904833G27781064G14682057
208G27032951G47624982G65590570G81569487G96073099H07544522H14690827
201H15961193H07575009G83488572G38600346F75479688F09025617E60846015
194E45133592E59910777E92476068F30181007F65620376F95885760G20391402
187G39800483G55535577G68901195G80299742G89562289G96915398H03051491
180H08406574H13145682H17663910H22218617H26404593H29836936H32862362
173H36001494H39244689H42275171H44846472H46790678H48165963H49457408
166H51279817H53799400H56529437H58702535H59838431H60034889H59900884
159H60184214H61225150H62784294H64497199H66255834H67899053H68912377
152H68970861H68514326H68333190H68709619H69424055H70481554H72133017
145H74178716H75894112H76746597H76914046H77098914H78033998H79974548
138H82428021H84620015H86277312H87695218H89101303H90140058H90206322
131H89480375H89196577H90271497H92147650H93793980H95219041H96972311
124H98840064I00273603I01633256I03724533I06296612I07944886I07525991
117I05267812I02394512H99705537H96298083H89549828H76524318H54934363
110H22384510G77624922G26909134F85374076F65532257F69468111F91952162
103G24107854G56179550G81986592H00936960H15123175H26250289H35342667
96H43410211H51127380H58453190H65279765H71713113H77384270H81535482
89H84047130H85639095H87299502H89610492H92289122H94705030H96956056
82H99627530I02591671I05081853I06758437I07729994I07765150I06750504
75I05540489I05082709I04777444I02379346H94780160H77244587H41834112
68G80987657F99517438F22316727E79083152E80549356F14382604F59937941
61G04089487G41951103G70233936G88955260H02279580H13516822H23453597
54H32301764H40220681H46531067H50412634H51931102H51943080H51879227
47H53241913H56787804H62087668H67576834H71668081H74096588H75807938
40H77763265H80232371H83210043H86700250H90193178H92768446H93883810
33H93212383H90984145H89135057H89557606H92426083H95673009H96238276
26H93771114H90903959H88721530H84942469H77495177H66792012H52789966
19H32253621H03700441G76662541G61849541G59440011G67016565G83114477
12H04403211H25324928H40871497H48614955H49789972H48169541H45609206
5H41472616H36027627H33197881H40152239H56553938
##END=


$$ === CHEMSPECTRA PEAK TABLE EDIT ===
##TITLE=C. Zippel CZ006
##JCAMP-DX=5.00
##DATA TYPE=INFRAREDPEAKTABLE
##DATA CLASS=PEAKTABLE
##$CSTHRESHOLD=0.93
##MAXX=3997.453
##MAXY=0.8228923041006221
##MINX=373.96442
##MINY=0.4177784900938225
##$CSSOLVENTNAME=- - -
##$CSSOLVENTVALUE=0
##$CSSOLVENTX=0
##NPOINTS=37
##PEAKTABLE= (XY..XY)
376.7974837842062, 0.6385446756206365
393.7958664894445, 0.58201825344936
416.46037676309606, 0.6814137067578562
440.54141892885036, 0.6528616515680669
464.62246109460466, 0.4437966920984233
522.7002686708365, 0.5100493998509522
556.6970340813132, 0.6814608543434898
585.0276719233775, 0.6654716097857941
599.1929908444095, 0.6590092744603111
647.3550751759185, 0.4177784900938225
668.6030535574664, 0.5477167341223163
696.9336913995307, 0.5536767215792384
705.4328827521499, 0.5392494768401351
772.0098816810005, 0.6591667498487375
830.0876892572319, 0.42846631818963726
854.1687314229866, 0.49052989245182826
886.7489649413601, 0.5885662407329962
898.0812200781857, 0.549624678584117
947.6598363017979, 0.6802204812220761
1029.818686043784, 0.5018535232133345
1104.8948763252538, 0.6779125892786133
1155.8900244409692, 0.7017098633373485
1185.6371941751368, 0.6502388088477512
1239.4654060750586, 0.6940832700385331
1286.210958514464, 0.7024313179611933
1313.1250644644251, 0.6911848154997222
1347.1218298749022, 0.7013425198825982
1389.617786637998, 0.5526544420611545
1432.1137434010943, 0.6729347077955794
1449.1121261063327, 0.6359667150720544
1473.1931682720874, 0.6423439946816084
1535.5205715246284, 0.6344270674394599
1583.6826558561374, 0.6276222438363602
2850.0621673964033, 0.6797082386448332
2888.3085284831895, 0.6884742347398474
2932.2210171383895, 0.6366399491808136
2961.9681868725565, 0.6883224811309129
##END=


$$ === CHEMSPECTRA PEAK TABLE AUTO ===
##TITLE=C. Zippel CZ006
##JCAMP-DX=5.00
##DATA TYPE=INFRAREDPEAKTABLE
##DATA CLASS=PEAKTABLE
##$CSTHRESHOLD=0.93
##MAXX=3997.453
##MAXY=0.8228923041006221
##MINX=373.96442
##MINY=0.4177784900938225
##NPOINTS=226
##PEAKTABLE= (XY..XY)
3990.370340539484, 0.7212365233440264
3980.4546172947616, 0.7203640309084673
3974.788489726349, 0.7206898290020798
3962.0397026974197, 0.7216367091693026
3950.707447560594, 0.7219690046171251
3943.624788100078, 0.7221373878661874
3932.2925329632526, 0.719983037491953
3916.7106821501175, 0.7207160552297777
3911.0445545817042, 0.7206242048049046
3905.3784270132915, 0.7187594135656633
3892.6296399843627, 0.720890697489436
3885.5469805238467, 0.7201206054407757
3871.381661602815, 0.7194986305365859
3865.715534034402, 0.7198522650184523
3855.799810789679, 0.7171127757072498
3840.217959976544, 0.7188644372650723
3821.8030453792026, 0.7211123670133538
3817.553449702893, 0.7223951185489869
3809.054258350274, 0.7213550766838253
3803.3881307818606, 0.7218561132793202
3793.472407537138, 0.7231865488653129
3786.3897480766223, 0.7224883400244239
3770.807897263487, 0.720580037664013
3760.8921740187648, 0.7228245692914443
3752.392982666145, 0.7228957972458718
3745.310323205629, 0.722556526990233
3736.81113185301, 0.7203673087079432
3726.8954086082877, 0.7221655806202951
3714.146621579359, 0.7203955006956727
3702.8143664425334, 0.7237528525257512
3691.4821113057073, 0.7216046416071168
3677.3167923846754, 0.7207686272401692
3657.4853458952307, 0.7220540603330542
3650.4026864347147, 0.7207506265494774
3631.9877718373727, 0.7225506864221233
3620.655516700547, 0.7230601868982381
3609.3232615637216, 0.7244394384751623
3602.2406021032057, 0.7228354771520803
3589.491815074277, 0.7229546857452229
3569.6603685848318, 0.7212705574326221
3562.577709124316, 0.7251210176759235
3552.6619858795934, 0.7236677968098221
3546.9958583111807, 0.7230129803014846
3537.0801350664583, 0.7229946814896808
3529.997475605942, 0.7228259411083866
3517.248688577013, 0.722178872683449
3511.5825610086004, 0.7219281160420875
3503.083369655981, 0.7222332311213782
3491.7511145191556, 0.722488161458308
3487.501518842846, 0.7225686871128151
3466.2535404612977, 0.721782442111255
3454.921285324472, 0.7227974494667887
3447.838625863956, 0.7227734886529911
3442.1724982955434, 0.7223671641384932
3430.840243158718, 0.7216496433338464
3422.341051806098, 0.7220708693056761
3415.2583923455823, 0.720980402055405
3405.34266910086, 0.7212362252229144
3388.3442863956216, 0.7209030354117558
3377.012031258796, 0.7210552657079183
3372.7624355824864, 0.7212070193168528
3361.430180445661, 0.7216932134661357
3351.514457200938, 0.7222187473401543
3341.5987339562157, 0.7231007183410438
3334.5160744956997, 0.7232117021635587
3326.0168831430806, 0.7224760618796021
3307.6019685457386, 0.7222530803162402
3293.4366496247067, 0.7227414808683034
3282.104394487881, 0.7225057444728917
3267.939075566849, 0.7232145622869265
3245.2745652931976, 0.7254991494363137
3232.525778264269, 0.7236411536723943
3221.1935231274433, 0.7246406043172523
3191.446353393276, 0.7251089180972177
3178.697566364347, 0.7260394062015483
3173.0314387959343, 0.725960012487613
3151.7834604143864, 0.726152594894087
3147.5338647380768, 0.7260894729216696
3134.7850777091476, 0.7277020774578655
3114.953631219703, 0.7272904480736058
3107.870971759187, 0.7278145518859406
3097.955248514464, 0.7285211050524534
3079.5403339171226, 0.7273045739562195
3042.7105047224395, 0.7200679744192643
3018.6294625566848, 0.7224292124150805
3003.0476117435496, 0.7266824802634118
2961.9681868725565, 0.6883224811309129
2932.2210171383895, 0.6366399491808136
2888.3085284831895, 0.6884742347398474
2850.0621673964033, 0.6797082386448332
2801.9000830648943, 0.7125666701580715
2789.1512960359655, 0.7140406928271127
2767.903317654417, 0.7151067218099799
2759.404126301798, 0.7146619519340824
2748.0718711649724, 0.7157201730560518
2738.15614792025, 0.7163024511032741
2726.8238927834245, 0.716980572405687
2716.908169538702, 0.7176343167509507
2708.408978186083, 0.7176837887616042
2694.2436592650506, 0.7188864315524601
2681.494872236122, 0.719569023138797
2674.412212775606, 0.7190179788343007
2658.8303619624703, 0.7194887956054019
2647.4981068256448, 0.7203811372358231
2638.9989154730256, 0.7209278905888896
2623.4170646598905, 0.7211018768288259
2613.501341415168, 0.7215426531080275
2585.1707035731038, 0.7239234414112156
2568.1723208678654, 0.7243651710648731
2558.2565976231426, 0.7249509652551851
2549.7574062705235, 0.7254071196789466
2538.425151133698, 0.726054843357228
2525.676364104769, 0.7244283512820322
2508.677981399531, 0.726072188794576
2495.929194370602, 0.72706412893327
2484.5969392337765, 0.7262259089299204
2476.097747881157, 0.7267531119756151
2467.5985565285378, 0.7256113249768985
2446.3505781469894, 0.7270127501737046
2443.517514362783, 0.7270109024359126
2435.018323010164, 0.7275252303281833
2422.269535981235, 0.7267358263157652
2415.186876520719, 0.7262691817074759
2405.2711532759968, 0.7265772772315087
2384.023174894449, 0.7257855495604487
2368.4413240813133, 0.7279983722906826
2354.2760051602813, 0.7277748550289729
2347.1933456997654, 0.7280381879362682
2330.1949629945266, 0.7265480115479489
2320.279239749804, 0.7258348430049864
2316.0296440734946, 0.7255256132412472
2296.19819758405, 0.7271981799726247
2283.449410555121, 0.7260013785162567
2276.366751094605, 0.7265014019597977
2259.3683683893664, 0.7294146384009444
2248.036113252541, 0.7287096333183551
2235.287326223612, 0.7284991107650656
2221.1220073025797, 0.7301360930247892
2215.455879734167, 0.7288936935994677
2202.707092705238, 0.7295384368330071
2189.9583056763095, 0.7302122671839903
2181.4591143236903, 0.7345598302035887
2168.7103272947616, 0.7284200749497404
2161.6276678342456, 0.7324456533735499
2155.961540265833, 0.7347876989606045
2150.29541269742, 0.7333152259082433
2141.7962213448004, 0.7352468928402278
2130.463966207975, 0.7316159570283183
2120.548242963252, 0.7316788398907437
2114.8821153948393, 0.7309731205436907
2100.7167964738073, 0.7305274570708352
2089.384541336982, 0.7325197422177232
2078.0522862001562, 0.7310744487675157
2062.470435387021, 0.7363632881970846
2056.8043078186083, 0.7368362508270899
2046.8885845738857, 0.7337812742743085
2031.3067337607504, 0.7378359995930599
2022.8075424081312, 0.7404488288160757
2014.308351055512, 0.739614780975538
2007.2256915949959, 0.7376883591358174
1994.476904566067, 0.736227389419938
1988.8107769976543, 0.736217852609866
1980.311585645035, 0.7380717949995913
1974.6454580766222, 0.7390018064166941
1959.063607263487, 0.7384995781031292
1946.3148202345583, 0.7377439100581947
1939.2321607740419, 0.7395701371474185
1930.7329694214227, 0.7363553607811908
1919.4007142845971, 0.7381553018652187
1912.3180548240812, 0.7391564806928725
1896.736204010946, 0.7189046108092679
1871.238629953088, 0.7351902689883985
1855.656779139953, 0.733428176257168
1838.6583964347146, 0.7373316844317108
1830.159205082095, 0.7360232438994841
1820.2434818373727, 0.7378635968713216
1811.7442904847535, 0.7376808486296534
1793.329375887412, 0.737707193645969
1774.91446129007, 0.729542608995819
1763.5822061532444, 0.7344391907823841
1752.249951016419, 0.7350663502349616
1736.6681002032838, 0.7251200045239695
1721.0862493901482, 0.7338553033409838
1706.9209304691162, 0.7362433040292239
1701.2548029007035, 0.7357175310452131
1687.0894839796715, 0.7370240058174081
1675.757228842846, 0.7372891266849972
1655.9257823534008, 0.7371295652151649
1648.8431228928848, 0.7419678532118464
1641.7604634323689, 0.744688983933747
1638.9273996481625, 0.7446489889556674
1624.7620807271305, 0.7441261374052788
1583.6826558561374, 0.6276222438363602
1548.2693585535571, 0.7217393478998154
1535.5205715246284, 0.6344270674394599
1473.1931682720874, 0.6423439946816084
1449.1121261063327, 0.6359667150720544
1432.1137434010943, 0.6729347077955794
1389.617786637998, 0.5526544420611545
1347.1218298749022, 0.7013425198825982
1313.1250644644251, 0.6911848154997222
1286.210958514464, 0.7024313179611933
1239.4654060750586, 0.6940832700385331
1185.6371941751368, 0.6502388088477512
1155.8900244409692, 0.7017098633373485
1104.8948763252538, 0.6779125892786133
1029.818686043784, 0.5018535224469564
947.6598363017979, 0.6802204812220761
898.0812200781857, 0.549624678584117
886.7489649413601, 0.5885662407329962
854.1687314229866, 0.49052989245182826
830.0876892572319, 0.42846631818963726
772.0098816810005, 0.6591667498487375
705.4328827521499, 0.5392494768401351
696.9336913995307, 0.5536767215792384
668.6030535574664, 0.5477167341223163
647.3550751759185, 0.4177784900938225
599.1929908444095, 0.6590092744603111
585.0276719233775, 0.6654716097857941
556.6970340813132, 0.6814608543434898
522.7002686708365, 0.5100493998509522
464.62246109460466, 0.4437966920984233
440.54141892885036, 0.6528616515680669
416.46037676309606, 0.6814137067578562
393.7958664894445, 0.58201825344936
376.7974837842062, 0.6385446756206365
##END=

##END=

