##TITLE=LL- 190
##JCAMP-DX=4.24
##DATA TYPE=INFRARED SPECTRUM
##DATE=26/7/2019
##SAMPLING PROCEDURE=Diamant-ATR
##ORIGIN=Rieke
##XUNITS=1/CM
##YUNITS=TRANSMITTANCE
##RESOLUTION=4
##FIRSTX=3997.453
##LASTX=373.96442
##DELTAX=-1.4165319
##MAXY=1.0000252
##MINY=0.41825861
##XFACTOR=1
##YFACTOR=9.31346e-010
##NPOINTS=2559
##FIRSTY=0.99913931
##XYDATA=(X++(Y..Y))
3997+1072790679+1072839382+1072625755+1072388961+1072257124+1072179814
3989+1072147239+1072192294+1072286180+1072379425+1072403873+1072275620
3980+1072094312+1072112680+1072298659+1072277540+1071914925+1071554422
3972+1071495991+1071660019+1071850479+1071984043+1072070697+1072180006
3963+1072377377+1072662106+1073021329+1073422663+1073714816+1073741823
3955+1073519301+1073149902+1072668058+1072047018+1071227518+1070291094
3946+1069662950+1069705957+1070159833+1070374292+1070176537+1070054428
3938+1070391635+1071122433+1071937580+1072473311+1072444512+1071934188
3929+1071443641+1071356283+1071561206+1071663987+1071460088+1071127105
3921+1070787593+1070305109+1069751715+1069622311+1070129626+1070783177
3912+1071069058+1070957765+1070697932+1070412563+1070043420+1069663718
3904+1069535785+1069515049+1069056373+1068396229+1068427269+1069268976
3895+1070159513+1070362452+1069579624+1068306312+1067663512+1067967568
3887+1068539266+1068721341+1068505155+1068137932+1067560282+1067026280
3878+1067052199+1067251490+1066764463+1065610508+1064887646+1065272404
3870+1066133822+1066787438+1067362399+1067905170+1067958800+1067267874
3861+1066422327+1066157566+1066661361+1067768341+1069156146+1070254295
3853+1070299350+1069525737+1068852666+1068388678+1067959696+1067490524
3844+1067107494+1067260002+1068367558+1070085467+1071348283+1071488632
3836+1070920006+1070082715+1069010294+1068101709+1067971152+1068439044
3827+1068747453+1068807675+1069203441+1069807522+1069633894+1068796603
3819+1068971063+1070003165+1070144601+1069074676+1068285704+1068445700
3810+1068860026+1068653439+1067691863+1066994217+1067263202+1067592602
3802+1066991273+1066061760+1065968067+1066460342+1066982377+1067613273
3793+1068489027+1069360877+1069852833+1069783523+1069239920+1068418053
3785+1067583002+1067065191+1066885035+1066715760+1066524533+1066714800
3776+1067250466+1067590362+1067494236+1067035816+1066289914+1065585100
3768+1065540301+1066278715+1067353696+1068332295+1068895097+1068736573
3759+1067923857+1067321249+1067774677+1069134131+1070790217+1072149735
3751+1072619547+1072188774+1071552630+1070772874+1069515369+1068296456
3742+1068087437+1068576001+1068943480+1068873465+1068525698+1068446468
3734+1069173938+1070575119+1072079145+1073227724+1073714816+1073456454
3725+1072692377+1071841967+1071034883+1070276950+1069714980+1069367597
3717+1069073716+1068783996+1068594880+1068599296+1068693822+1068378374
3708+1067397471+1066333561+1065823366+1065872261+1066093951+1066426487
3700+1067160933+1068134732+1068845370+1069157042+1069311406+1069478186
3691+1069547113+1069344942+1068993014+1068761212+1068636607+1068602880
3683+1068740413+1068991158+1069128947+1068932024+1068109901+1066434167
3674+1064928221+1064855519+1065495566+1065643467+1065122648+1064739041
3666+1064852319+1065297363+1065830598+1066110975+1065977922+1065656970
3657+1065335506+1064922525+1064502631+1064400874+1064803360+1065823494
3649+1067094246+1067256930+1066093503+1064722594+1063854968+1063632701
3640+1063909622+1064359659+1064627684+1064627812+1064603941+1064686371
3632+1064445417+1063183689+1061078462+1060055191+1060944897+1062384413
3623+1063556735+1064352811+1064528231+1063716219+1062502938+1062212641
3615+1063174537+1064617509+1065511182+1065422096+1064745185+1064260589
3606+1064420457+1064719458+1064348267+1063294854+1062556888+1063049228
3598+1064300780+1065084057+1064879262+1064210927+1063897975+1064238702
3589+1064906781+1065118616+1064238446+1062841041+1061898217+1061586289
3581+1061638703+1061799467+1061957159+1062069285+1062008422+1061669999
3572+1061271289+1061239609+1061648943+1061915624+1061385718+1060643144
3564+1060669704+1061157884+1061310200+1060899522+1060446669+1060577226
3555+1061276665+1061901289+1061886825+1061396918+1060921473+1060440270
3547+1059653793+1058773624+1058432384+1058756280+1059269675+1059582435
3538+1059673697+1059672737+1059546724+1059131759+1058413121+1057601045
3530+1057014948+1056908838+1057143329+1057179296+1056772778+1056380916
3521+1056463154+1056808233+1056992100+1057045347+1057332444+1057957516
3513+1058511742+1058449024+1057736146+1057034275+1056960101+1057380315
3504+1057741841+1057761617+1057652564+1057737874+1058024138+1058277700
3496+1058268164+1057879246+1057191711+1056513712+1056147450+1056042876
3488+1055876928+1055558408+1055371981+1055486282+1055590024+1055247440
3479+1054521826+1053883443+1053626233+1053702007+1053953265+1054243497
3471+1054421221+1054360487+1054055150+1053677624+1053537339+1053853427
3462+1054503587+1055078612+1055175314+1054655071+1053835060+1053372223
3454+1053650168+1054400614+1055154323+1055771459+1056319861+1056730923
3445+1056814569+1056524912+1056045948+1055589128+1055162578+1054690718
3437+1054274025+1054063086+1053978928+1053813620+1053514428+1053252482
3428+1053285762+1053728438+1054378470+1054855450+1054932504+1054665119
3420+1054253801+1053873331+1053601722+1053429054+1053302913+1053196228
3411+1053143941+1053131397+1053034824+1052885708+1053005641+1053522940
3403+1054014127+1054017391+1053613369+1053169412+1052857868+1052620754
3394+1052323226+1051886757+1051423536+1051137592+1051016763+1050810560
3386+1050348043+1049788122+1049490529+1049589087+1049774362+1049666717
3377+1049338469+1049216936+1049453346+1049686492+1049573279+1049291430
3369+1049251111+1049494305+1049709212+1049730843+1049707804+1049846872
3360+1050183120+1050530759+1050656004+1050616517+1050760577+1051212534
3352+1051603180+1051503982+1050899198+1050096466+1049401315+1049045356
3343+1049211368+1049826905+1050419594+1050531911+1050272333+1050142353
3335+1050362955+1050704066+1050911037+1050960380+1050942972+1050953916
3326+1051077305+1051323955+1051566381+1051602220+1051308211+1050761281
3318+1050231246+1049994964+1050070546+1050193871+1050179920+1050182736
3309+1050424714+1050822848+1051121592+1051252853+1051367858+1051574189
3301+1051752040+1051630187+1051088761+1050365387+1049841944+1049651165
3292+1049603038+1049485985+1049328229+1049308006+1049505249+1049845400
3284+1050187791+1050358987+1050278605+1050221583+1050679939+1051667626
3275+1052417367+1052184093+1051194742+1050395658+1050344076+1050685955
3267+1050709762+1050189071+1049581279+1049453730+1049862680+1050359371
3258+1050500808+1050242574+1049891095+1049816345+1050195215+1050878270
3250+1051460527+1051593196+1051308915+1051001915+1051098745+1051727593
3241+1052579603+1053036936+1052687249+1051828326+1051147319+1050884286
3233+1050792384+1050821888+1051128952+1051518702+1051680298+1051827622
3224+1052290587+1052710096+1052470870+1051713769+1051181046+1051148727
3216+1051143415+1050716354+1050076882+1049852120+1050428425+1051567277
3207+1052550228+1052754575+1052222492+1051581740+1051333491+1051433840
3199+1051653227+1051978658+1052430679+1052789838+1052761295+1052315034
3190+1051766952+1051548205+1051847974+1052443159+1052937802+1053191428
3182+1053362176+1053511804+1053460861+1053183428+1052990537+1053049607
3173+1053110022+1052947338+1052638354+1052224924+1051614508+1050981436
3165+1050746817+1051014971+1051412657+1051555693+1051421744+1051302451
3156+1051522734+1052087584+1052591827+1052653137+1052387224+1052242076
3148+1052434135+1052804110+1053106950+1053144837+1052734607+1051900260
3139+1051058042+1050739394+1051113784+1051911332+1052710224+1053202884
3131+1053290497+1053064327+1052748943+1052619922+1052771150+1052894347
3122+1052524565+1051656043+1050876414+1050752961+1051277236+1051963491
3114+1052298650+1052089056+1051551917+1051098169+1050943612+1050999291
3105+1051107768+1051161079+1051022458+1050618501+1050079954+1049553503
3097+1048954798+1048091780+1046920290+1045567620+1044221990+1043034371
3088+1041989662+1040903097+1039636441+1038260539+1036980956+1035981365
3080+1035282822+1034648726+1033680943+1032070423+1029690515+1026463076
3071+1022319564+1017378569+1012035599+1006762516+1001896014+997752758+994817920
3061+993532065+993890776+995450032+997715959+1000443635+1003676385+1007554368
3051+1011964177+1016403169+1020384125+1023856806+1026972375+1029664788
3043+1031787358+1033406902+1034675030+1035598718+1036131761+1036305389
3034+1036165488+1035734651+1035053964+1034130339+1032894210+1031307114
3026+1029375643+1026978519+1023858150+1019893130+1015208447+1009931908
3017+1004018969+997415231+990252979+982731632+974822839+966270670+957005495
3007+947404137+937990998+929082870+920883396+913691257+907819597+903525049
2997+901088118+900684288+902083805+904736794+908212739+912347995+916972454
2987+921749870+926297788+930316119+933646595+936304384+938307854+939390322
2978+939065083+937135915+934086008+930947143+928852796+928650497+930793355
2968+935406807+942233515+950517851+959237119+967592365+975155503+981621324
2958+986695309+990320753+992917296+995234870+997745655+1000172730+1001873871
2948+1002697274+1003184494+1003956122+1005186811+1006623319+1007814201
2939+1008317357+1007893751+1006566425+1004498573+1001835600+998659360+995034811
2929+991000224+986439699+981080346+974718650+967347955+959085187+950342687
2919+942230955+936454012+934533165+937087660+943609032+952640421+962351921
2910+971341583+979038797+985465004+990861732+995518959+999626887+1003120239
2900+1005736686+1007294214+1007892919+1007740027+1006667286+1003906716
2891+998518755+990080375+979117387+967246966+956961273+950737429+949847275
2881+953907205+961445576+970692383+979994165+988109545+994573126+999670470
2871+1003847069+1007227336+1009758024+1011531100+1012750461+1013547881
2863+1013993886+1014172633+1014183961+1014151706+1014211672+1014407316
2854+1014651789+1014858440+1015064131+1015424698+1016151272+1017368457
2846+1018916258+1020390589+1021525152+1022454921+1023484911+1024680337
2837+1025811253+1026653087+1027223057+1027695365+1028150074+1028512113
2829+1028740267+1028951846+1029283293+1029729746+1030189959+1030572605
2820+1030812087+1030893557+1030916020+1031031665+1031283179+1031576356
2812+1031813598+1031975450+1032103126+1032254931+1032450638+1032646793
2803+1032805893+1032898242+1032805509+1032436750+1032035352+1032055192
2795+1032595338+1033238330+1033547698+1033464244+1033201979+1033038335
2786+1033194107+1033644784+1034075109+1034215649+1034145443+1034089828
2778+1034082021+1034013478+1033846123+1033577073+1033195323+1032835460
2769+1032725063+1032866883+1033047423+1033205499+1033458100+1033760813
2761+1033890665+1033778924+1033613360+1033591537+1033712878+1033813355
2752+1033757805+1033595121+1033524851+1033713646+1034144227+1034608983
2744+1034887056+1034973006+1035048716+1035225224+1035442306+1035600766
2735+1035629054+1035484097+1035234632+1035029005+1034895184+1034736276
2727+1034559193+1034501530+1034637591+1034932623+1035325317+1035709756
2718+1035933750+1035927542+1035768762+1035599614+1035557759+1035710908
2710+1035983093+1036201903+1036255982+1036155184+1036004532+1035967221
2701+1036120113+1036296493+1036214831+1035795514+1035253959+1034907408
2693+1034944975+1035294214+1035660733+1035788474+1035713020+1035660221
2684+1035684732+1035558911+1035115723+1034549913+1034183778+1034086500
2676+1034135139+1034282208+1034505882+1034670678+1034686741+1034664150
2667+1034761236+1034988622+1035227976+1035345349+1035304198+1035228424
2659+1035331973+1035724219+1036265966+1036669540+1036811680+1036880222
2650+1037104409+1037443344+1037669834+1037637131+1037389713+1037139224
2642+1037124760+1037374738+1037689610+1037920580+1038132991+1038449527
2633+1038837229+1039100262+1039092199+1038914475+1038804526+1038879788
2625+1039138149+1039563547+1040061134+1040469892+1040711934+1040693246
2616+1040170443+1039124006+1038136575+1037926020+1038531829+1039312481
2608+1039681816+1039589082+1039364704+1039342048+1039609306+1039994768
2599+1040290568+1040445189+1040446981+1040216330+1039836436+1039607642
2591+1039595930+1039439134+1038926123+1038470198+1038679089+1039594522
2582+1040580865+1040951480+1040592897+1039937041+1039458973+1039335136
2574+1039443614+1039499164+1039277986+1038830765+1038415608+1038256444
2565+1038406072+1038707824+1038893228+1038926571+1039109542+1039568731
2557+1039913298+1039750550+1039305569+1039183268+1039651801+1040360903
2548+1040742781+1040636608+1040420101+1040419845+1040373510+1039759190
2540+1038551412+1037362066+1036819424+1036983068+1037433168+1037773256
2531+1037861382+1037676490+1037347474+1037268948+1037728137+1038418808
2523+1038764783+1038694513+1038672625+1039023080+1039620505+1040248393
2514+1040879482+1041469227+1041792419+1041753764+1041616423+1041605991
2506+1041538025+1041169138+1040663231+1040379974+1040394118+1040473028
2497+1040429701+1040331591+1040346631+1040496771+1040686334+1040888633
2489+1041109620+1041246832+1041166450+1040880570+1040550850+1040354503
2480+1040325128+1040319048+1040223626+1040115597+1040073166+1039994704
2472+1039815060+1039689816+1039742934+1039827348+1039807893+1039926482
2463+1040521475+1041420332+1042012125+1041978270+1041574568+1041146355
2455+1040769084+1040385990+1039939473+1039349088+1038628274+1037992322
2446+1037672202+1037630859+1037588492+1037348178+1037092441+1037297940
2438+1038233084+1039538651+1040499523+1040816187+1040895929+1041232433
2429+1041724516+1041851553+1041409132+1040799292+1040562114+1040839355
2421+1041398829+1041954143+1042234008+1041982494+1041241073+1040494147
2412+1040231626+1040429125+1040603905+1040326856+1039657432+1039077799
2404+1038941098+1039089127+1039139685+1038967722+1038731184+1038586227
2395+1038550132+1038567796+1038573940+1038479286+1038200765+1037780872
2387+1037389905+1037166487+1037181975+1037487759+1037962371+1038249916
2378+1038145854+1037876933+1037792071+1038070976+1038825965+1039967569
2370+1040898425+1040940920+1040118541+1039087655+1038402232+1038137599
2361+1038061697+1037966723+1037909892+1038080768+1038329338+1038075008
2353+1036995483+1035475266+1034016422+1032676424+1031346473+1030203910
2344+1029649172+1029790481+1030303684+1030816503+1031138863+1031263787
2336+1031256556+1031191725+1031268651+1031665505+1032117526+1032080279
2327+1031480934+1030833078+1030561981+1030535806+1030330819+1029909454
2319+1029748178+1030086601+1030511870+1030576061+1030396097+1030389633
2310+1030751160+1031359081+1031961946+1032401359+1032714695+1032921858
2302+1032834372+1032358672+1031812894+1031569380+1031523173+1031304618
2293+1030926644+1030825271+1031221037+1031780830+1032037272+1031951002
2285+1031969050+1032599178+1033849578+1035040844+1035380420+1034761364
2276+1033789292+1033060862+1032674760+1032384591+1032039320+1031778271
2268+1031754207+1031767391+1031453863+1030867829+1030639227+1031353129
2259+1032800453+1034045158+1034449051+1034384029+1034502682+1034644246
2251+1034144867+1032964993+1031891100+1031763807+1032926338+1035139722
2242+1037519182+1038824493+1038450359+1037051354+1035790714+1035271943
2234+1035506369+1036293677+1037147543+1037538894+1037596748+1037729609
2225+1037497935+1036013364+1033563442+1031601315+1031018482+1031472806
2217+1032373200+1033556274+1035001933+1036661476+1038492342+1040112333
2208+1040799612+1040462404+1040083342+1040498179+1041352558+1041929887
2200+1042244247+1042596302+1042806985+1042696332+1042736779+1043480120
2191+1044732761+1045818621+1046346416+1046356144+1046141365+1046290034
2183+1047395222+1049135594+1050127185+1049429987+1047816331+1046746598
2174+1046478061+1046128822+1045317130+1044462751+1043607605+1042296470
2166+1040824379+1040440005+1041808674+1044172583+1046669224+1049402147
2157+1052007458+1052852236+1051485039+1049644445+1048442171+1046611689
2149+1043109890+1039727191+1039012841+1040728509+1042411091+1042796169
2140+1042905287+1043899950+1045345097+1046037816+1045629442+1044733721
2132+1043980780+1043636468+1043729778+1043957804+1043749553+1042850888
2123+1041760931+1041277552+1041512042+1041513386+1040209098+1037725257
2115+1035327749+1033937576+1033324280+1032930370+1032640457+1032388943
2106+1031887580+1031171630+1030736249+1030813367+1031012594+1030806711
2098+1030076041+1029105122+1028175801+1027297167+1026448037+1025711287
2089+1024927691+1023771496+1022502600+1021929174+1022323020+1022992956
2081+1023109881+1022556551+1022084178+1022787585+1025060296+1028069372
2072+1030644475+1032376016+1033468916+1034091300+1034399773+1034725396
2064+1035139274+1035049036+1033843371+1031905499+1030511678+1030645947
2055+1032140757+1033749805+1034027558+1032733255+1031315818+1031363561
2047+1032956545+1035277255+1037695370+1039466461+1040108493+1040356743
2038+1041106356+1042061468+1042621454+1042793161+1042698636+1042634765
2030+1043157632+1043849199+1043321724+1041281967+1038976233+1037425041
2021+1036755745+1036934173+1037715657+1038107135+1037169303+1035287622
2013+1033680559+1032937537+1032873603+1033490035+1035002125+1036801888
2004+1037636299+1037184663+1036543847+1036866271+1037931012+1038356473
1996+1037237717+1035286150+1034263648+1035291142+1037502799+1038795630
1987+1038152318+1036666980+1036021364+1036299821+1036144753+1034951183
1979+1033921897+1034609623+1036853855+1038929003+1039754646+1039856531
1970+1039957649+1039692119+1038326714+1036231791+1034703573+1034362206
1962+1034526937+1034081701+1032695175+1031186349+1030795639+1032140309
1953+1034488346+1036151729+1036134641+1035119563+1034417500+1034577560
1945+1035362884+1036260462+1036719458+1036565862+1036142769+1035757818
1936+1035370372+1034662102+1033325816+1031669665+1030680058+1030928052
1928+1031843677+1032485325+1032380751+1031437351+1029959116+1028769130
1919+1028509745+1028872488+1028862760+1028056380+1027087189+1026739933
1911+1027151379+1027791619+1027978878+1027410444+1026421029+1025763702
1902+1025838772+1026241706+1026471076+1026689247+1027277584+1028064316
1894+1028545008+1028683372+1028923558+1029474649+1030041802+1030487807
1885+1031189485+1032351440+1033555890+1034285727+1034474907+1034364510
1877+1034316959+1034774611+1035892919+1037194262+1037862726+1037349010
1868+1035974325+1034845969+1034487002+1034420380+1034121636+1033636080
1860+1033412917+1033623920+1033922153+1033985767+1033872170+1033735981
1851+1033627632+1033675055+1034121444+1035010573+1035893111+1035992501
1843+1035186313+1034362974+1034090788+1034177058+1034221921+1033977767
1834+1033442165+1032885571+1032716487+1033006976+1033140412+1032569803
1826+1031503525+1030449536+1029719186+1029319324+1029195168+1029362395
1817+1029700563+1029903246+1029855951+1029803792+1029981708+1030252101
1809+1030300996+1030095689+1029878222+1029917965+1030421569+1031406248
1800+1032483533+1033120893+1033283961+1033302968+1033267001+1032897282
1792+1032027416+1031096496+1030583613+1030444992+1030346435+1029865231
1783+1028863720+1027818626+1027384781+1027609031+1027909696+1027917952
1775+1027888832+1028389684+1029626837+1030974835+1031892508+1032515468
1766+1033019007+1033391094+1033658671+1033964328+1034434716+1035047180
1758+1035670717+1036126641+1036293741+1036212975+1035985397+1035655741
1749+1035184137+1034539545+1033825707+1033149564+1032486157+1031736032
1741+1030789431+1029558358+1028152698+1026894745+1026152428+1026133229
1732+1026369383+1026293481+1026023855+1025776886+1025582202+1025441022
1724+1025436350+1025631737+1025975857+1026406438+1026978071+1027764100
1715+1028503281+1028852520+1028853864+1028742891+1028666605+1028557616
1707+1028316918+1028138554+1028341173+1028863272+1029324252+1029254878
1698+1028541936+1027690949+1027204946+1027095252+1027021590+1026786396
1690+1026368999+1025785781+1025118150+1024631890+1024760271+1025416575
1681+1025995952+1026407014+1026739101+1027044822+1027453771+1028020093
1673+1028619694+1029341916+1030521214+1031886940+1032554443+1032464845
1664+1032265362+1032586058+1033472308+1034307167+1034709781+1034778835
1656+1034791059+1035166665+1036143921+1036845343+1036999899+1037300884
1647+1038240764+1039524444+1040129484+1039910482+1039324513+1038715760
1639+1038274299+1038153918+1038521461+1039125158+1039427294+1039416734
1630+1039280290+1039099046+1038814062+1038299003+1037565197+1036778977
1622+1036038323+1035327301+1034726996+1034517338+1034981902+1035833273
1613+1036536359+1037040538+1037602124+1038383480+1039206884+1039781717
1605+1039896210+1039158629+1037082649+1033685167+1029602133+1025469693
1596+1021297830+1016133416+1007984117+993798298+969711992+933204110+886996696
1587+840234929+804087806+785339477+783246282+791941167+806719292+829034250
1577+863564902+902335703+929223858+945124322+958423252+972580336+984494084
1567+991723534+996037666+999111316+1001359836+1003674657+1009004635+1018362928
1557+1024705616+1027477195+1029613269+1031796638+1033949224+1035920374
1548+1037459024+1038584115+1039622425+1040830395+1042420947+1044819287
1540+1047584145+1049099371+1049474529+1049558367+1049867864+1050505032
1531+1051038074+1051313715+1051596780+1051962851+1052293915+1052566740
1523+1052499541+1051563693+1049988820+1048163458+1045840381+1043247934
1514+1041012150+1039245859+1037929732+1037010971+1035425859+1031091824
1506+1026125101+1024714064+1026115949+1029141665+1033114685+1037456400
1497+1041598568+1044496543+1045693121+1045819773+1044933396+1041940383
1489+1035457026+1024709776+1008837152+984695423+945168673+883603886+803463502
1479+716636950+631607664+553784086+493203818+464708503+474493985+506785876
1469+545253549+587857021+638701566+695760291+745803320+781168958+807039092
1459+832438453+863957148+892732104+904714715+903304510+892850501+872294410
1449+839348423+799132795+767685586+754649561+750992501+741181676+719866756
1439+697358971+694442116+726821525+777719125+819713205+850253749+875804914
1429+897449873+913404800+924442602+932811736+939659500+944981734+949223227
1419+953713034+958654094+962549804+965198185+967448177+969605754+971497611
1409+972902056+973776786+974399810+975060721+975626403+975979098+976484621
1400+977578418+979392772+981895109+985056374+988583325+991913161+994791361
1390+997501373+1000506737+1003712097+1006348510+1008093490+1009218006
1381+1009897861+1010161726+1010054273+1009578701+1008748002+1007704444
1373+1006649879+1005751917+1005122365+1004760646+1004608906+1004676552
1364+1004973249+1005374007+1005673327+1005725870+1005479412+1004912898
1356+1003962330+1002540670+1000632238+998185004+995046715+991174492+986645838
1346+981497871+975848029+969795830+962875492+954102656+943090261+930510162
1336+916767596+901399022+883813288+863905053+842189695+819532793+796626298
1326+773655227+750490114+727009233+703009900+678181213+652906329+628761592
1316+607266197+588889443+574105559+564397515+561326808+564503752+570049405
1306+571429850+563735644+547750830+529167073+513942624+504602059+500340662
1296+499442541+501136482+505790093+514093340+526311721+542080124+560437551
1286+579878406+598766891+616092279+631881450+646969390+662403114+678873868
1276+696479697+714870786+733456239+751379628+767575252+781285115+792524961
1266+801769400+809144383+813825033+813803082+806144650+788420680+761283251
1256+730265087+704787712+694109452+702391548+726747863+759717210+793615365
1247+823568148+848025325+867560321+883397555+896581799+907888971+917970317
1237+927275235+935838412+943355151+949599282+954727793+959067460+962626730
1227+964898289+965017326+961837246+953766921+938736771+914601314+879926602
1217+834830713+781311547+722820474+663472271+607264405+557292670+515295742
1207+482181535+459297023+449090464+453963109+473793394+504437615+538979466
1197+570762539+595871539+613998251+627954828+642143719+660361885+683871118
1187+710812712+737397643+760061585+776890538+787633308+793238031+795599379
1177+797128109+799938598+805111844+812420204+820590751+827949542+833066085
1167+835122737+834024461+830360809+825338855+820727067+818610769+820726363
1157+827611438+838196516+850184118+860926952+868196273+870422521+866467933
1147+855412979+836899269+812054646+784301168+759140968+742585161+738735274
1137+747638922+764647198+782094247+793044436+795256412+792653022+792617374
1128+800665492+816922683+837234620+856941324+873437229+886183661+895554177
1118+901967968+905568261+906105912+902872137+894773333+880564922+859355280
1108+831602378+800092642+769495076+744052068+725030275+709762371+692868588
1098+669436345+639018678+607862022+586917717+586071658+608331706+648186575
1088+695136562+739361754+775397264+802113072+820547808+832099005+837938026
1078+838976400+835748386+828215583+816067793+799968870+782479133+766477872
1068+752145304+736843225+719098776+702140866+692730159+696560015+714559754
1058+742679687+774584548+804886314+830798174+851807182+868524521+881871641
1048+892646346+901039479+906065913+905007827+893138686+865024129+818538642
1038+759647772+703308069+667483626+662609637+684012426+714600329+736825946
1028+743798314+740215237+733621866+724964228+707350271+674099588+628111752
1018+583131444+555774820+555717541+581546844+623723447+670837526+714536138
1009+751013685+779798113+801673659+816572484+821549895+811474244+785827913
999+756333039+742659015+755916026+788691521+823898572+850143671+866294113
989+875909679+882257296+887387535+892366289+897318677+901769573+905267213
979+907814861+909790939+911607597+913581564+915928065+918635645+921515444
969+924478058+927572124+930777931+933946107+936907889+939571822+941946610
959+944015358+945581655+946401538+946473792+945982477+944897064+942851483
949+939546031+935093663+929821283+923929591+917582615+911211255+905505735
939+901118517+898403577+897331860+897581006+898762608+900673984+903428731
929+907363544+912713042+919256749+926309244+933157839+939476976+945202720
919+950148964+954024002+956778109+958718540+960319780+961956731+963671760
909+965215273+966422411+967375283+968132000+968562005+968439640+967415538
899+964944752+960483872+953803336+945211616+935723663+926957611+920403088
890+916165691+911866279+902597840+882912575+850990690+812458859+779056628
880+761001978+760138895+771555952+790549138+815410145+844363849+873375727
870+898104129+916491570+928907642+936733877+941236996+943273809+943496331
860+942606754+941396544+940613012+940825934+942301225+944829354+947819934
850+950911825+954394169+958638350+963372055+968030882+972497138+976941826
840+981275349+985199794+988526239+991212571+993313702+994902462+995873190
830+996013410+995438897+994728451+994456265+994702851+995096889+995226934
820+994946365+994370572+993704796+992988078+991892874+989982842+987328253
810+984574338+982225469+980126450+977717102+974579453+970811420+966920254
800+963039520+958239192+950916241+939650604+923390469+901501932+874678862
790+845973280+820522401+803733895+798846018+805103652+817648553+829591676
781+835576358+835045939+832740653+834916726+843905684+856578646+868184946
771+876437538+881176619+881366118+874123612+856895822+829809399+795643154
761+757997253+719821446+683200927+649625899+620146385+595631353+577217353
751+566681938+566357146+578330349+603326328+639908512+684344770+731399074
741+775783046+813523601+842748465+863360555+875763443+880262082+877883966
731+870887022+861608471+851189021+840104948+829687482+822424433+820130602
721+821220303+820265191+811870970+794520943+769051631+735952880+698259620
711+666268553+654575727+671808317+713863259+767190174+817386351+855655597
701+879984137+892196182+894402142+887024280+868381549+836008731+790009888
691+736607135+688646102+661151241+662922781+689549823+724996483+751783010
681+761585963+758058692+751219760+750372869+760851069+783104590+812166515
671+841376660+868447083+894655768+917045413+931202432+939958564+947633379
662+955736215+963676880+970474853+975638435+979133451+981279317+982556405
652+983343393+983539036+982023170+976145430+960933589+928979320+874778060
642+803721735+736235241+697452984+699415751+734448790+784166643+832382262
632+871323875+899642458+918268038+928151949+928782845+917643414+893450230
622+861890640+836419089+829856566+843391841+865513013+884197215+897714251
612+911072955+926481015+941134919+951890296+958364693+961707393+962708008
602+961464135+957819107+951886776+944316407+935950601+927282019+918320132
592+908892786+899092584+889153442+878826726+867638719+856026595+845525740
582+837622962+832912553+831218963+832128381+835226223+839615616+843483679
572+844250508+838484317+822333427+794215158+757789131+721597849+695718180
562+687367990+696958213+717914486+741630241+762802380+780471312+795789327
552+809796014+822504367+833126115+841084187+846863306+851759823+856923853
543+862911606+870009924+878112120+885422400+887833795+881323303+866037352
533+847635958+834360004+832569713+844210893+866855763+894301473+919442728
523+939206711+954571253+967021115+977125181+985230641+991865867+997243075
513+1001294941+1004369040+1007172809+1009861062+1012067406+1014085980
504+1016771480+1020049670+1022757313+1024210525+1024749903+1024759759
496+1024361753+1023705322+1022915133+1022122961+1021768410+1022395403
487+1024059361+1026114861+1027484299+1027330190+1025644281+1022951293
479+1019595281+1015792497+1012076878+1008960157+1006313823+1003872796
470+1002072714+1001208991+1000789930+1000941414+1003042097+1007641854
462+1013029046+1017179086+1019960840+1022042451+1022624261+1020020422
453+1013571305+1004745927+996816718+991961672+989925563+989628099+990231924
443+991305177+993300454+997436926+1004565387+1014568015+1025982832+1036075826
433+1042915782+1046763622+1048857585+1050370635+1052222428+1054512099
425+1056317621+1057199391+1058350018+1060655752+1061879273+1058567549
416+1052307482+1045265099+1036509544+1025659512+1015725426+1011522972
408+1015133313+1023516398+1031034865+1034870353+1037404817+1043401594
399+1054640671+1063958773+1061077950+1050007828+1040148556+1034199010
391+1030914356+1028218872+1024631890+1020880817+1020440252+1026037359
382+1034991310+1042975749+1048388989+1051290292+1053258562+1059359977
374+1073714816
##END=
