##TITLE=ZZ- 112
##JCAMP-DX=4.24
##DATA TYPE=INFRARED SPECTRUM
##DATE=24/10/2019
##SAMPLING PROCEDURE=Diamant-ATR
##ORIGIN=Marie
##XUNITS=1/CM
##YUNITS=TRANSMITTANCE
##RESOLUTION=4
##FIRSTX=3997.453
##LASTX=373.96442
##DELTAX=-1.4165319
##MAXY=0.92855549
##MINY=0.48104686
##XFACTOR=1
##YFACTOR=8.6478469e-010
##NPOINTS=2559
##FIRSTY=0.86751145
##XYDATA=(X++(Y..Y))
3997+1003153111+1002755211+1002760036+1002993965+1003207423+1003380492
3989+1003553975+1003535847+1003177028+1002776026+1002751627+1003038145
3980+1003231823+1003199704+1003137121+1003134019+1003041178+1002757761
3972+1002444018+1002382262+1002717716+1003358643+1004072147+1004640634
3963+1004950656+1004991252+1004829142+1004621405+1004555375+1004694878
3955+1004927842+1005076098+1004999730+1004674269+1004240391+1003885569
3946+1003692512+1003734280+1004101785+1004628986+1004925223+1004896619
3938+1004774210+1004643116+1004414632+1004191248+1004254521+1004578671
3929+1004777242+1004742642+1004826799+1005225526+1005552020+1005333599
3921+1004655729+1003970828+1003646333+1003769087+1004096753+1004281884
3912+1004209582+1003977376+1003641784+1003195568+1002814279+1002930141
3904+1003813681+1004964578+1005554363+1005543611+1005440914+1005306443
3895+1004908681+1004474940+1004607551+1005314162+1005666641+1005259436
3887+1004793646+1004830796+1004866155+1004502648+1004518225+1005335460
3878+1005861697+1005381501+1004605759+1004183942+1003946774+1003848143
3870+1004183391+1004456538+1004025623+1003510001+1003917136+1005087884
3861+1005884993+1005728190+1004779517+1003430118+1002515148+1003648539
3853+1007252312+1009937739+1009836421+1008420165+1006985920+1005914630
3844+1005180725+1004634914+1004102956+1003732626+1004060499+1005100980
3836+1005916422+1006017121+1005881478+1005890093+1005854115+1005646170
3827+1005499982+1005416308+1005108354+1004915504+1005755346+1007277401
3819+1007749877+1007167053+1006967173+1007471561+1007767866+1007579634
3810+1007353149+1007451641+1007850161+1007990216+1007471767+1006953319
3802+1007311932+1008030192+1007939625+1007468114+1007680401+1008520312
3793+1009092521+1008949435+1008290243+1007503335+1006950838+1006870748
3785+1007179184+1007428965+1007317928+1007069801+1006966897+1006798102
3776+1006286270+1005587240+1004948106+1004536697+1004658761+1005488610
3768+1006649225+1007698528+1008373159+1008245856+1007303523+1006574373
3759+1007219987+1008817858+1009601458+1008696345+1006680792+1004974366
3751+1005019029+1006152833+1006272072+1005700483+1006560520+1009164478
3742+1010648555+1009741719+1007891930+1006467541+1006030354+1006490837
3734+1007253140+1007676128+1007433308+1006582162+1005682907+1005550021
3725+1006378629+1007337779+1007752634+1007920326+1008268532+1008705856
3717+1008916075+1008747418+1008443186+1008695173+1009907413+1011175206
3708+1011459243+1010940794+1010145960+1009321074+1008616668+1008190027
3700+1008083746+1008189682+1008264534+1007962577+1007100610+1005962050
3691+1005285421+1005780711+1007113085+1007903716+1007640770+1006966139
3683+1006557832+1006686996+1007142585+1007543242+1008087123+1009408263
3674+1010923908+1011370123+1011158733+1011327942+1011770229+1011787046
3666+1011541125+1011441460+1011482470+1011482263+1011331181+1011080642
3657+1010936934+1010832652+1010212265+1008941646+1007846784+1008188235
3649+1010314755+1012427284+1012984743+1012454922+1011694205+1011134402
3640+1010899853+1010846575+1010667027+1010340740+1010177803+1010060287
3632+1009370906+1008237378+1008116623+1009714907+1011427951+1012208242
3623+1012212860+1011616528+1010692943+1009968066+1009568926+1009281581
3615+1009280133+1009609729+1009746819+1009617311+1010079655+1011470133
3606+1012748333+1013049739+1012753433+1012495381+1012264071+1011653471
3598+1010755870+1010340740+1010942379+1011964319+1012299843+1011795731
3589+1011270804+1011351721+1011662845+1011546156+1011213045+1011253710
3581+1011841910+1012618549+1013034782+1012879289+1012450718+1012115815
3572+1011825575+1011279281+1010507812+1010095162+1010553922+1011324702
3564+1011427744+1010862841+1010315582+1010223086+1010412214+1010521321
3555+1010578322+1010868286+1011236824+1011025916+1010146856+1009519369
3547+1009897557+1010750425+1010973464+1010479140+1010058564+1010121423
3538+1010374513+1010479140+1010628498+1011212356+1012086040+1012664108
3530+1012628749+1012103340+1011234756+1010148096+1009290265+1009219273
3521+1009966343+1011000896+1011805794+1012204521+1012231952+1011966939
3513+1011540780+1011108694+1010656275+1009977647+1009122434+1008624870
3504+1008945437+1009805750+1010436200+1010518082+1010376236+1010285807
3496+1010166568+1009974338+1009925057+1010131417+1010354318+1010348046
3488+1010247623+1010366173+1010728094+1011060791+1011203396+1011310090
3479+1011557873+1011833294+1011894224+1011674148+1011265634+1010736089
3471+1010164776+1009737583+1009611728+1009746750+1009953179+1010031683
3462+1009879292+1009589603+1009465539+1009799822+1010544273+1011241924
3454+1011422092+1011105385+1010758972+1010728714+1010900267+1010966848
3445+1010817144+1010521321+1010139825+1009752747+1009525917+1009578368
3437+1009825117+1010041195+1010063526+1009905138+1009712081+1009631854
3428+1009712977+1009900383+1010105570+1010296835+1010566398+1011072991
3420+1011817718+1012504824+1012741992+1012386205+1011667187+1010992074
3411+1010637596+1010621882+1010857327+1011307747+1011874098+1012267655
3403+1012261934+1011997059+1011773675+1011636860+1011408032+1011043491
3394+1010687015+1010412903+1010174701+1009986676+1009936706+1010030580
3386+1010193655+1010380440+1010546134+1010601894+1010533452+1010453844
3377+1010435097+1010394501+1010224395+1009916373+1009558449+1009342785
3369+1009525435+1010196205+1011072371+1011646096+1011589578+1011008547
3360+1010339913+1009994878+1010045330+1010227497+1010270161+1010169876
3352+1010067731+1010001908+1010000943+1010272091+1010940519+1011670289
3343+1011939645+1011652437+1011161145+1010781097+1010567983+1010459772
3335+1010436682+1010593416+1011013371+1011460070+1011440909+1010833686
3326+1010158711+1009940290+1010099436+1010262717+1010338534+1010474039
3318+1010707072+1010921495+1010969605+1010707692+1010123904+1009492213
3309+1009185362+1009288266+1009571890+1009818501+1009962483+1009938015
3301+1009656804+1009232713+1009013603+1009173921+1009439004+1009456855
3292+1009297847+1009280064+1009452237+1009562929+1009468503+1009319558
3284+1009372009+1009734689+1010281327+1010762074+1010992901+1010956716
3275+1010792952+1010691013+1010730300+1010871456+1011102353+1011414786
3267+1011612323+1011392800+1010724923+1009987365+1009664868+1009960278
3258+1010688394+1011508386+1012235330+1012839244+1013172079+1012992118
3250+1012379588+1011830675+1011747139+1012051784+1012432936+1012722004
3241+1012908995+1013011210+1013040641+1013010865+1012962067+1012961860
3233+1012994875+1012955313+1012871914+1012982124+1013457081+1014181751
3224+1014832603+1015063981+1014742174+1014093803+1013492922+1013097159
3216+1012874464+1012904377+1013383263+1014290720+1015203966+1015576571
3207+1015237739+1014575584+1014185266+1014348272+1014820472+1015154755
3199+1015223127+1015262690+1015382067+1015333889+1014917104+1014330627
3190+1013990968+1014129231+1014615560+1015138006+1015529082+1015847374
3182+1016176763+1016509530+1016791361+1016919767+1016784469+1016388292
3173+1015836140+1015246424+1014734386+1014376531+1014212422+1014400861
3165+1015136283+1016209227+1016993998+1017110480+1016771304+1016335289
3156+1015923191+1015624680+1015652732+1016068552+1016624151+1017025704
3148+1017127574+1016860010+1016322332+1015929670+1016054078+1016536755
3139+1016901571+1016945476+1016829201+1016751936+1016778817+1016868556
3131+1016933965+1016911979+1016801493+1016638970+1016486647+1016397873
3122+1016355346+1016294210+1016215499+1016221289+1016340252+1016328535
3114+1015857437+1015009187+1014303609+1014065476+1014108415+1014205323
3105+1014417058+1014749825+1014904353+1014603981+1013916048+1013073862
3097+1012167577+1011175619+1010190898+1009368494+1008652095+1007777998
3088+1006601116+1005261504+1004044440+1003167240+1002626805+1002179625
3080+1001543867+1000634687+999551198+998411673+997254711+996022069+994587273
3070+992864856+990939801+989118891+987779968+987040894+986611771+986116481
3060+985539654+985203580+985300694+985623604+985905435+986242406+986907249
3050+987862953+988768618+989385697+989749893+990042752+990428383+990901479
3040+991281941+991453080+991472172+991356241+991013136+990498893+990090241
3030+989959491+990006498+990180118+990739231+991908463+993385647+994514971
3020+994960084+994975799+995047067+995440348+996091821+996782235+997302613
3010+997436395+996975016+995969204+994826371+993969022+993477730+993150133
3000+992818194+992572686+992684412+993254002+994053179+994790048+995355365
2990+995763052+996115806+996618540+997351274+998112749+998703843+999192861
2980+999714273+1000163452+1000272284+999937105+999392052+998996082+998859888
2970+998743406+998288161+997244923+995580954+993558854+991641381+990156339
2961+989105451+988327985+987667415+986967696+986127854+985184281+984214241
2951+983210014+982106537+980798699+979164091+977272947+975435564+973777936
2941+971962953+969633865+966929484+964234063+961562007+958526169+954949482
2931+951290156+948327033+946513084+945739754+945642984+946026341+946965572
2921+948537252+950543499+952637418+954645871+956569134+958348965+959866401
2911+961060376+961862103+962189011+962160890+962136697+962421217+963097157
2901+964158935+965582428+967241848+968965851+970736860+972696652+974939448
2891+977370131+979737955+981780870+983413685+984790516+986130818+987501170
2881+988791845+989856312+990650457+991274084+991878618+992549183+993346774
2871+994400350+995780145+997260362+998393891+998905516+998895591+998573852
2861+997977037+997082607+995975132+994682940+993050469+990953035+988446259
2851+985679915+982928114+980615705+979026243+978056065+977377161+976645461
2842+975516757+973752641+971420037+968859363+966485267+964722598+964066025
2832+965010701+967767465+971995348+976892968+981649845+985839544+989417264
2822+992417606+994734564+996278674+997299236+998312147+999586281+1000880747
2812+1001811983+1002325193+1002694213+1003202668+1003930715+1004747122
2803+1005429955+1005857423+1006101691+1006315218+1006570927+1006840835
2795+1007043886+1007104263+1007060772+1007117772+1007477764+1008108972
2786+1008760789+1009214655+1009480151+1009714770+1009986814+1010190554
2778+1010207509+1010059391+1009884599+1009875018+1010198204+1010824243
2769+1011472821+1011907388+1012203280+1012545765+1012876946+1012983365
2761+1012841243+1012631162+1012479597+1012396750+1012365734+1012311009
2752+1012119537+1011856936+1011809171+1012159927+1012758396+1013301933
2744+1013654136+1013912188+1014200981+1014479366+1014614940+1014608806
2735+1014599363+1014653055+1014707643+1014730250+1014763747+1014804344
2727+1014782288+1014700613+1014658224+1014694341+1014726528+1014715638
2718+1014788698+1015074389+1015477665+1015741024+1015741782+1015629574
2710+1015619235+1015734339+1015844617+1015864674+1015815945+1015774384
2701+1015839862+1016041327+1016222667+1016178349+1015918435+1015653353
2693+1015537767+1015568369+1015692984+1015925810+1016337219+1016904121
2684+1017394379+1017562899+1017465854+1017407199+1017577029+1017941087
2676+1018413907+1018920294+1019329635+1019529171+1019551364+1019529584
2667+1019539509+1019498361+1019210258+1018591387+1017872990+1017424293
2659+1017339516+1017367430+1017284376+1017153076+1017199875+1017577098
2650+1018236565+1018934975+1019377744+1019435365+1019235209+1019018373
2642+1018894585+1018773071+1018574776+1018419490+1018482625+1018736197
2633+1018958616+1018955652+1018709385+1018389577+1018226916+1018268822
2625+1018300320+1018104851+1017713568+1017287064+1016873105+1016394495
2616+1015804641+1015201278+1014817164+1014817164+1015035309+1015074527
2608+1014805033+1014577376+1014799450+1015511782+1016473069+1017426774
2599+1018181563+1018651144+1018950965+1019315850+1019837538+1020359846
2591+1020678552+1020772978+1020809163+1020992157+1021450434+1022134852
2582+1022779983+1023134805+1023289885+1023577368+1024104294+1024603099
2574+1024768035+1024509224+1023907377+1023184500+1022670394+1022520690
2565+1022521311+1022440187+1022444874+1022834296+1023486595+1023967962
2557+1024111462+1024142754+1024294525+1024576012+1024877349+1025102662
2548+1025237409+1025366711+1025591886+1025891845+1026125567+1026190494
2540+1026112196+1025944365+1025626004+1025017540+1024129796+1023304083
2531+1023006468+1023348608+1023949352+1024372547+1024536449+1024607924
2523+1024736467+1024986387+1025321565+1025635653+1025926651+1026351294
2514+1026984294+1027631976+1027952542+1027744805+1027189620+1026788549
2506+1026905031+1027430786+1028042488+1028577272+1028931818+1028900664
2497+1028457206+1028003202+1027969842+1028296543+1028611872+1028774740
2489+1028888120+1028938090+1028798243+1028485327+1028140292+1027873486
2480+1027740118+1027662716+1027375577+1026696398+1025838911+1025263049
2472+1025243474+1025650610+1026088210+1026272100+1026295672+1026458471
2463+1026903929+1027544442+1028224173+1028772534+1029017353+1028927269
2455+1028679073+1028491668+1028455758+1028581407+1028879918+1029271890
2446+1029549173+1029630848+1029747054+1030156120+1030743148+1031096178
2438+1030967014+1030537409+1030201196+1030157498+1030311268+1030523831
2429+1030733774+1030840400+1030775542+1030670433+1030625012+1030448014
2421+1030013653+1029645322+1029739197+1030235658+1030776231+1031120232
2412+1031224928+1031179369+1031162207+1031238093+1031184401+1030715233
2404+1029872359+1029063050+1028698854+1028856897+1029315037+1029860159
2395+1030437400+1030990655+1031357056+1031438249+1031351473+1031273933
2387+1031177302+1030860801+1030292314+1029815427+1029863812+1030474757
2378+1031191638+1031470850+1031166067+1030696417+1030740322+1031572927
2370+1032711487+1033530514+1034154899+1035177597+1036536232+1037447204
2361+1037533359+1037195286+1036704683+1035839614+1034719733+1034035660
2353+1034010985+1034031731+1033643618+1033067067+1032661034+1032408289
2344+1032081726+1031876607+1032316689+1033383843+1034397512+1034799478
2336+1034635370+1034270071+1033975695+1033874377+1033993340+1034138564
2327+1033878512+1032970711+1031768051+1030974182+1030928003+1031328315
2319+1031746478+1032052915+1032247764+1032295253+1032257138+1032267890
2310+1032278918+1032138313+1031974480+1032094201+1032430620+1032568745
2302+1032419661+1032376032+1032645871+1032888071+1032681574+1032047677
2293+1031401719+1031167170+1031430943+1031872610+1032086895+1032027620
2285+1032053398+1032481004+1033153222+1033571455+1033501014+1033298584
2276+1033551053+1034449205+1035488307+1035845542+1035313653+1034787416
2268+1035340947+1036859211+1038144166+1038412419+1038168427+1038453084
2259+1039528578+1040518813+1040412808+1039315947+1038325988+1038138307
2251+1038282152+1037974750+1037222924+1036658503+1036649681+1037152277
2242+1038146785+1039475851+1040401987+1040190389+1039118341+1038197858
2234+1037994187+1038359141+1039157008+1040440722+1041787158+1042299127
2225+1041740151+1040971301+1040715730+1040614067+1040122430+1039541812
2217+1039499286+1040101201+1041024786+1041849258+1042190847+1042079052
2208+1042077191+1042550838+1043119808+1043279643+1043142553+1043061016
2200+1042890635+1042287823+1041583831+1041630355+1042594192+1043560992
2191+1043711936+1043354564+1043323204+1043886315+1044854563+1046281709
2183+1048073395+1049237388+1048831837+1047544125+1046951377+1047312126
2174+1047322947+1046020279+1043687330+1040996045+1038452395+1036622732
2166+1035998416+1036698479+1038741188+1042222552+1046541071+1049857361
2157+1050422196+1048416844+1045654842+1043936561+1043860261+1044815758
2149+1046109260+1047817548+1050124925+1052331260+1053313017+1052721991
2140+1051096620+1049191208+1047773781+1047459142+1048044515+1048573509
2132+1048489077+1048074773+1047687212+1047308956+1046840822+1046278193
2123+1045632580+1044954779+1044340732+1043862122+1043671960+1044011412
2115+1044818722+1045570341+1045841420+1045763467+1045627893+1045472055
2106+1045413470+1045776907+1046402257+1046549273+1045983542+1045351851
2098+1045182160+1045456961+1046200585+1047373607+1048364806+1048579643
2089+1048166580+1047611602+1047166972+1046923738+1046835033+1046656243
2081+1046327405+1046168535+1046395365+1046815872+1047105147+1047003414
2072+1046366416+1045366325+1044520004+1044316127+1044808935+1045484875
2064+1045602874+1044925624+1043879905+1042779047+1041485959+1040205208
2055+1039737764+1040366146+1041371682+1042132261+1042675798+1042823778
2047+1042154800+1041286974+1041702381+1043857298+1046548377+1048424840
2038+1049353594+1049893133+1050131818+1049896372+1049635977+1049985147
2030+1050885298+1052208299+1054152583+1055973562+1055898366+1053400758
2021+1049998932+1047247200+1045694198+1045855205+1048134255+1051463228
2013+1053606152+1053398414+1051937702+1051103994+1051436278+1052359863
2004+1053840839+1056084530+1057951689+1057650490+1055180037+1052568842
1996+1051434279+1051496725+1051494657+1050537023+1048579643+1046386611
1987+1045220137+1046064253+1048641537+1051274513+1052079204+1050726014
1979+1049044124+1049229875+1051196353+1052789813+1052794431+1052291077
1970+1052848605+1054442823+1055503292+1054677924+1052272054+1049864461
1962+1048980369+1050184200+1052720406+1054984775+1055746112+1054913714
1953+1053216868+1051523812+1050407928+1049823726+1049206716+1048286715
1945+1047493673+1047231209+1047333286+1047641033+1048331309+1049280121
1936+1049960265+1050281452+1050780809+1051638364+1052139788+1051582536
1928+1050293032+1049255790+1048945700+1048991673+1048843761+1048373215
1919+1047760892+1047210739+1046786648+1046286533+1045519131+1044740907
1911+1044528344+1045107584+1046058739+1046857915+1047401383+1047846565
1902+1048196425+1048213587+1047744902+1047044976+1046602069+1046600483
1894+1046728131+1046622953+1046235323+1045673934+1045054443+1044563496
1885+1044331497+1044237760+1044060693+1043788787+1043578913+1043508748
1877+1043539970+1043574226+1043467462+1043196590+1043008840+1043170123
1868+1043546311+1043813324+1044131754+1044953538+1046331541+1047790667
1860+1048793653+1049194999+1049246623+1049320441+1049581320+1049848953
1851+1049842267+1049537346+1049181904+1049094025+1049506399+1050262912
1843+1050653368+1050257053+1049487031+1048918130+1048692817+1048534222
1834+1048205178+1047843739+1047831471+1048348816+1049010765+1049316237
1826+1049314376+1049370480+1049634116+1049988524+1050343760+1050725118
1817+1051149622+1051523536+1051689024+1051610588+1051474531+1051537390
1809+1051824529+1052080031+1052048946+1051737477+1051458610+1051610174
1800+1052233870+1052812489+1052770445+1052079893+1051261073+1050950776
1792+1051250321+1051541939+1051503342+1051486800+1051777178+1052200924
1783+1052447190+1052505569+1052542582+1052574494+1052496540+1052335533
1775+1052321059+1052657478+1053106244+1053136640+1052755144+1052340633
1766+1052006213+1051708322+1051515128+1051387066+1051033761+1050462723
1758+1050113139+1050104799+1050003756+1049585179+1049237319+1049437613
1749+1050050005+1050447560+1050383460+1050115000+1049965297+1050075369
1741+1050321428+1050297098+1049710759+1048942530+1048862440+1049757077
1732+1050415372+1050109693+1049468146+1048823635+1047967941+1046891068
1724+1045895112+1045106895+1044348383+1043406395+1042051069+1040074528
1715+1037773353+1035744361+1034203904+1033069135+1032220332+1031589055
1707+1031092869+1030571664+1029858781+1028684173+1026422286+1022637793
1698+1017865270+1012248770+1005810072+1000406686+997663225+997350240+998711563
1689+1000887433+1003300471+1006575201+1011590681+1016722506+1020137289
1680+1022596024+1025047523+1027799668+1030799045+1033538302+1035615473
1672+1037496278+1039854659+1042425465+1044371128+1045725559+1047110247
1663+1048891043+1050836362+1052448224+1053517446+1054095928+1054463225
1655+1055357035+1057367073+1059042897+1059402820+1059262008+1059040830
1646+1058226903+1056278828+1053602981+1051031141+1049344909+1048897315
1638+1049332779+1049465872+1047702100+1043857436+1038674607+1032393815
1629+1025447559+1019367405+1016124864+1016880825+1021444783+1027627495
1621+1032857882+1036608878+1039391212+1040919539+1040412670+1037907618
1612+1033574074+1027130620+1018417284+1008065550+997368987+987434244+978697612
1602+971102296+964348339+958129717+952497433+947887916+944660882+942759676
1592+941936169+942147421+943540725+946088097+949434025+953239196+957505745
1582+962277579+967239367+972238513+978155867+986165211+994747798+1000872132
1572+1004802675+1008800213+1014350615+1020837008+1027105946+1033076303
1564+1038480516+1042755750+1046497510+1051655320+1058025851+1062056749
1555+1063996760+1065331547+1066344458+1067153904+1067965488+1068700082
1547+1069139268+1069223907+1069095570+1069164218+1070024048+1071634808
1538+1072847393+1073216138+1073243638+1073426908+1073741823+1073613210
1530+1072774747+1071283777+1069066208+1066132102+1062331894+1056548597
1521+1047996682+1038254307+1028390073+1017253567+1004802606+992472608+980585241
1511+968660930+956414536+942213106+923280922+903823603+891004656+882685566
1502+875097970+866816169+857865940+848828316+840086238+830849974+818002905
1492+795428280+756498411+703564234+650491176+607645581+577469816+560422055
1482+556261994+562865248+577069711+596805518+621420026+651441848+687398394
1472+723943139+751479208+767120535+771764307+763772815+743752730+721920557
1462+708919305+706756599+714841966+733282514+755072230+769999295+778698501
1452+785514697+793063627+802870101+814702122+825609455+832723404+836021223
1442+836927026+836464613+835541855+836128125+840751702+849076305+858161556
1432+866410205+873368936+878673968+882694113+886805238+892345508+899371578
1422+906835869+914418709+922528682+929881522+934421356+936501353+937455609
1412+937735235+937043511+934911063+930980037+924948268+916687765+906976957
1402+897425915+889423119+884125325+882624017+885201440+890920981+897572724
1392+902517281+904548342+903869575+901077040+897335487+894544743+894241546
1383+897014989+902798837+910929350+920298638+930010480+939727628+949038193
1373+956992535+963112389+968026827+972627039+977357104+982390987+987892797
1363+993710556+999140685+1003554181+1006961659+1009675000+1011762027+1012905205
1353+1012710838+1010882002+1006975099+1000241061+989822746+975196466+956506757
1343+934076528+907663442+877341110+845388306+815431892+789360533+767012669
1333+748100679+733196497+723337364+719175717+720617406+727177755+738353410
1323+753536253+771890370+792328136+813194611+832272226+847877781+859827869
1313+869064409+876756564+883833638+890892447+898085865+904995867+910730986
1303+914169961+914123575+909411913+898974230+882247622+860026027+835253476
1293+812699459+797376218+792636158+798904613+813550743+832090128+850205905
1283+865058807+874830889+877399282+869916589+850080738+818220844+778430386
1273+737701042+703552517+681360766+672593187+674971350+684312448+696556636
1264+708869886+719717600+728363941+734404808+737602067+737790712+734656313
1254+727619559+716225138+700971924+683865198+667959547+656024208+649287000
1244+647155586+648046088+650618134+654438399+659733574+666807891+675831662
1234+686953212+700207140+715174319+730850453+745827626+758497214+767348812
1224+771676498+772380490+772021946+773812392+780041422+790916636+804716376
1214+818984869+831457059+840234150+843928766+842121571+835670950+826518635
1204+817014187+809128080+804262785+803719662+808699922+819276557+833651952
1194+848937354+862564645+872843251+878724765+879645524+875652259+867486940
1184+856527638+844712710+834384617+827766371+826113774+829174149+835455837
1174+843007386+850090594+855512797+858675387+859436724+857939620+854575910
1164+850138290+845953140+843556023+843803875+846150470+849005106+850987299
1154+851913296+852705788+854429721+857277810+860328811+862272268+862327132
1145+860428682+856731654+851248729+844031945+835522763+826594039+818314650
1135+811732107+807695420+806465673+807186966+807854428+806240015+801265545
1125+793736465+785735737+778975439+773587147+768932554+765792778+766968902
1115+774905392+789016877+805950464+822213971+836142943+847788111+857725059
1105+866170900+872877851+877416100+879276021+877881752+873130941+866270978
1095+859888454+856488213+856960482+860509392+865858880+872226172+879300903
1085+886819161+894405792+901680817+908390938+914438146+919756480+924162049
1075+927475101+929875939+931917821+933951293+935592104+935858703+933746381
1065+928818848+921694009+914017019+907522010+902898295+899625840+896704623
1055+893369723+889564070+886297887+885243414+887049023+889763812+889777252
1045+885321230+878840971+874833232+875058821+876646560+874974458+867337512
1035+853616415+834999490+813481060+792177330+774806762+764047685+760063587
1026+760502428+762325337+764282303+767763392+775082872+787041921+802177068
1016+817875740+831838830+842849343+850814575+856363874+860405730+863949402
1006+867873950+872268354+876131145+878426736+879575773+881358016+885195374
996+890813460+896481584+900342652+901877802+902458351+904238458+908153907
986+912980880+916334804+916563770+913870141+909884802+906365599+904327095
976+904060220+905432019+908051900+911471852+915409013+919750621+924385226
966+929064977+933363852+936687242+938298208+937490071+934137389+929303799
956+925052757+923342126+925010300+929651177+936076917+942797929+948407605
946+951840860+952389291+949731916+944315089+937591872+931325623+926329579
936+922050555+917453444+912106576+906490696+901719207+899011173+898886076
926+900556386+902297620+902512939+900385661+895915233+889931712+884017183
916+879804670+877953847+877754656+877773127+876967127+875277380+873293188
907+871680085+871112632+872395726+876117636+882065730+889047965+895272032
897+899070586+899730329+897998952+895874499+895706944+899083544+906214310
887+916187512+927606953+939013987+949254960+957911089+965228709+971463115
877+976496102+980170454+982662066+984159239+984058058+980692004+972305300
867+958608878+941311163+923135285+906580711+893585869+885542408+882677985
857+883489843+885718372+888346660+892253218+898683576+907485135+916945197
847+925011541+930741490+934954899+939433598+945235986+951909026+958414787
837+964365157+969994821+975314051+979898617+983445391+986047006+987858818
827+988804527+988639316+987036069+983525687+977545956+968801122+957771862
817+945856374+934877290+926232879+920010810+914490459+907109774+896896646
807+885538272+875069642+865159092+854052568+841917487+832025822+828588569
798+833954047+847537364+866649579+888015548+908855143+927401421+943120563
788+956357950+967433320+976308215+983252541+989054860+994008516+997223419
778+997561562+995099311+991369820+988181521+986211941+984410330+980271428
768+970823291+954450264+932560195+908901046+886553044+865814699+845125015
758+823314278+800600219+778025869+756481662+736149970+716619385+697364015
748+678048956+658528020+638766745+618921245+599677110+582539919+569699537
738+563544359+565762066+576161565+592796125+614013562+639604106+669224238
728+700823944+731435344+758865545+782380642+802239513+818797533+832152367
718+842537598+850263456+854699973+853650739+844181442+824492814+795883042
708+763613669+735281800+717216476+711753332+717489003+731656936+751729886
698+775188671+799213463+821246757+839654290+853966206+864646640+872486223
688+878123952+882052842+884895967+887672719+891645927+897396347+904073729
679+910152849+915002153+919267531+923620029+927670777+930706270+933213941
669+937016975+942009711+944084124+939716049+926726032+904306486+876010872
659+849646860+833023638+829995658+839004541+854726716+871008763+883059205
649+888457766+887119050+880511626+870788412+860493126+852406174+848776347
639+850414263+856679133+866069719+876508919+885934380+893503505+899713718
629+905099598+909430385+911987957+911776498+907570808+898464811+884490003
619+867040655+849739219+838460315+838131753+848629469+864774770+880518588
609+892769392+901565300+908092909+913435918+918314377+923071323+927827717
599+932461288+936325734+938551091+938972632+938321987+937095273+934462780
589+928763915+918959853+905375502+889517201+873608655+860187792+851572673
579+848825283+851137485+856541905+862898859+868413971+872097904+874204643
569+876004669+878511858+881279029+883007511+883342897+883525753+885176144
560+888671569+892948733+896731779+899401353+900815197+901336816+902193820
550+904612441+908301681+911805032+914410163+916665847+918986320+920766082
540+921326988+921266886+922019194+923914129+925581407+925616144+923941974
530+921302657+918325819+915393505+912946349+911716465+912533975+915656244
520+920269276+924843090+928229339+930388598+931939256+933218904+934021596
510+934208587+934175710+934318453+934413223+934050820+933304163+932554336
500+931990467+931679963+931915201+933015715+934584569+935357761+934557344
490+933264876+933345793+935271951+938170629+941570112+945817638+950819196
480+955650442+959455888+961932751+963232731+963777991+963800322+962916093
470+960797430+958197607+956475879+956007125+955377088+952655407+947346792
460+940606551+934001952+928903142+926472942+927249994+930888644+935882344
450+939712258+940391231+937476286+931843796+925627793+921508465+920557586
441+921206922+921341324+919909422+916139610+910059250+904575636+903896249
431+908674217+914587849+917285958+917384038+918965229+924566152+932990213
421+941452527+947985995+952951092+958250885+963959055+968515431+970916683
411+971986181+973188220+974203474+973102961+969461347+965764319+964337380
401+964301195+962911199+959923264+958848528+961196226+964809236+968122287
391+971143375+973594115+973750573+969774126+963177247+959966617+964270041
381+973589428+983338420+991409037+999351593+1009505929+1017315530
##END=
