##TITLE=CML-77,X17779
##JCAMP-DX=4.24
##DATA TYPE=INFRARED SPECTRUM
##DATE=4/3/2021
##SAMPLING PROCEDURE=Diamant-ATR
##ORIGIN=Angelika Moesle
##XUNITS=1/CM
##YUNITS=TRANSMITTANCE
##RESOLUTION=4
##FIRSTX=3997.453
##LASTX=373.96442
##DELTAX=-1.4165319
##MAXY=1.0041634
##MINY=0.39549562
##XFACTOR=1
##YFACTOR=9.3520003e-010
##NPOINTS=2559
##FIRSTY=0.99023622
##XYDATA=(X++(Y..Y))
3997+1058849649+1058811153+1058803760+1058781134+1058785341+1058934607
3989+1059272465+1059642508+1059846268+1059838874+1059660226+1059348309
3980+1059034607+1059004078+1059475332+1060258886+1060762963+1060559076
3972+1059872016+1059288016+1059146844+1059411279+1059829697+1060030333
3963+1059771507+1059272592+1059029763+1059193242+1059401973+1059270170
3955+1058823964+1058445316+1058502805+1059057233+1059827083+1060402289
3946+1060594895+1060553977+1060493238+1060448369+1060366215+1060284380
3938+1060268828+1060309746+1060375010+1060423512+1060349198+1060105413
3929+1059868511+1059857995+1060111531+1060520899+1060943969+1061267168
3921+1061467932+1061571118+1061485331+1061020515+1060241359+1059551941
3912+1059230272+1059193434+1059293369+1059567110+1060032500+1060461434
3904+1060632626+1060687374+1060811656+1060835238+1060654742+1060528802
3895+1060627336+1060828291+1061025805+1061232751+1061271693+1060859967
3887+1060083488+1059351304+1058870936+1058503506+1058287382+1058448312
3878+1058826959+1059030209+1058993498+1058938304+1059118609+1059653407
3870+1060306304+1060538808+1060255062+1060008154+1060258631+1060768699
3861+1060945945+1060695149+1060402544+1060403818+1060756207+1061193299
3853+1061091706+1060277432+1059499041+1059272018+1059537027+1059957739
3844+1060212997+1060200760+1059994642+1059651112+1059245951+1059086551
3836+1059482853+1060258312+1060911911+1061044033+1060547349+1059607836
3827+1058618165+1057990315+1057833782+1057992673+1058487636+1059413318
3819+1060360033+1060842504+1060915289+1060856717+1060752511+1060565258
3810+1060309682+1059996490+1059685083+1059647415+1060084571+1060725869
3802+1061035365+1060745818+1060195342+1059827721+1059751112+1059866535
3793+1060014017+1060043845+1059854043+1059423006+1058884767+1058512748
3785+1058530338+1058945633+1059662967+1060581383+1061317263+1061238296
3776+1060327783+1059416250+1059211534+1059576288+1059841487+1059711660
3768+1059573420+1059764751+1060098466+1060252257+1060239765+1060400122
3759+1060967806+1061673667+1062024718+1061917516+1061527906+1061020451
3751+1060627527+1060508853+1060451874+1060405157+1060769400+1061706746
3742+1062546386+1062792593+1062585328+1062012672+1061083739+1060235495
3734+1060201206+1060937468+1061583292+1061554037+1060979470+1060423066
3725+1060442951+1061141292+1062066018+1062631280+1062616112+1062295144
3717+1062037783+1061925228+1061834215+1061689983+1061513566+1061305281
3708+1061015735+1060670803+1060447604+1060529822+1060845563+1061022554
3700+1060815225+1060425807+1060160734+1060025936+1059728741+1059014021
3691+1058024540+1057312624+1057308864+1057804719+1058408478+1058964435
3683+1059334797+1059437219+1059444484+1059508283+1059379794+1058852644
3674+1058614213+1059358188+1060560860+1061281699+1061112866+1060505539
3666+1060018351+1059788651+1059772845+1059898721+1060076923+1060281193
3657+1060624213+1061226123+1061915477+1062275514+1061991321+1061116818
3649+1060428165+1060758820+1061573222+1061926758+1061638741+1061007832
3640+1060380746+1060115929+1060521982+1061447792+1062182206+1062175323
3632+1061660283+1061206237+1060967934+1060594385+1059945821+1059353790
3623+1059138112+1059418098+1060076222+1060700376+1060794703+1060357674
3615+1059864241+1059636453+1059529825+1059270999+1058983874+1059094772
3606+1059752960+1060589095+1061078131+1060935684+1060322684+1059750474
3598+1059583936+1059689098+1059633139+1059215486+1058814340+1059007966
3589+1059934859+1061072331+1061585076+1061217901+1060421664+1059656976
3581+1059225556+1059315230+1059792730+1060176413+1060084189+1059627212
3572+1059216633+1059116315+1059309686+1059604841+1059771825+1059775586
3564+1059780621+1059823769+1059818670+1059775968+1059776669+1059807389
3555+1059790563+1059705924+1059585147+1059466983+1059414019+1059508346
3547+1059742380+1059864177+1059491775+1058574634+1057562846+1057032128
3538+1057278781+1058146719+1059078520+1059510641+1059359590+1058980815
3530+1058719375+1058698343+1058887890+1059086614+1058928106+1058200958
3521+1057173173+1056430218+1056362978+1056817661+1057254243+1057347933
3513+1057292994+1057350992+1057350992+1056958387+1056276044+1055782610
3504+1055735255+1055902495+1055910462+1055752017+1055728627+1055971520
3496+1056302366+1056513009+1056531938+1056357560+1056078148+1055866549
3488+1055772668+1055688665+1055601859+1055627735+1055792680+1056045324
3479+1056432257+1057022823+1057710265+1058181264+1058077504+1057284135
3471+1056139397+1055267061+1055079553+1055435957+1055829009+1055935892
3462+1055882100+1055874261+1055832706+1055670692+1055643732+1055997523
3454+1056510842+1056780504+1056749019+1056612818+1056446279+1056230410
3445+1056085286+1056148893+1056300773+1056256987+1055915688+1055441502
3437+1055045838+1054843735+1054858012+1055026653+1055222383+1055305811
3428+1055209763+1055073116+1055230222+1055835574+1056530090+1056737355
3420+1056267822+1055451062+1054770185+1054526974+1054701161+1055017858
3411+1055236468+1055335384+1055399756+1055530030+1055864637+1056418300
3403+1056839840+1056599115+1055587582+1054468912+1054197020+1055000586
3394+1056045324+1056391467+1056014158+1055543095+1055365913+1055439144
3386+1055632005+1055786817+1055672540+1055203453+1054580702+1054084145
3377+1053863050+1053959353+1054351958+1054876495+1055242077+1055263555
3369+1054995997+1054567700+1054087842+1053806326+1054002820+1054530734
3360+1054868910+1054800013+1054647369+1054748515+1055070057+1055369737
3352+1055432643+1055178406+1054726145+1054286439+1053961265+1053780131
3343+1053832776+1054103202+1054271908+1054025701+1053583637+1053573185
3335+1054257950+1055170120+1055672987+1055606256+1055221363+1054790899
3326+1054506133+1054501607+1054761900+1055087201+1055251637+1055185863
3318+1055007342+1054886310+1054889879+1054996826+1055179043+1055347876
3309+1055356417+1055256608+1055388794+1055980060+1056783499+1057325116
3301+1057380310+1057037545+1056430919+1055644178+1054831753+1054213591
3292+1053931947+1054026338+1054459861+1055000267+1055263938+1055132007
3284+1054905366+1054832836+1054823659+1054810593+1054971523+1055388539
3275+1055857180+1056161831+1056289747+1056306700+1056168906+1055716836
3267+1054929394+1054154891+1053855402+1054103903+1054555145+1054863811
3258+1054926526+1054826845+1054707789+1054666553+1054730542+1054886947
3250+1054999821+1054826081+1054369103+1054047562+1054216012+1054701925
3241+1055074518+1055192810+1055273944+1055513013+1055774452+1055745198
3233+1055382165+1055001861+1054833028+1054781084+1054759478+1054854889
3224+1054992874+1054890006+1054557885+1054431563+1054755717+1055198227
3216+1055311675+1055092491+1054861198+1054799567+1054809892+1054725125
3207+1054508172+1054265088+1054128377+1054139786+1054203967+1054123215
3199+1053733796+1053072294+1052336733+1051677079+1051157387+1050860574
3190+1050789383+1050712264+1050327562+1049551465+1048544712+1047514187
3182+1046487230+1045247846+1043645366+1041918986+1040411279+1039111220
3173+1037874640+1036839079+1036179235+1035770823+1035478854+1035480703
3165+1036021682+1037098734+1038496881+1039911918+1041030588+1041723639
3156+1042195148+1042815095+1043794505+1045066075+1046410813+1047591433
3148+1048444139+1049006215+1049494932+1050019213+1050436229+1050604106
3139+1050601174+1050608440+1050766311+1051169751+1051790208+1052408434
3131+1052790077+1052889822+1052809835+1052690269+1052666241+1052761970
3122+1052800147+1052583832+1052200850+1051979181+1052096899+1052383514
3114+1052533928+1052380136+1051939857+1051372746+1050949930+1050897031
3105+1051180522+1051551076+1051819080+1051950437+1051887276+1051521248
3097+1050975552+1050631958+1050681416+1050889892+1051007355+1051090083
3088+1051216979+1051213919+1050938968+1050588491+1050454011+1050559683
3080+1050742665+1050911945+1051005635+1050871346+1050443304+1049912075
3071+1049499649+1049220618+1049025909+1048950320+1048945030+1048810804
3063+1048453381+1048008640+1047651981+1047436685+1047338407+1047316609
3054+1047345736+1047465175+1047780470+1048355675+1049111759+1049883140
3046+1050584285+1051235589+1051795562+1052111494+1052152794+1052134375
3037+1052249225+1052411876+1052428957+1052293457+1052124369+1051946103
3029+1051740176+1051594543+1051574785+1051573128+1051517424+1051547315
3020+1051710094+1051685619+1051134124+1050154586+1049143627+1048389136
3012+1047979195+1047891496+1047969889+1047952872+1047646564+1047027573
3003+1046192011+1045294691+1044490296+1043786985+1042972583+1041811912
2995+1040309622+1038664185+1036988792+1035238766+1033343043+1031236931
2986+1028842867+1026176464+1023369080+1020499810+1017553867+1014556745
2978+1011521319+1008264925+1004508149+1000155902+995352731+990345673+985413886
2968+980870753+977121244+974683330+973921509+974638715+976171470+977975925
2958+979818876+981394078+982224987+982107333+981258961+979857627+977764199
2948+974887281+971521709+968078444+964668067+961152209+957436479+953569825
2938+949707569+946059526+942703068+939430039+935967909+932341471+928857417
2928+925776038+923147366+920953938+919295116+918370008+918369179+919554389
2918+922433538+927538046+934781935+943188216+951497302+958989884+965549836
2908+971134521+975663505+979417922+983013130+986776533+990441403+993518575
2898+995796260+997545585+999322698+1001431678+1003584634+1005239058+1006098074
2888+1006113052+1005299925+1003857100+1002314722+1001336586+1001323775
2880+1002178521+1003421984+1004543395+1005219046+1005265891+1004581317
2871+1003199422+1001294649+999054184+996616971+994166247+991952233+990077797
2861+988314386+986292978+983910513+981473237+979406513+977888481+976926407
2851+976875419+978661391+983179604+990429612+999305171+1008177098+1015748456
2842+1021604841+1026098580+1029736936+1032732019+1035083317+1036896759
2833+1038464632+1040035627+1041626061+1043114520+1044405147+1045456960
2825+1046304312+1047082576+1047878558+1048583335+1049080784+1049465869
2816+1049877595+1050230048+1050348467+1050334254+1050557389+1051185685
2808+1051890909+1052219780+1052139283+1051963311+1051855409+1051729405
2799+1051588552+1051648398+1052034758+1052546611+1052850753+1052855724
2791+1052775992+1052830676+1052992753+1053092753+1053119904+1053303651
2782+1053813719+1054470123+1054924997+1055069164+1055089496+1055204154
2774+1055474326+1055790131+1055974451+1055969990+1055901985+1055910717
2765+1056013839+1056132768+1056151443+1056003451+1055786116+1055685160
2757+1055726715+1055729647+1055559858+1055326844+1055246092+1055351254
2748+1055471203+1055490259+1055464574+1055448513+1055393319+1055264320
2740+1055109254+1055005302+1055018113+1055165085+1055403580+1055702113
2731+1056036401+1056264890+1056170499+1055740736+1055259221+1055025506
2723+1055086564+1055287201+1055476046+1055606448+1055695612+1055754949
2714+1055763044+1055712183+1055663108+1055697333+1055822635+1055993189
2706+1056192934+1056390575+1056484711+1056425884+1056326585+1056342073
2697+1056494207+1056649083+1056632002+1056407528+1056171200+1056136401
2689+1056240097+1056252908+1056163998+1056197778+1056442646+1056714156
2680+1056811988+1056725054+1056553035+1056373749+1056225375+1056165337
2672+1056298160+1056704659+1057296308+1057793821+1057925560+1057643917
2663+1057142070+1056695481+1056491084+1056535890+1056697011+1056840350
2655+1056937801+1057035697+1057125690+1057073173+1056745513+1056227287
2646+1055835956+1055860430+1056289364+1056807017+1057061510+1056959534
2638+1056678528+1056399625+1056161385+1055992616+1055969098+1056068396
2629+1056171901+1056234298+1056254374+1056143731+1055813521+1055316009
2621+1054810657+1054495298+1054517796+1054790580+1055014034+1055026590
2612+1054934621+1054847304+1054768592+1054741186+1054790070+1054807279
2604+1054777387+1054970949+1055619577+1056503194+1057094397+1057100706
2595+1056759471+1056573748+1056787004+1057176359+1057372216+1057258003
2587+1056995544+1056774767+1056662085+1056674449+1056885156+1057367117
2578+1058060232+1058767622+1059246652+1059303185+1058969024+1058615360
2570+1058639197+1058957360+1059095856+1058859273+1058595921+1058643404
2561+1058851051+1058897769+1058797386+1058723645+1058569089+1058144552
2553+1057694140+1057697135+1058193182+1058773613+1059208029+1059620010
2544+1060044610+1060235304+1060020327+1059584892+1059281770+1059255639
2536+1059333140+1059278838+1059063988+1058802294+1058533461+1058250798
2527+1058066732+1058147293+1058504908+1058967176+1059343019+1059575841
2519+1059799486+1060240530+1060966850+1061739123+1062213054+1062300816
2510+1062202601+1062052124+1061732303+1061168762+1060583231+1060234858
2502+1060117586+1060148306+1060456654+1061202796+1062240523+1063163465
2493+1063630831+1063612475+1063376657+1063192400+1063017959+1062612096
2485+1061964935+1061403432+1061223255+1061393617+1061644477+1061713565
2476+1061540207+1061348047+1061499544+1062145431+1062990871+1063462635
2468+1063200495+1062410312+1061627269+1061120387+1060723639+1060260288
2459+1059866918+1059825044+1060251174+1060946646+1061492534+1061665127
2451+1061749065+1062148491+1062780674+1063224013+1063325542+1063282330
2442+1063263656+1063243707+1063119488+1062840840+1062482588+1062202729
2434+1062122041+1062292977+1062720573+1063307951+1063830257+1064024647
2425+1063707822+1062896608+1061873667+1061060030+1060762134+1060999865
2417+1061511017+1061941225+1062105406+1062035425+1061807191+1061477110
2408+1061177429+1061077430+1061212993+1061454038+1061657033+1061813692
2400+1062013437+1062272327+1062483097+1062546960+1062414583+1062005024
2391+1061289602+1060472333+1059936261+1059992029+1060688075+1061751105
2383+1062674748+1063014071+1062739311+1062297311+1062199606+1062515220
2374+1062928475+1063307760+1063865311+1064671745+1065490417+1066197744
2366+1066790731+1066955931+1066352109+1065397747+1065071616+1065684106
2357+1066401057+1066322154+1065468110+1064311453+1063036059+1061704515
2349+1060565449+1059933010+1060014081+1060800120+1061960728+1062917640
2340+1063201514+1062803428+1062167420+1061784693+1061770926+1061805662
2332+1061494382+1060810955+1060027656+1059234224+1058314851+1057477569
2323+1057364313+1058318484+1059795089+1060927972+1061433579+1061573540
2315+1061564554+1061406938+1061195275+1061246582+1061695210+1062146196
2306+1062098395+1061677364+1061566784+1062215794+1063420762+1064584238
2298+1065096983+1064646060+1063512731+1062494378+1062296419+1062960470
2289+1063855687+1064191122+1063664100+1062716239+1062088198+1062128032
2281+1062598521+1063062828+1063307186+1063411393+1063533954+1063752500
2272+1064166011+1064932802+1065914571+1066474926+1066084934+1065033694
2264+1064150077+1063943704+1064274041+1064655748+1064706672+1064471172
2255+1064306291+1064341281+1064340134+1064252053+1064453135+1065112662
2247+1065702781+1065624961+1065166900+1065202655+1065896279+1066475627
2238+1066473715+1066335921+1066589011+1067319537+1068556372+1070234505
2230+1071722454+1072195365+1071540938+1070344639+1069017811+1067453954
2221+1065616229+1063899154+1062579974+1061522935+1060794448+1060772013
2213+1061290240+1061625675+1061594445+1061772074+1062605213+1063897688
2204+1064932739+1064990610+1064278248+1063920186+1064370790+1064710368
2196+1064184494+1063372259+1063234147+1063901958+1064716933+1064988060
2187+1064805970+1065081240+1066306730+1067586458+1067678172+1066694874
2179+1065955743+1066367597+1067539167+1068471541+1068762044+1068614625
2170+1067825527+1065891818+1063337460+1061660347+1061561558+1062431982
2162+1063904189+1066434773+1069814621+1072600845+1073741823+1073312889
2153+1071649669+1069009589+1065994622+1063639180+1062741478+1063167161
2145+1063951671+1064138159+1063589340+1063065951+1063376211+1064411134
2136+1065309347+1065587230+1065592201+1065772443+1066043187+1066016992
2128+1065528785+1064878500+1064574359+1064796665+1065198767+1065334649
2119+1065170915+1065090546+1065454216+1066124322+1066432032+1065833947
2111+1064582389+1063419551+1062719298+1062406233+1062514965+1063097053
2102+1063710181+1063809670+1063561360+1063520634+1063738351+1063924202
2094+1064164226+1064737838+1065493922+1065939619+1065829676+1065470914
2085+1065415401+1065725980+1065688950+1064661803+1063033510+1061876917
2077+1061915413+1063225224+1065468046+1067839421+1069177976+1068843050
2068+1067377600+1065807624+1064515404+1063406039+1062809036+1063185772
2060+1064116553+1064616806+1064415150+1064091569+1064042493+1064020058
2051+1063699856+1063227136+1063053841+1063282457+1063406549+1062886283
2043+1061740206+1060544608+1060149836+1061240527+1063638033+1066047330
2034+1067118455+1066908194+1066667978+1067159245+1067988751+1068498628
2026+1068412013+1067792576+1067278429+1067849109+1069497605+1070969876
2017+1071440365+1071338899+1071073126+1070287915+1068729412+1066951215
2009+1066098254+1066968296+1068941967+1070437436+1070824816+1070841259
2000+1071058467+1071230168+1071130232+1070778799+1069890338+1068270841
1992+1066703606+1066209853+1066463581+1066259758+1065355873+1064697430
1983+1064904950+1065453005+1065535605+1065209283+1065398193+1066577156
1975+1067731709+1067501627+1066115845+1065208710+1065886464+1067657204
1966+1069162998+1069569116+1069058601+1068223868+1067435981+1066758354
1958+1065972187+1064622032+1062567801+1060507833+1059434223+1059595408
1949+1060433646+1061353082+1062131091+1062733383+1063064039+1063043516
1941+1062792848+1062490363+1062135234+1061733259+1061573540+1061982844
1932+1062887430+1063851799+1064408011+1064238286+1063307633+1061950085
1924+1060743396+1060196489+1060448305+1061183420+1061825356+1062025291
1915+1061990875+1062029370+1062100243+1062148172+1062430453+1063045683
1907+1063502852+1063233892+1062214902+1060923766+1060062328+1060177624
1898+1061072012+1061713629+1061233452+1059974310+1059044996+1058969916
1890+1059287506+1059362458+1059197003+1059141490+1059270935+1059430208
1881+1059538174+1059543528+1059332885+1058894773+1058396368+1058022819
1873+1057858384+1057852648+1057808862+1057548187+1057218552+1057200132
1864+1057676421+1058471001+1059189418+1059555064+1059629888+1059643591
1856+1059716822+1059825490+1059896745+1059854298+1059648690+1059308666
1847+1058936328+1058582728+1058126261+1057424733+1056626266+1056047491
1839+1055841437+1055846536+1055674644+1055093256+1054342526+1053996574
1830+1054428822+1055277258+1055824675+1055908868+1055921106+1056160684
1822+1056533277+1056852396+1057062912+1057108546+1056891466+1056488471
1813+1056153928+1056010971+1055894528+1055582165+1055084779+1054630606
1805+1054438765+1054489625+1054456228+1053986440+1053182109+1052543233
1796+1052346739+1052328893+1051980583+1051119592+1050065995+1049033876
1788+1047913421+1046683214+1045491886+1044373662+1043244029+1042212038
1779+1041511785+1041078198+1040554299+1039729446+1038761508+1037999687
1771+1037539587+1037186369+1036887135+1036736467+1036685160+1036570820
1762+1036365786+1036202370+1036123403+1036016456+1035766361+1035285356
1754+1034464199+1033157639+1031196396+1028529483+1025361616+1021931800
1745+1018355649+1014808625+1011573390+1008866452+1006876593+1005841861
1737+1005877998+1006954668+1008757020+1010525847+1011912905+1013121568
1728+1014159487+1014867707+1015284021+1015623982+1016040998+1016502309
1720+1016807917+1016713080+1016337045+1016314738+1016931307+1017897397
1711+1018921931+1019963610+1021163033+1022636068+1024255183+1025750079
1703+1027082133+1028390733+1029618517+1030576385+1031386389+1032229853
1694+1033021948+1033680964+1034298807+1034922706+1035448963+1035800205
1686+1036074455+1036434109+1036847046+1037135509+1037276936+1037381143
1677+1037624481+1038154881+1038885216+1039559911+1040092160+1040498213
1669+1040691839+1040657613+1040574567+1040632438+1040933329+1041405030
1660+1041808725+1041971631+1041895340+1041678196+1041421601+1041131034
1652+1040717524+1040243083+1039862970+1039708987+1039834480+1040143211
1643+1040572336+1041130779+1041761689+1042360986+1042898396+1043433767
1635+1043934785+1044219870+1044254478+1044179335+1044091636+1043890936
1626+1043426565+1042768632+1042119240+1041530459+1040800315+1039410709
1618+1036374008+1031038589+1024824015+1020031743+1018018238+1019482031
1609+1023938358+1029305835+1033482940+1035867891+1036987007+1037464699
1601+1037559217+1037248829+1036500138+1035437746+1034289120+1033136670
1592+1031749995+1029671417+1026351989+1021275461+1014336606+1006422611
1584+999568332+996085871+996898551+1000852585+1005714583+1008810621+1008123242
1574+1005029626+1002760864+1003655826+1008166518+1013537565+1016587204
1565+1016940102+1015669807+1013718443+1011540758+1009732479+1009922408
1557+1012452801+1015905116+1019605995+1023163982+1026241218+1028739362
1548+1030600541+1031776445+1032367138+1032545786+1032409394+1031888873
1540+1030967525+1030112716+1029708957+1029687223+1029832666+1029889390
1531+1029781232+1029710359+1029876197+1030312269+1030865549+1031324311
1523+1031554648+1031458792+1030995759+1030229095+1029253063+1028224449
1514+1027337263+1026652944+1026089657+1025548359+1024995525+1024343392
1506+1023162261+1021094454+1018286369+1015122773+1012254714+1010390093
1497+1009712721+1009761223+1009996085+1010100291+1009803415+1008781175
1489+1006811902+1003947667+1000260745+995390717+988362697+978098423+964603950
1479+949534530+935639229+925979606+922357821+922878151+922463557+918909649
1469+914843952+913420056+916192641+921734878+925611284+924816130+918723544
1459+904470883+876331654+838793858+808248327+789712953+780260276+778987750
1449+786445086+801872631+822236425+844115191+865564832+885157883+901574972
1439+915364027+929123700+944202043+957965158+967768375+973696462+976329914
1429+976526345+976596134+979204347+985290305+993295695+1000604912+1005977870
1419+1009601759+1011677851+1012271412+1011695824+1010222662+1007933696
1411+1004739315+1000426646+994913281+988751670+983733204+982186619+984631161
1401+989354982+994057643+996923535+997103139+994388744+988581881+979620279
1391+967647471+953152746+938391419+927889733+924189172+924152525+922354507
1381+915771100+905508228+895455044+888818036+885752973+884029524+881712642
1371+878694679+875469069+872195530+869667941+870331036+877588628+892866397
1361+912413750+929938930+942318684+949691572+952889076+952657145+949948359
1351+945926002+941572351+937140053+931732168+923542202+910676343+891659836
1341+865632455+833728802+800927701+773942961+756305481+747653056+746396018
1332+751151451+760749889+774315936+791437485+811737926+834189922+857086212
1322+878732793+898026673+914464795+927999485+938963565+947743204+954351722
1312+958524557+960281785+960135705+958618374+955673069+950617509+942938567
1302+933350263+924015240+917452739+914965813+915880851+918130047+919673827
1292+919630297+918344323+916685501+915543312+915851533+918442729+923305364
1282+929075325+933684615+935686011+934943247+932312854+928966722+925862972
1272+923478850+921771590+920281601+918330110+915314951+910961429+905296757
1262+898419788+890395469+881356876+871531479+861024822+849630915+836987363
1252+822903663+807444123+790757946+773062658+754854944+737019822+720657226
1242+706762436+695958520+688349432+683421405+680094393+677149725+673798557
1232+669815970+665197502+659798668+653199327+644848368+634517937+622693885
1222+610365119+598364649+586958378+576005069+565356730+554992074+544792172
1213+534408396+523510727+512121250+500689517+489878591+480157655+471518359
1203+463718003+456871755+451779962+449810115+452478366+460750900+474297764
1193+491237828+508642453+523569236+534119869+540025267+542510663+543579493
1183+545157690+548590311+554734267+564375663+578281925+596529601+617795304
1173+639791023+660852393+680987889+701041550+720870100+738540340+751176690
1163+756366730+753038188+741690744+724177610+703063085+680745825+658669991
1153+636781919+613377983+585668962+551285522+510589260+468843830+436096586
1143+422899498+433503669+462084070+496200016+524708301+542843358+551479913
1133+554423880+557045222+564571009+579127875+598989058+621413138+644850662
1123+667542364+685273024+692044512+684198777+665351932+647033000+641970748
1113+655215828+682169912+714538955+746437636+775387316+800467728+821314694
1103+838205778+851907517+863092693+872032051+878810549+883645714+886876997
1094+888612109+888354621+884921873+876699020+862243620+841625206+818187171
1084+798679270+790121492+795365579+811471579+832283109+852400568+869195859
1074+882306394+892258560+899543111+904217474+905771580+903149345+894844848
1064+879285755+855964737+826888799+796707384+770733922+752657118+744196216
1054+745992259+757073929+772796184+784658540+784301754+769421052+746599905
1044+727436490+719920008+723311456+732552470+746289007+767429216+796415671
1034+827898611+855113943+875037012+888487763+897358543+903015949+906397518
1024+908328678+909335876+909412804+908303056+906007334+902775669+898616473
1014+893085772+885765592+876963583+867808355+859517816+852566469+846463048
1004+840121196+832650029+824270899+816356075+810066421+805225201+801283213
994+799197433+801439172+809916964+824242537+841857009+859308766+873439630
984+881981666+883862348+879742668+872503942+866397398+864507665+866643031
975+870013957+871847985+870834158+866347685+857605458+844614998+829724991
965+817302088+811321675+813323581+822595506+837548610+856292206+876443699
955+895539874+912034401+925633782+936704044+945637475+952694048+958113978
945+962236272+965474438+968131408+970232994+971571103+971865302+970704121
935+967156268+959994469+949554543+939611045+935762620+940654318+951519737
925+963182604+972514886+979361389+984610702+988829362+992230689+994886512
915+996868086+998401223+999772729+1001075019+1002199489+1003028295+1003506496
905+1003597573+1003288205+1002657614+1001916380+1001349715+1001167625
897+1001356854+1001663353+1001754940+1001436713+1000695415+999570244+998077260
887+996214615+993789957+990163074+984534093+976879562+968329686+960018433
877+951845994+943535952+937035337+936237761+943195673+955505255+968421910
867+978811295+986260091+991450641+994923223+997057697+998083506+997985737
857+996897850+995475484+994482753+994044004+993522399+992088943+989276015
847+985097954+979940801+974474981+969532933+965819051+963576101+962495098
837+961993698+961646471+961385541+961314414+961322380+960794339+958806583
827+954884098+949588003+944153413+939643486+936682183+935818196+937732849
817+942860365+950721524+959729269+967920829+974017621+977826977+979852783
807+980706700+980870562+980849529+981150484+981872980+982697069+983459463
798+984265770+984842569+983729379+977986569+965331863+948843583+937811051
788+939873058+952759503+966973859+975274532+976385172+971512403+960967888
778+942798542+911637207+860578488+788845715+709593210+647830066+626604388
768+652163576+710524501+777558182+833773225+872117710+894813108+905917022
758+908595280+907572785+909627845+919157449+934431968+949688959+960326527
748+965386484+966175137+964255130+961069673+958278222+957252413+957948523
738+958620031+957091420+952424705+945348119+937661211+931868496+930622356
728+935079575+943605232+952689650+959147691+961279869+958799317+952980853
718+946720836+942909568+942335510+943973491+946889988+950347274+951714255
708+944993627+922508745+881859551+835014202+806163885+812548567+848063680
698+890672013+923749212+945119376+959149858+968566843+974399201+978153745
688+981452969+984796616+987625160+989223179+989178883+987289661+983480687
679+977846162+970526620+961314222+949886536+936848913+922779936+904600456
669+875162250+835125037+796270611+761102597+725730695+691213476+662708792
659+643338685+632912334+630100744+633267846+640843091+651624890+664799989
649+679851373+696238379+713504478+731735009+751252534+772014160+793744615
639+816227777+839044271+861177785+881025073+896833879+907009052+909557673
629+901138135+878211635+842044452+802970397+775832694+768857191+778596228
619+795531862+811894331+824155603+831327981+833234476+830213581+823222336
609+813092479+799961803+785309016+774768070+775783618+790529776+813097068
599+834903495+851200445+861583966+866852782+867671708+865159607+860864848
589+855753265+849876421+843439986+837378056+831900892+825416593+816507381
579+806329149+797761300+793155134+793854685+800601125+813075143+829121488
569+844836986+855571430+856877098+845491031+821823743+792554881+768834183
560+759909229+768216467+789818179+817936822+846252023+870682724+889405669
550+902088100+909658182+913789335+915296404+913370853+906733144+894780986
540+877779004+857053516+835098332+814729184+797956328+786151333+781118335
530+784827501+797462385+815710124+833005477+843237501+844966750+840069826
520+829092106+809874261+781234205+746924314+714308108+690259496+678752906
510+680102487+691680268+709586390+729707228+748134699+761302277+766819595
500+765953249+764361285+768660251+782094304+802504178+823597478+838493859
490+844046485+843074468+841604556+844053305+850942128+860033302+868956663
480+876623813+882656616+886578592+888151180+888068771+887829767+888887698
470+891889727+896648794+902413465+908032694+912402660+914940383+915897486
460+916591237+918672556+922456673+926479859+929426631+931096733+931722289
450+932158871+933850899+937263379+940855719+942508295+941991407+941376112
441+942774642+946216122+950077804+952677158+953159374+951571872+948682971
431+945698405+943523779+942020024+940556931+939289440+939109007+940509321
421+943301154+946087441+945424346+939871592+932567793+927223133+925133019
411+924549592+922463366+916706470+906057557+890438617+871943651+853808339
401+837358681+821505388+807356297+801566259+808115121+823441775+842979440
391+863633035+880767968+887967752+882323603+868927090+857270660+851823706
381+850794519+852333774+856280160+862960826+871849132+879803535
##END=
