##TITLE=X9382
##JCAMP-DX=4.24
##DATA TYPE=INFRARED SPECTRUM
##DATE=5/11/2018
##SAMPLING PROCEDURE=ATR platinum Diamond 1 Refl
##ORIGIN=ComPlat
##XUNITS=1/CM
##YUNITS=TRANSMITTANCE
##RESOLUTION=4
##FIRSTX=3997.453
##LASTX=373.96442
##DELTAX=-1.4165319
##MAXY=1.025126
##MINY=0.72273129
##XFACTOR=1
##YFACTOR=9.5472297e-010
##NPOINTS=2559
##FIRSTY=0.99080783
##XYDATA=(X++(Y..Y))
3997+1037796161+1037322057+1036540667+1036080610+1036323218+1037057536
3989+1037880568+1038579050+1039038108+1039140121+1038957509+1038795000
3980+1038819661+1038816539+1038496578+1037895177+1037309259+1036972005
3972+1036927616+1037100613+1037383365+1037702639+1037943811+1037848229
3963+1037288657+1036623263+1036322906+1036368418+1036485665+1036637622
3955+1036765607+1036423483+1035119979+1032993442+1031114508+1030665377
3946+1031375721+1031794698+1031498648+1031741194+1033365595+1035427328
3938+1036626010+1036476550+1034953724+1032338912+1029791213+1029055460
3929+1030501932+1032382614+1032832182+1031804187+1030811154+1030670059
3921+1030534583+1029599799+1028555946+1029029800+1031597165+1034964462
3912+1037485003+1038526858+1038156327+1036113449+1031772160+1025347162
3904+1018978790+1015541757+1015886191+1018921790+1023318081+1027548429
3895+1029899469+1029437415+1027124146+1025884447+1027243265+1028880902
3887+1028104568+1025121910+1022499856+1021337883+1021042646+1022453469
3878+1026119001+1029425615+1029454646+1026039651+1021403811+1017671477
3870+1016196662+1017457400+1019408255+1019518884+1018226742+1018595024
3861+1021823350+1025538951+1027291587+1026221389+1021809927+1013799173
3853+1007015445+1009113450+1017215042+1024914451+1029466945+1030374572
3844+1028076286+1023494200+1017833050+1012514523+1009488600+1010446984
3836+1014395080+1018624180+1021969501+1024794145+1027191509+1028435329
3827+1028152578+1027040925+1025513042+1022406084+1017085310+1012834421
3819+1013098256+1016215079+1020178721+1025149692+1030541014+1034504093
3810+1035752471+1033991969+1030242966+1026801001+1024394335+1021171504
3802+1016886778+1015065843+1017453030+1021419606+1025377129+1029616905
3793+1033712776+1036493905+1037603935+1037512223+1036551654+1034913768
3785+1033440076+1032958356+1032796721+1031855381+1030976660+1032204934
3776+1035318698+1037896051+1038104884+1035682548+1031846016+1028848937
3768+1028017289+1028709777+1030094068+1031577624+1031815612+1029673593
3759+1026261345+1024437912+1024748508+1024405760+1020617675+1012908090
3751+1005016767+1002820745+1005579212+1008409849+1009745817+1011515746
3742+1015103114+1018566868+1019471186+1016399813+1009825667+1004071245
3734+1004910260+1012226902+1020784117+1026600097+1028335252+1026376780
3725+1022827932+1020675299+1021379213+1024306494+1028097638+1031406624
3717+1033067423+1032161856+1028016727+1021123681+1015457474+1016400001
3708+1023103941+1030353408+1034777543+1035548195+1033684183+1031906450
3700+1032415078+1034374548+1035838938+1036026357+1034654740+1030827386
3691+1023997147+1016606336+1014237753+1018607573+1025242527+1030457918
3683+1033171122+1033185356+1030613559+1025551438+1017915709+1010025697
3674+1007664419+1010758079+1013223369+1013418030+1015921215+1023215506
3666+1031451637+1036909324+1038937032+1038825966+1037850726+1036150346
3657+1033654840+1031330146+1029775231+1027083878+1020390238+1009343760
3649+1000460278+1002473626+1012412448+1022332540+1029001831+1032610863
3640+1034315176+1034861825+1034231893+1032377182+1029902840+1027501856
3632+1024635695+1019970574+1015006221+1015458224+1021874793+1028385259
3623+1031263657+1029775543+1024938112+1019682891+1017228964+1017268983
3615+1017501414+1017625466+1018720574+1020398729+1021370473+1022315184
3606+1025037003+1028828959+1031031724+1030431010+1028394624+1026965570
3598+1026375407+1025712448+1025221426+1026076423+1027826561+1027979705
3589+1024687762+1019610096+1017813197+1021241739+1026237059+1029586751
3581+1030877019+1031030039+1030971603+1031196543+1031855693+1032773247
3572+1033119429+1031288130+1025751842+1017161288+1010455162+1010906354
3564+1016790634+1022959101+1027010521+1029406574+1031164141+1032157986
3555+1031581869+1029583254+1027717930+1027209177+1027105604+1025559616
3547+1022653624+1020945752+1022520958+1026370475+1029950163+1031680199
3538+1031540477+1030569295+1029954596+1030028015+1030091009+1029278340
3530+1027482564+1025510171+1024225458+1023679122+1023596275+1024216843
3521+1025835875+1027992004+1029842344+1030923218+1031172694+1030578972
3513+1029177638+1027403651+1026212274+1026313662+1027084627+1026978681
3504+1025282359+1023072851+1022135506+1022892736+1024161279+1024804259
3496+1024860947+1025034444+1025449737+1025473274+1024713921+1023619687
3488+1022931943+1022789163+1022627653+1022026876+1021436775+1021664399
3479+1022627653+1023335374+1023197713+1022627153+1022217791+1021947463
3471+1021531608+1021032969+1020729927+1020675549+1020655946+1020469526
3462+1020134706+1019909017+1020089381+1020694154+1021341005+1021538725
3454+1021075609+1019989304+1018343176+1016427595+1015025325+1014798824
3445+1015389924+1015883631+1015990950+1016066742+1016318091+1016606648
3437+1016744122+1016577805+1016093338+1015632470+1015610494+1015933638
3428+1016119684+1015944626+1015505609+1014781343+1013703653+1012629584
3420+1012170027+1012494046+1013225928+1013943577+1014428356+1014617273
3411+1014607284+1014602227+1014744196+1015008468+1015212431+1015073397
3403+1014392083+1013235668+1011912747+1010847231+1010399286+1010542254
3394+1010816203+1010881007+1010939942+1011293178+1011741997+1011888399
3386+1011837018+1012052219+1012569775+1012894730+1012717425+1012233644
3377+1011727264+1011302169+1011081536+1011253410+1011722831+1011985854
3369+1011603837+1010732920+1009977563+1009781903+1010162359+1010885564
3360+1011655967+1012279094+1012801520+1013285425+1013499565+1013180978
3352+1012493608+1011856684+1011465614+1011253784+1011169752+1011240486
3343+1011363351+1011188793+1010432437+1009340950+1008596144+1008609380
3335+1009118882+1009555277+1009570448+1009178878+1008678429+1008506368
3326+1008935271+1009810746+1010724366+1011436833+1011959259+1012290769
3318+1012380545+1012329851+1012313432+1012262113+1011912310+1011267956
3309+1010775248+1010849042+1011353550+1011817477+1012050034+1012199370
3301+1012316740+1012293516+1012160350+1012050783+1011966938+1011912685
3292+1012100104+1012712118+1013589216+1014361055+1014802382+1014942915
3284+1014921501+1014835471+1014711170+1014580189+1014549036+1014692566
3275+1014849893+1014764049+1014540732+1014602352+1015019768+1015346784
3267+1015340978+1015354837+1015757020+1016385579+1016814857+1016840641
3258+1016544779+1016116063+1015764200+1015710946+1016079041+1016696737
3250+1017137502+1017122581+1016820226+1016579491+1016461371+1016278821
3241+1016008306+1015809400+1015624041+1015169042+1014451643+1013920727
3233+1013929654+1014356935+1014847957+1015146691+1015141010+1014838780
3224+1014373416+1013892383+1013428143+1012899724+1012254059+1011648101
3216+1011404181+1011595096+1011805178+1011617572+1011169877+1010860092
3207+1010735042+1010549496+1010199569+1009766170+1009331835+1008961305
3199+1008686982+1008433386+1008111177+1007793839+1007636012+1007619031
3190+1007508153+1007170087+1006833894+1006842135+1007184259+1007515957
3182+1007579699+1007380418+1007118581+1007141369+1007689079+1008534087
3173+1009199106+1009552780+1009818051+1010052917+1010060097+1009781715
3165+1009430040+1009228324+1009244868+1009448020+1009764110+1010090751
3156+1010371442+1010662435+1011051944+1011522676+1011939905+1012163409
3148+1012152983+1012004646+1011857121+1011691615+1011296050+1010591513
3139+1009935234+1009876486+1010562357+1011529731+1012146927+1012136751
3131+1011650286+1011046075+1010682912+1010684972+1010809336+1010733669
3122+1010465713+1010263186+1010256131+1010348904+1010441865+1010598817
3114+1010936446+1011386576+1011734069+1011905068+1011952641+1011782952
3105+1011288621+1010724616+1010522776+1010770690+1011176994+1011455375
3097+1011531292+1011508379+1011555765+1011752423+1012025436+1012238139
3088+1012290270+1012164533+1011920364+1011613639+1011253472+1010903794
3080+1010736041+1010893243+1011335569+1011867422+1012298573+1012547050
3071+1012584072+1012398276+1012139311+1012143868+1012567402+1013065168
3063+1013107496+1012591376+1011930727+1011593099+1011713029+1012092300
3054+1012400398+1012396028+1012106971+1011786074+1011624564+1011592724
3046+1011600715+1011641982+1011740936+1011895579+1012071011+1012152983
3037+1011971121+1011425408+1010548747+1009510264+1008612938+1008129907
3029+1008028081+1007999300+1007811132+1007493107+1007146925+1006702227
3020+1005982143+1004955710+1003793175+1002664042+1001632614+1000785732
3012+1000270923+1000111037+1000099737+999983552+999674579+999224949+998654076
3002+997930497+997146359+996485648+995908221+995129827+994117252+993275865
2992+992845588+992442594+991533656+990093052+988529771+987209598+986249591
2982+985538436+984746869+983442053+981365899+978622728+975532064+972314789
2972+969068920+966023706+963487495+961442307+959512366+957431841+955269344
2962+953189257+951271740+949539957+947960756+946472392+945078113+943800955
2952+942563628+941216921+939623236+937685866+935443395+933117577+930853879
2942+928495909+925857123+923044903+920245981+917456111+914741408+912433009
2932+910775145+909741594+909403903+910024970+911613598+913815302+916406203
2922+919513224+923201668+927178233+931087372+934834190+938438664+941820320
2912+944926342+947832147+950578065+953178830+955834410+958746396+961739292
2902+964429896+966661255+968463711+969837263+970878805+971884824+973055162
2893+974254718+975236763+975989561+976721381+977568137+978455037+979223130
2883+979754733+980010889+980024311+979770653+979074668+977864936+976454362
2873+975261861+974324204+973379868+972314601+971202137+970009511+968590509
2863+966934455+965177200+963394285+961564173+959735558+958159479+957263714
2853+957446763+958803958+961142761+964273443+968040676+972098277+976009414
2843+979562694+982720534+985457275+987907331+990358386+992879676+995265802
2833+997390778+999289940+1000955920+1002361999+1003590523+1004718845+1005704761
2823+1006508565+1007181138+1007747702+1008143080+1008345732+1008477587
2815+1008687107+1009006193+1009380282+1009754932+1010114162+1010510976
2806+1011012300+1011528045+1011837517+1011899949+1011956574+1012211981
2798+1012617535+1013038634+1013424460+1013749103+1013964179+1014097969
2789+1014275711+1014575944+1014929305+1015198884+1015337669+1015444364
2781+1015663873+1016028534+1016462931+1016942342+1017486119+1017957413
2772+1018140961+1018132533+1018319265+1018821026+1019299750+1019484234
2764+1019543919+1019746071+1020061287+1020324560+1020542633+1020810651
2755+1021100145+1021319529+1021423851+1021325397+1020914412+1020316944
2747+1019899652+1019885231+1020157431+1020494436+1020787114+1021015051
2738+1021206715+1021408993+1021567756+1021531858+1021296741+1021104265
2730+1021130799+1021225445+1021147718+1020934827+1020816582+1020895432
2721+1021104515+1021364791+1021612332+1021758171+1021736258+1021533668
2713+1021174875+1020777749+1020572537+1020736794+1021208338+1021726269
2704+1022056780+1022166660+1022209487+1022360009+1022635269+1022890177
2696+1023035267+1023215194+1023621560+1024140864+1024400016+1024247871
2687+1023979541+1023946203+1024099284+1024114206+1023880338+1023657208
2679+1023704344+1023947576+1024128939+1024141363+1024078120+1024068693
2670+1024192057+1024451834+1024754189+1025015152+1025284731+1025601383
2662+1025802349+1025740667+1025623671+1025820392+1026348749+1026823976
2653+1026913315+1026644111+1026285318+1026079545+1026089221+1026231752
2645+1026421294+1026630501+1026860061+1027139504+1027513156+1027943058
2636+1028318395+1028595403+1028795183+1028851996+1028672693+1028389879
2628+1028354855+1028769711+1029439038+1029972639+1030132151+1029918823
2619+1029494165+1029150855+1029182632+1029594242+1030070094+1030321443
2611+1030315137+1030157685+1029974199+1029894537+1029988371+1030243903
2602+1030685979+1031376158+1032185830+1032727547+1032675354+1032116719
2594+1031492780+1031198853+1031301365+1031634499+1032041302+1032432684
2585+1032704447+1032752395+1032583268+1032321244+1032094243+1031972315
2577+1031987486+1032129579+1032303201+1032384924+1032357267+1032327175
2568+1032388045+1032545934+1032787543+1033127170+1033531163+1033837514
2560+1033850687+1033541152+1033078536+1032664616+1032489808+1032785046
2551+1033558321+1034271412+1034271537+1033647286+1033143277+1033154952
2543+1033347927+1033377457+1033442823+1033873225+1034525695+1034929438
2534+1034921697+1034833107+1034968333+1035171048+1035092634+1034677902
2526+1034170648+1033797808+1033659148+1033821282+1034338151+1035153567
2517+1035996952+1036408687+1036098465+1035379256+1034942486+1035006603
2509+1035078212+1034808571+1034593807+1034935120+1035620116+1035957558
2500+1035660385+1035242656+1035454985+1036377409+1037351088+1037903231
2492+1038243482+1038622690+1038831772+1038621004+1038076478+1037433310
2483+1036947844+1036918564+1037460842+1038297797+1038954013+1039129944
2475+1038891144+1038539469+1038284499+1038143904+1038192038+1038629307
2466+1039444349+1040168490+1040166992+1039273224+1038086467+1037422135
2458+1037494493+1037924208+1038371341+1038717585+1038888897+1038970557
2449+1039184197+1039433798+1039353074+1038989099+1038866671+1039251498
2441+1039847967+1040249651+1040307774+1040110554+1039882117+1039842973
2432+1040001798+1040133404+1040014597+1039665918+1039351576+1039322920
2424+1039574206+1039931938+1040336181+1040817714+1041214902+1041252361
2415+1040982158+1040799234+1040911922+1041120006+1041189367+1041149474
2407+1041119507+1041105272+1041095596+1041192114+1041515696+1042056352
2398+1042675109+1043184486+1043396628+1043229062+1042838367+1042545189
2390+1042543254+1042743034+1042909351+1042900923+1042784676+1042782178
2381+1043136664+1044042605+1045599643+1047686348+1049966092+1052213495
2373+1054536316+1057040563+1059471639+1061488671+1063169199+1064899046
2364+1066699816+1067937081+1067939578+1066727661+1064843108+1062723688
2356+1060533097+1058217269+1055665075+1053199037+1051596174+1051417121
2347+1052633908+1054697764+1056783096+1058329645+1059398720+1060247286
2339+1060836264+1060985724+1060764842+1060413604+1059940873+1059109912
2330+1057833815+1056347949+1055003178+1054079568+1053680757+1053657533
2322+1053719714+1053639552+1053257597+1052474209+1051407132+1050331440
2313+1049355263+1048393696+1047516410+1047010716+1046992923+1047215117
2305+1047383993+1047494559+1047723932+1048101017+1048410552+1048420291
2296+1048167694+1047971909+1048061186+1048285315+1048432403+1048676135
2288+1049283967+1050025277+1050430955+1050562061+1050924163+1051618525
2279+1052125592+1052033069+1051570078+1051289761+1051493662+1052073774
2271+1052649766+1052774379+1052311887+1051719289+1051663475+1052281546
2262+1053046454+1053410679+1053474609+1053902139+1055021907+1056192120
2254+1056532621+1056097100+1055627616+1055385383+1054989693+1054237645
2245+1053399067+1052719814+1052154810+1051741764+1051923190+1053162577
2237+1055248034+1057254078+1058339759+1058493840+1058251231+1057735548
2228+1056601795+1055194592+1054728730+1055598398+1056636007+1056822178
2220+1056480304+1056170519+1055827771+1055419970+1055218316+1055303098
2211+1055600896+1056084988+1056442595+1056185378+1055468666+1055189848
2203+1055865854+1056835538+1057025829+1056415500+1056159032+1057067283
2194+1058628442+1059810642+1060155138+1059809518+1059134011+1058498085
2186+1058059068+1057793610+1057890503+1058561765+1059230030+1058825600
2177+1057334240+1056149792+1056402764+1057631163+1058585239+1058803749
2169+1059026629+1060282123+1062609939+1064726611+1065279503+1064216422
2160+1062603321+1061647122+1061978508+1063121501+1063746564+1062985401
2152+1061231080+1059506226+1058476359+1058112009+1057996886+1057949938
2143+1058348624+1059557045+1061148296+1062106742+1061815187+1060723763
2135+1060012045+1060434081+1061486674+1061926940+1060931659+1058641927
2126+1056030174+1054400091+1054447039+1055556569+1056487671+1056759746
2118+1056783470+1056804947+1056578820+1056108338+1055903688+1056259671
2109+1056755126+1056759746+1056256924+1055899317+1056199113+1056911080
2101+1057460726+1057752530+1058178811+1058937102+1059690649+1059949988
2092+1059658809+1059319057+1059448040+1059952610+1060267514+1060080470
2084+1059645323+1059419696+1059614982+1060102321+1060652965+1061191623
2075+1061743641+1062278553+1062762646+1063123124+1063017865+1062005978
2067+1060139280+1058279950+1057613433+1058500332+1059936129+1060762470
2058+1061129691+1061747637+1062289291+1062076650+1061655613+1062002232
2050+1062968919+1063970193+1065252408+1067030078+1068343259+1068160960
2041+1066857018+1065643353+1065016792+1064470268+1063495839+1062382813
2033+1061900219+1062374073+1063381590+1064456283+1065689802+1067050431
2024+1067480833+1065893078+1063013745+1060889955+1060465921+1060773208
2016+1060724886+1060736748+1061834167+1063855694+1065450815+1065783449
2007+1065487524+1065463925+1065434458+1064445670+1062411906+1060562440
1999+1060288741+1061674467+1063485351+1064638333+1065131291+1065279628
1990+1064951614+1064373749+1064661183+1066343084+1068198793+1068722342
1982+1068131492+1067849053+1068487226+1069275359+1069350527+1068927242
1973+1068707609+1068547535+1067522911+1065394002+1063371976+1062989771
1965+1064465773+1066601175+1067956185+1067845182+1066504781+1064633339
1956+1062963425+1062066786+1062073653+1062543761+1062839436+1062617181
1948+1061883987+1060590784+1058590483+1056444093+1055566433+1056462074
1939+1057878142+1058625944+1058798879+1059033122+1059639705+1060536468
1931+1061426240+1062020711+1062042188+1060901192+1058255352+1055248908
1922+1053783519+1053958576+1054250505+1054194692+1054768686+1056171518
1914+1057259946+1057106115+1055925414+1054875568+1055126917+1056801326
1905+1058840209+1059971714+1059815262+1059083566+1058576873+1058256850
1897+1057741791+1057198014+1056871748+1056277402+1055037016+1054003652
1888+1054310814+1055713522+1057197640+1058238495+1058694244+1058620575
1880+1058517064+1058885284+1059433182+1059343281+1058124995+1055679684
1871+1052087634+1048402061+1047234720+1050123044+1054985322+1058777528
1863+1060267889+1059940749+1058977558+1058456506+1058852445+1059862335
1854+1060776455+1060970491+1060045508+1057939574+1055005051+1051691569
1846+1048641798+1047459972+1049379237+1052759145+1055094078+1055747484
1837+1055677436+1055852869+1055882211+1054347274+1050738367+1047031756
1829+1045939082+1047060537+1048272329+1049310937+1051060513+1053138978
1820+1054326047+1054317182+1053869549+1053463621+1052495810+1050251528
1812+1047280545+1045236168+1044999178+1045674061+1045729313+1044145367
1803+1040846744+1037008777+1034452275+1033714462+1033488710+1032285595
1795+1029436104+1025530273+1023230365+1024873371+1028561003+1030839311
1786+1030383562+1028044072+1025212435+1022653624+1020895245+1020210998
1778+1019775789+1018091328+1014243747+1008917353+1005051042+1005242644
1769+1008321571+1011757730+1013970422+1013888450+1011181551+1007340400
1761+1004895214+1004186743+1003691163+1002893415+1001773084+999085727+993395983
1751+985707250+980143618+979210144+980861391+982429979+983097557+983102052
1741+982835158+982699869+982431789+980706624+976855234+973696707+975360814
1731+980345333+985391285+989252664+991054433+990210486+987398203+983682913
1721+978455224+969643601+956987767+946076203+943136560+945405565+947371404
1711+946591386+942643790+935626381+926163973+916585318+909199128+902498870
1701+892767696+880127657+870169482+865069465+862904595+861972745+860057663
1691+855151308+847270349+838328244+828907603+816959741+803455153+795769167
1681+794727562+794598142+792515120+787977360+781635645+775389264+770353176
1672+765782515+762327252+762931525+767152134+770922738+772412849+773180380
1662+775697737+779592142+782295045+782047318+778289325+772322012+770750427
1652+777096574+782814974+784818333+787290303+795657227+807987919+818699328
1642+826360404+831237166+833408654+834429094+839641113+852780915+867575584
1632+878278191+885118731+890057301+894643383+899083438+903184366+908121875
1622+914627159+920445574+923230074+923832037+926186199+932012043+938147858
1612+942160509+944302091+946205748+949112864+952679442+955881359+958450596
1602+960941482+963768873+966529275+968491680+969588474+970509774+971789866
1592+973345281+975003582+976798858+978636900+980179641+981194962+981776135
1582+981972669+981211818+978474703+973586765+969274944+969684931+973022948
1572+974249411+972111887+969686928+970470879+973347965+975609104+976107993
1562+973688653+966145198+954000302+949320885+957958949+968637645+976517355
1553+981491011+984409989+986773827+988722559+988219300+983634841+975843284
1543+967478981+962646233+968103045+981585345+992228392+996646908+997593368
1533+999702548+1003886136+1006551330+1005666990+1002582382+999578185+996721451
1523+993446865+991835387+993391550+995896234+998618241+1003176791+1008517855
1513+1010839802+1007607606+998654326+985962469+977417428+982597482+992698875
1503+997228893+995327859+989012553+981686172+978298709+981231734+986165309
1493+987342889+982613964+974423033+969338374+970500097+973695333+974592472
1483+972193547+967688251+962642424+957229938+950379034+941638770+932489643
1473+926642322+927375204+932084401+935277452+934430134+930322213+926081439
1463+923803943+921531255+916207421+906874371+897609559+896579442+902272557
1453+907375758+909580209+909437303+908566823+909226785+912419649+916695447
1443+920040831+921479000+920786886+917926843+913577126+910367468+910462801
1434+911972578+912491820+912200015+912592646+913585180+913396263+911316175
1424+908514693+905809667+902492502+899252440+899909468+905552388+912441750
1414+917788620+921461332+924450482+927186786+929101119+929974471+930995848
1404+933205418+935434779+935885159+934666874+933631699+934283483+937031024
1394+941569721+946211991+948563655+947390445+943515893+939612123+937651592
1384+936911093+936118652+935460126+935799753+937111997+938710677+940941849
1374+945294750+951827067+958277099+962785080+965086362+965230641+962961823
1364+959028898+956414523+958146930+963446228+969124484+973289405+976044500
1354+978315253+980613476+982840839+984911625+987005198+989264838+991483773
1344+992907458+992492726+990080816+987593925+987920254+991526601+996020972
1334+999291313+1001017353+1001810730+1002156912+1002188627+1001966746
1326+1001620564+1001154827+1000295521+998777441+996855616+995257311+994365542
1316+993774379+993025828+992320478+992073188+992180382+992188311+991835574
1306+991081653+989935913+988566918+987387465+986837320+987166021+988406469
1296+990356076+992555345+994464621+995761382+996491329+996962811+997499596
1286+998233164+999088162+999958392+1000917525+1002279715+1004433346+1007542927
1276+1011335382+1015158241+1018301909+1020376940+1021474046+1021983548
1268+1022317244+1022805270+1023652588+1024827983+1026144099+1027546244
1259+1029125570+1030815961+1032377120+1033675567+1034704436+1035387684
1251+1035607255+1035321320+1034494916+1033070607+1031122687+1028856054
1242+1026362796+1023507123+1020079143+1015987517+1011333509+1006382079
1234+1001452499+996813975+992653425+989080291+986102316+983601753+981296975
1224+978534200+974109066+966762020+956314445+944144952+932043508+920554641
1214+908700176+895177109+879453898+861765660+842602544+822663282+803167656
1204+785765167+771965466+762639970+757863285+757006290+759057347+763074056
1194+768427169+774573349+780658657+785557895+788389282+788890106+787323266
1184+784196954+780063811+775415860+770711907+766467699+763189866+761220594
1174+760731756+761804576+764417578+768397764+773412063+779003352+784693533
1164+790086353+794932212+799238789+803288961+807336447+811299028+814866168
1154+817744253+819647660+820270725+819461427+817320844+814043760+809754913
1145+804563184+798706749+792556699+786514718+781014079+776513215+773316918
1135+771528634+771324546+773051959+776923202+782836637+790542914+799736866
1125+809989967+820802390+831753162+842573264+853155815+863519794+873732439
1115+883849939+893844449+903526802+912619367+920947459+928516262+935464060
1105+941994816+948253621+954190343+959586597+964219690+967977558+970888108
1095+973105919+974869667+976468034+978231033+980460457+983211120+986099069
1085+988521718+990227342+991537339+992883921+994304671+995518711+996319955
1075+996705719+996688675+996185915+995199125+993953682+992706679+991554008
1065+990552422+989795567+989199160+988442805+987276400+985770930+984348557
1055+983729924+984665895+987405695+991392499+995579644+999070119+1001503381
1045+1002994054+1003864659+1004438154+1004940539+1005469332+1006027094
1037+1006550643+1006928041+1007105034+1007138372+1006971493+1006239048
1028+1004546035+1001949016+999021735+996522608+995066396+994919558+995912029
1018+997597551+999599724+1001798182+1004206034+1006817225+1009584620+1012375551
1009+1014902772+1016864802+1018197899+1019057391+1019554532+1019643434
1000+1019264788+1018488704+1017508906+1016532792+1015665433+1014835658
992+1013831637+1012491548+1010918278+1009481670+1008687294+1009081798
983+1011032278+1014365675+1018397367+1022452096+1026155836+1029249684
975+1031503768+1032880878+1033535846+1033706658+1033744679+1034059208
966+1034867506+1036078737+1037415580+1038547335+1039194623+1039262486
958+1038868482+1038198531+1037416017+1036723653+1036354933+1036431724
949+1036921435+1037762386+1038900259+1040227175+1041630445+1043059124
941+1044409015+1045405107+1045684799+1045006982+1043467737+1041545476
932+1039789532+1038413170+1037311694+1036408250+1035794612+1035544387
924+1035567050+1035742170+1036170761+1037171411+1038926293+1041188681
915+1043394630+1044995807+1045715828+1045663385+1045276373+1045074346
907+1045346983+1046002263+1046640374+1046707237+1045613066+1042939630
898+1038787696+1033948767+1029660170+1027076573+1026652852+1027767563
890+1029104094+1029633949+1029254428+1028677812+1028989907+1031099212
881+1035179726+1040584720+1046342514+1051621147+1055833889+1058664901
873+1060112934+1060395499+1059785294+1058580619+1057111235+1055578670
864+1053951210+1052280047+1051023679+1050643222+1050894945+1050968989
856+1050301723+1048835959+1046611967+1043607396+1039952852+1035914293
847+1031616394+1026977557+1021903324+1016444015+1010808649+1005219544+999625695
837+993693968+987388027+981370394+976387061+972433408+968947179+965527627
827+962045081+958402337+954727503+951728238+950579564+952327579+957213581
817+964363719+972089349+978635214+982984244+985176833+985754885+984807552
807+981706899+975673471+966317820+953987629+940355556+928773042+923343699
798+926754012+938419185+954674811+971005666+984433026+994218329+1000985325
788+1005747152+1009532552+1013173361+1017023315+1020971599+1024816309
779+1028488895+1031885473+1034774733+1037102861+1039211729+1041496405
771+1043933850+1046155282+1047949059+1049439546+1050698786+1051529497
762+1051938797+1052475832+1053610584+1055030523+1056025679+1056412628
754+1056726658+1057598574+1059107540+1060670946+1061590559+1061766116
745+1061772235+1062237973+1063314164+1064699141+1065939402+1066632890
737+1066481931+1065263271+1062723813+1058392451+1051473434+1040944636
728+1025695592+1004740259+978086505+948394716+922108932+907890941+911497663
718+930697051+956233472+978244956+991325947+994985485+991424713+983640523
708+974950578+968689712+967136295+970533810+977375786+985724107+994177873
698+1001933283+1008634976+1014339579+1019242001+1023309590+1026428036
690+1028855742+1031101835+1033266704+1034974763+1036082670+1036982805
681+1038022724+1038958570+1039250437+1038769403+1037984516+1037538944
673+1037871828+1039099415+1040762025+1041307300+1039461517+1036900084
664+1035322631+1034432048+1033447942+1032274420+1031457381+1031281512
656+1031374972+1031228071+1030741918+1030161931+1029699377+1029406137
647+1029311179+1029415876+1029464572+1029007325+1027895236+1026376218
639+1024494350+1021902575+1018491950+1014611717+1010601626+1006815977
630+1003996826+1002801391+1003127595+1004472491+1006544525+1009038845
622+1011273700+1012587942+1012895229+1012516271+1011605647+1010139322
613+1008400984+1006935845+1006040329+1005738724+1006012298+1006495392
605+1006269827+1004578000+1001620003+998421020+996040638+994829220+994351120
595+994133984+994327521+995440672+997576386+1000149682+1002318859+1003533149
585+1003749598+1003318884+1002829735+1003021337+1004339824+1006396937
577+1008217436+1009043590+1008825579+1008242096+1008391619+1009959145
568+1012370806+1014364426+1015546065+1016649976+1018328567+1020355152
560+1022029748+1022996435+1023562812+1024227643+1024936676+1025186901
551+1024953408+1024934241+1025622110+1026718904+1027815386+1029120263
543+1031034409+1033267890+1034903030+1035538019+1035897187+1036679826
534+1037250698+1036349564+1033717583+1030190961+1026696991+1024022244
526+1022679096+1021722960+1018842690+1012949045+1006056000+1002021748
517+1003084018+1008189404+1014971571+1021626753+1026898207+1030420147
509+1033229682+1036346380+1038918926+1039342835+1038005493+1037359703
500+1038872228+1041415556+1043135040+1043182925+1041651609+1039111964
492+1036431786+1034290453+1032634025+1030892690+1028661393+1026409682
483+1025616616+1027328733+1030646835+1033544524+1034743518+1034131253
475+1032124460+1029657236+1028029588+1027737721+1028458803+1029934493
466+1031684694+1033142278+1034515144+1035846555+1035767329+1033410296
458+1030751782+1029774856+1029140117+1027685154+1026735885+1026702922
449+1025439436+1021984422+1018440881+1016638738+1016078479+1016319464
441+1017961534+1020407594+1021431406+1019253238+1014310985+1009081610
432+1006500823+1008392368+1014038535+1020344538+1024286142+1025005163
424+1023770022+1021807867+1018656332+1014536862+1013724130+1018563247
415+1025211374+1029937552+1032671109+1036347754+1043203215+1052449611
407+1061974387+1069845732+1073741823+1071739150+1064336415+1054485122
398+1046234757+1042507543+1043137975+1047033629+1053891151+1062585965
390+1069781553+1071751137+1067943948+1062163679+1059305572+1060215696
381+1062810468+1066430987+1071074881+1073670027+1068116134+1057534020
##END=
