##TITLE=X8547
##JCAMP-DX=5.0
##DATA TYPE=LINK
##BLOCKS=1


$$ === CHEMSPECTRA SPECTRUM ORIG ===
##TITLE=X8547
##JCAMP-DX=5.00
##DATA TYPE=INFRARED SPECTRUM
##DATA CLASS=XYDATA
##ORIGIN=ComPlat
##OWNER=
##XUNITS=1/CM
##YUNITS=TRANSMITTANCE
##XFACTOR=1
##YFACTOR=9.3660801e-010
##FIRSTX=3997.453
##LASTX=373.96442
##MAXX=3997.453
##MAXY=1.0056751920938023
##MINX=373.96442
##MINY=0.5925913428211381
##NPOINTS=2559
##XYDATA= (X++(Y..Y))
2559I70387006I69823484I69807065I70491437I71219911I71223093I70489783I69694615
2551I69365348I69378140I69290318I68989243I68824354I69044863I69394877I69501663
2543I69435733I69556392I69957889I70406098I70705518I70849851I70855261I70616297
2535I70018092I69204724I68604546I68502215I68735387I69007571I69336647I69929061
2527I70665808I71033831I70742556I70192971I69951780I70004918I69970872I69708489
2519I69391440I69159476I69015462I68966842I69045436I69203769I69303809I69311255
2511I69397740I69596230I69596421I69143249I68501324I68191339I68355082I68732587
2503I69049890I69322646I69763855I70339531I70727347I70773676I70680126I70610060
2495I70329858I69428096I67897709I66405251I65663095I65805773I66588340I67679428
2487I68705095I69281281I69205233I68801635I68748497I69206951I69763027I70043993
2479I70045329I69800956I69129312I68209030I67720857I67823379I68002077I67825734
2471I67227401I66376677I65824929I66326148I67718057I68998025I69472834I69299864
2463I69029653I68827345I68624147I68382637I67836680I66506628I65040007I65208905
2455I66599413I67830825I68504060I68876411I69196578I69354784I69116329I68590800
2447I68206485I68192675I68285079I68207694I68077934I68213103I68745633I69380049
2439I69658532I69466343I69022017I68301561I67120234I66116331I66279374I67290213
2431I68330390I69256017I70297975I71329434I71950294I71814807I70900571I69840794
2423I69378394I69339511I69058991I68460977I68144437I68332363I68828936I69554801
2415I70548585I71714385I72756980I73284800I73019427I72016288I70780612I69970872
2407I69728153I69642495I69475125I69515599I70005364I70720728I71315433I71584498
2399I71502213I71330706I71442583I71799725I72066562I72158520I72215223I72156675
2391I71741940I71092188I70638125I70438681I70173180I69601575I69003625I69178250
2383I70277802I71495467I71821935I70823441I69489253I68728642I68250778I67534459
2375I66494346I65624785I65553382I66284337I67310196I68115990I68280433I67631635
2367I66631996I66161260I66492882I67130034I67682101I68196685I68819518I69587957
2359I70362887I70667462I69969344I68675694I67791051I67550750I67653272I67889945
2351I68195857I68566681I69043717I69590311I70057420I70360087I70545530I70571368
2343I70190171I69347847I68649984I68690649I69239725I69835257I70182153I70135951
2335I69831121I69505099I69019153I68235759I67966821I68688804I69416259I69461825
2327I69609785I70605414I71731058I72274788I72428285I72656431I72909650I72744570
2319I71986823I71052223I70512056I70343222I70049338I69181750I67915592I67412336
2311I68293416I69905069I71465175I72577455I73116412I73013763I72275170I71215902
2303I70468527I70472409I70903753I70858888I69871022I68968369I69237880I70209772
2295I71184019I71755050I71549942I70635134I69916270I69918942I70044438I69743236
2287I69278863I69221779I69832648I71013849I72238196I72845692I72695187I72182321
2279I71807552I71778915I71873355I71668247I71025558I70481191I70745293I71699621
2271I72424085I72180412I71488594I71553506I72431404I73294983I73600895I73475781
2263I73437852I73780356I74304995I74679955I74807614I74659718I73989537I72633457
2255I71354444I71484712I72956169I74462246I75117599I75020741I74818942I74935974
2247I75334798I75798025I76097510I76009434I75455712I74646926I74028102I73982473
2239I74448373I75055042I75625564I76202705I76749171I77062275I76994308I76710097
2231I76628003I77001881I77599068I77916371I77712536I77112295I76314709I75613982
2223I75525142I76393939I77937372I79420475I80264517I80392940I80080346I79694759
2215I79528980I79597073I79621383I79454331I79315217I79397756I79485641I79305162
2207I79027124I79020569I79301471I79496524I79403547I79359573I79848765I80840258
2199I81731392I82003767I81698682I81202363I80861831I80775282I80718326I80420560
2191I80046936I80096129I80674606I81284266I81547412I81663490I81927273I82254249
2183I82419837I82454775I82546924I82737077I82928693I83084354I83179176I83083336
2175I82797470I82670320I83025234I83692805I84227562I84453480I84555748I84765501
2167I85160507I85618007I85852198I85640090I85053212I84412115I84025954I83979180
2159I84168823I84505346I84981428I85538586I86010277I86250386I86241731I86086071
2151I85953002I86031914I86463576I87195614I87883677I88137087I87936879I87608375
2143I87374948I87165449I86875383I86627064I86665057I87019843I87422295I87669850
2135I87880113I88159869I88298984I88101958I87769891I87671505I87901687I88206771
2127I88281420I88146314I88152678I88466418I88757375I88645625I88239609I87944070
2119I87920524I88017955I88143323I88406025I88874915I89416800I89837962I90023660
2111I89923493I89577488I89179555I88930409I88791803I88493146I87820102I86855528
2103I85914628I85285940I85103551I85394826I86037132I86668875I86889002I86601291
2095I86033505I85447328I84991546I84758565I84764356I84839513I84711090I84240099
2087I83477006I82507850I81439672I80518309I79971779I79684513I79290270I78648282
2079I77974919I77440098I76876704I75996960I74691091I72965906I70824459I68405802
2071I66031182I63887699I61845338I59701409I57403474I54969798I52396434I49651755
2063I46658056I43414830I40233143I37598050I35700085I34345278I33348948I32739034
2055I32562054I32706451I32946624I33099420I33229053I33690243I34741048I36102664
2047I37170142I37694208I38027994I38674946I39774180I41049438I42167127I43087918
2039I44043646I45185390I46363663I47340328I48135623I48984565I49972049I50918486
2031I51643650I52129787I52437481I52719210I53274268I54297772I55629796I56966784
2023I58163767I59159970I59889334I60443756I61031970I61683568I62285973I62873996
2015I63548567I64223203I64793980I65405040I66224708I67102478I67705393I67906937
2007I67889500I67922847I68102181I68292525I68331981I68242441I68205849I68404784
1999I68898048I69533227I69997345I70072885I69833475I69553274I69483525I69687424
1991I70015864I70277802I70467700I70773994I71350816I72116455I72759462I72993398
1983I72877385I72762835I72882221I73154786I73401323I73512564I73428497I73233062
1975I73217471I73590903I74181853I74624716I74740030I74599324I74372579I74237792
1967I74289149I74421199I74409871I74129479I73599685I72930778I72392329I72342564
1959I72854156I73589185I74229455I74813914I75451130I75960432I76043289I75669029
1951I75112253I74666909I74407771I74226146I74056740I73958990I73929398I73820449
1943I73618013I73581103I73836613I74039812I73768265I73136140I72694868I72760607
1935I73112339I73406223I73607958I73823058I73966372I73943462I73963572I74248165
1927I74608488I74731120I74711329I74889581I75316470I75660629I75519415I74722911
1919I73491499I72330854I71649601I71479812I71603335I71819580I71999869I71969704
1911I71472175I70300712I68472432I66272182I64092870I62209034I60736749I59773830
1903I59396706I59486819I59791394I60192510I60699902I61257315I61817082I62488472
1895I63394116I64498377I65666850I66763665I67698711I68452704I68995797I69225725
1887I69147067I68974478I68893466I68883157I68867247I68820409I68691095I68399183
1879I67937802I67392290I66895461I66554484I66375977I66346194I66599095I67288686
1871I68213994I68824482I68821554I68589400I68745379I69373303I70008419I70297021
1863I70313121I70259092I70229754I70287793I70486346I70784049I71061960I71229584
1855I71320842I71526141I72017115I72669667I73132449I73234844I73154277I73127103
1847I73179987I73190106I73099866I73000017I72980543I72979907I72920850I72923395
1839I73164014I73554375I73767437I73552147I72920086I72109073I71429665I71054005
1831I70903562I70765403I70483673I70040683I69534118I69120911I68923949I68926367
1823I68954178I68840900I68628601I68527034I68661121I68942786I69168195I69166859
1815I68922867I68590036I68301816I67986613I67470820I66720645I65885258I65124838
1807I64471522I63890944I63448082I63280266I63374070I63550349I63697482I63848752
1799I64045332I64314143I64751151I65490761I66573067I67843489I68992615I69792301
1791I70295939I70700236I71099061I71508131I72026661I72802545I73841195I74909182
1783I75650383I75839136I75571662I75219739I75159855I75491986I76022416I76533563
1775I76953261I77256118I77396378I77380214I77223154I76895477I76484816I76251261
1767I76319609I76481570I76459742I76249607I76088091I76113992I76146957I75917285
1759I75446484I74983576I74637571I74316004I73939580I73508746I73065756I72695059
1751I72448459I72272625I72128546I72099463I72296362I72752907I73427288I74193563
1743I74858653I75290251I75547988I75833918I76261252I76707743I76998063I77181852
1735I77460335I77863360I78201028I78351152I78415745I78537805I78682328I78688310
1727I78517504I78355734I78422109I78729421I79084208I79313435I79435049I79565508
1719I79736697I79911003I80084037I80209661I80138130I79853728I79639138I79773607
1711I80189551I80605621I80851395I80912742I80844649I80783365I80910642I81276947
1703I81721592I82020376I82050096I81816414I81385643I80850058I80350239I80063991
1695I80093838I80360612I80689179I80988727I81266383I81491410I81591005I81585278
1687I81573950I81549576I81373551I81019401I80706807I80687906I80957671I81241373
1679I81267656I81062103I80919488I81008773I81122496I80979500I80625158I80307092
1671I80119230I80016071I80035545I80263244I80621149I80872777I80883850I80788774
1663I80809011I80950226I81027929I80961235I80871250I80883087I80991082I81128733
1655I81250092I81318822I81294575I81172898I81028247I80974599I81065730I81231446
1647I81352232I81405052I81477728I81602460I81659990I81538758I81313985I81166407
1639I81183017I81321431I81502102I81671254I81804577I81900926I81979775I82064160
1631I82147209I82199329I82227712I82279577I82370772I82481885I82605472I82733895
1623I82846345I82964586I83133674I83357746I83657995I84103212I84628232I84951327
1615I84868278I84532456I84268546I84202552I84232971I84285155I84429425I84752710
1607I85217719I85661345I85886499I85801414I85519240I85294404I85307068I85511030
1599I85714165I85785886I85738475I85623162I85457383I85307704I85308022I85479338
1591I85613361I85477365I85112015I84796621I84710963I84791211I84960745I85258702
1583I85611707I85788750I85772904I85846025I86108026I86268078I86113945I85863335
1575I85844880I86075379I86320134I86398919I86291115I86063224I85846216I85796641
1567I85926783I86046678I86027268I85996276I86087216I86119736I85829543I85395653
1559I85351806I85805169I86127627I85786714I85144725I84937135I85239356
1552I85521149I85571487I85795050I86494568I87284072I87504644I87052108
1545I86442830I86109935I86056988I86206221I86619619I87263326I87891250
1538I88290393I88457381I88491237I88438035I88325203I88276965I88420343
1531I88675662I88823113I88775957I88635824I88562385I88688836I88968337
1524I89066150I88709136I88136960I87844730I87900859I87899205I87586293
1517I87208533I87197905I87728398I88595414I89388099I89787560I89772987
1510I89514486I89148308I88826995I88816622I89198201I89589134I89547451
1503I89138380I88749483I88553094I88506765I88601841I88736819I88621315
1496I88145233I87595138I87309591I87400595I87854149I88573586I89328469
1489I89928838I90337718I90492678I90328427I90069162I90095954I90416884
1482I90626956I90442849I89991013I89568006I89354689I89363916I89504749
1475I89654237I89725003I89704384I89668810I89770696I90093599I90457295
1468I90525325I90228259I89898228I89849862I90004823I90062034I89889064
1461I89618472I89459311I89531286I89853808I90358719I90837601I91035772
1454I90922750I90713569I90511834I90192876I89757904I89494694I89589516
1447I89831216I89917765I89831534I89683829I89429973I89057241I88826486
1440I88953255I89223338I89258658I89023958I88855760I89114707I89843689
1433I90644202I91014644I90942796I90918804I91245335I91672861I91822285
1426I91597767I91079428I90369283I89618472I88909662I88062248I86775152
1419I84933126I82615590I79915458I76872631I73448861I69536473I65207505
1412I60923338I57224522I54246479I51697298I49184391I46544461I44043328
1405I42179473I41157115I40766246I40866413I41668008I43470451I46552671
1398I51052573I56222528I60331497I61857111I60430965I57075543I53743350
1391I51735927I50825637I50492678I50805272I51893433I53350126I54404939
1384I54676041I54635057I55100894I56324159I57838573I59076157I59855288
1377I60499058I61650221I63721411I66484482I69393667I72098700I74373979
1370I75919512I76734344I77442898I78674055I80295509I81743229I82876701
1363I83991971I85138807I85985585I86372382I86573353I86949077I87657568
1356I88706718I89989232I91283391I92427299I93397791I94116846I94421931
1349I94330864I94104437I94003633I94161330I94585483I95104712I95429970
1342I95382750I94985453I94424222I94067208I94277025I94994044I95739319
1335I96185936I96405554I96449273I96141580I95463444I94750307I94352374
1328I94347092I94613102I94962670I95219389I95304284I95241536I95087593
1321I94934287I94946124I95221489I95551648I95523901I95139077I95099939
1314I95973064I97282242I98060163I98081037I97897503I97997797I98534782
1307I99449017A000321697A000573834A000147263I99558031I99113895I98594157
1300I97897121I97557353I98212260I99636434A000735540A000644155I99507565
1293I98182795I97648547I98580856A000760168A002876541A003568805A002705798
1286A001325345A000507268A000549206A001006514A001324772A001425576A001660658
1279A002180842A002517046A002061964A000866891I99490574I98275963I97469213
1272I97546725I98419659I98995272I98637304I98246180I98943916A000569697
1265A002096711A002449270A000626972I96676973I93138272I93174610I96472056
1258I99710700A000821580A000482321A000081078A000188437A000987486A002361194
1251A003402516A003280775A002327147A001321717A000679029A000891010A002328802
1244A004171401A004901720A004046669A002406187A000908256A000062178A000037422
1237A000564352A001032415A001152502A001238732A001585564A002032818A002391359
1230A002678306A002724254A002284000A001688277A001597401A002055791A002469507
1223A002464862A002263699A002272227A002578203A002887487A002966018A003003055
1216A003328441A003945992A004612673A005161239A005431323A005073227A003898708
1209A002547847A002238498A003381388A004918966A005578837A005308818A004986996
1202A005225133A005875904A006382469A006351286A005808255A004958104A004019813
1195A003475892A003887826A005078127A006127659A006550284A006885915A007721175
1188A008645784A008855283A008500624A008501769A008971806A008785853A007244393
1181A005237160A003834051A002880105A002001953A001974588A003768440A006782439
1174A009190214A009780273A008572854A006186143A003734075A002795911A004212575
1167A006976283A008956405A008913194A007659446A006909462A007065759A006928935
1160A005782800A004549797A004230012A004543306A004721240A004645001A004698967
1153A004987887A005140557A004920239A004705140A005097601A006281156A008017732
1146A009864659A011034340A010607833A008625865A006587131A006107358A007455101
1139A009563774A010987757A010941173A009624867A007785769A006173924A005211896
1132A004811989A004627055A004433020A003994994A003065740A002007744A001694514
1125A002303792A003133515A003897563A004884347A005913896A006532847A007104324
1118A008308180A009850976A010832669A011019703A010850042A010628261A010458282
1111A010588550A011195092A011982877A012404739A012335182A012059626A011572789
1104A010621706A009556583A009265244A009879550A010467255A010394388A010014719
1097A009680997A009043018A007738930A006226808A005476952A006024564A007463756
1090A008649157A008761988A008080989A007450901A007434291A008034469A008978297
1083A009947834A010501238A010273347A009540673A009277590A010253874A012131983
1076A013737464A014293858A014127633A013872569A013503655A012700151A011696121
1069A011131708A011351835A012333654A013886951A015681121A017234545A018073878
1062A018107161A017746838A017468990A017369714A017261337A017075512A017138514
1055A017844778A018963358A019807845A020002962A019799954A019673440A019730142
1048A019751016A019703605A019834955A020200560A020509463A020625986A020734108
1041A020781837A020332420A019338827A018538123A018425228A018737694A019127482
1034A019502824A019880011A020098674A019824773A018987795A018095006A017734874
1027A017802585A017870997A017887416A018141080A018845562A019878420A020819384
1020A021228518A021055548A020729272A020739899A021132933A021476137A021449154
1013A021192244A020921525A020639286A020236962A019634620A018910792A018321051
1006A018054913A018100479A018355225A018771868A019509633A020681161A021839897
999A022387763A022264113A021945410A021824114A021847915A021873625A021893481
992A021866625A021700782A021427708A021287957A021493256A021839897A022092097
985A022416210A022877019A023168612A023091291A022918002A023142711A023887731
978A024882342A025849143A026594609A026905739A026611091A025997676A025900309
971A026636419A027639049A028410925A028835778A028977756A028967765A028890571
964A028700163A028189780A027058663A025539286A024692826A024645924A024669916
957A024671443A024922180A025374461A025825279A026134309A026013141A025093687
950A023312563A021177035A019272897A017295320A014474847A010672363A006638933
943A003167626A000412382I98213597I96277321I93893538I90327599I85890954
936I81866498I78073623I72906913I65372902I54290199I36004915I06979369
929H70289734H33832762H02698607G83260951G83342473G97337989H15352362
922H33219029H50349459H67735271H84503086H97754219I07247797I14730834
915I20064150I21397702I16675764I01393915H69515695H22863654G74351323
908G35505986G10931277G02434983G15895742G57533615H02370167H28206071
901H44974523H62411564H80863136H95830163I07059108I16584569I24986551
894I32105382I38635872I46206984I54421231I60534569I64018859I65719288
887I66129950I65994844I66498673I68311680I71242312I74399626I76866331
880I78460165I79216576I78552887I75788289I71001821I64564116I57519360
873I52024338I49636545I49268203I47691551I41521511I29749027I16015002
866I07030407I07295018I15432579I24747141I27724230I22207761I13735013
859I11139440I18963453I33753691I47362157I52520657I46545225I33046727
852I19991093I15536629I24580153I42108389I56800560I66120913I73424042
845I80624777I86766179I90642293I92579332I93291642I93007176I91213197
838I86904912I81101622I76271435I70728047I62355657I50327217I33658169
831I11712126H85787763H57063102H25029029G91624813G63844933G50421593
824G57297897G76184822G94607374H12258178H32962374H55600299H74344482
817H87781886H98838180I09499530I19364123I27465538I34197636I40323065
810I45412008I48877015I50928477I51849267I51950835I51827121I52062076
803I53027795I55282073I59671499I64550116I66665089I66154260I64389555
796I62691480I62420315I64136909I66700281I68513479I69003689I67611398
789I62854904I54687559I47454306I45592042I49567497I57584017I67297213
782I76071863I81498920I82077906I76677132I63112769I39575118I12239819
775H93046982H85469251H86743046H95260022I09507676I24834836I37113440
768I46322298I54479524I63318322I71168682I73206397I66663879I51166614
761I30203726I13068842I10096972I22507881I41854915I60478757I75289869
754I85096996I89099879I85950329I75030605I61126855I50637775I45139252
747I43807355I45742994I49893582I55323375I61370974I67194118I72189003
740I76718370I81148842I84218589I84051155I79921377I71398609I58589638
733I43734616I30661162I21202140I12355769H98005911H74979598H45731379
726H13725244G82225293G56833206G42552842G39619664G44764992G53924402
719G64671729G76987244G91620549H07636408H21798213H31108384H33988741
712H29469811H18077186H03581087G92066721G88499828G92891926G98611148
705G96946420G83070353G58212196G29761054G07106519F97033636G02602989
698G20992640G44828121G69062299G92704573H15986714H38558264H59492323
691H78232306H94938392I09877418I23010819I33929144I41590114I44212861
684I39511670I25579155I02716267H73081570H37309416G95096693G50307043
677G12295439F89849957F84622281F91954048G06410946G24331579G42695966
670G58935260G72442349G84540347G96149598H06379223H14051648H19721105
663H25346905H32173889H39738828H46864978H52681249H56705260H58975894
656H60576856H63440540H69000729H76901491H84970641H90331195H90826432
649H86340721H79548739H74802236H75046610H79647952H85563882H89890114
642H90692854H86439425H75902425H58940193H37306361H14561586G94955670
635G82064287G77734427G81432162G90478295H01357482H11248994H18887436
628H24490454H28958473H32992030H36793559H40353007H43755457H47174135
621H50636343H53873078H56485515H58305777H59651039H61282356H63950606
614H67580692H70367182H68250364H56164458H32380206H03027620G80328983
607G73837949G83431185H01410239H20044263H36071958H49726689H61905890
600H72740720H81898030H89391885H95776133I01646243I07227497I12406425
593I16847016I20084260I21791945I22010099I21033688I19173206I16649354
586I13483003I09230465I02909156H93786274H82882332H73373354H68321448
579H67285090H65593379H57989110H43807386H28637542H20272726H22564933
572H33141454H46437389H58093669H66874237H73813098H80443756H87620944
565H95214012I02316233I07630394I09691974I07107028H99716014H90136778
558H82883732H80819034H83371524H88737996H96154848I05164326I14337800
551I21983243I27369252I30696672I32523871I33527710I33960899I32539399
544I26553530I14684823H99996597H88761543H85583737H90128505H98484348
537I06717559I12978411I17329462I20634290I23756730I27263930I31305187
530I35621046I39730969I43085881I45230256I46220221I46910066I48499637
523I51616922I55765347I59287056I59193571I51226689I32346128I05561496
516H81208567H70127264H74875421H89095710I04687798I17521970I27257248
509I34793041I40917515I46119036I50614356I54375538I57275560I59294375
502I60487349I60720648I59582850I56613398I51748209I45934165I41317994
495I40227416I43567055I50298134I58452115I66435543I73488572I79395529
488I84071583I87169904I87446605I82240058I68470968I45955675I20466920
481I01877634H97255800I05785568I20955603I36541518I49762423I60450947
474I69226425I76607193I83038343I88950327I94339519I98570420A000796952
467I99992366I94364656I81574586I60727776I35387109I14531644I07808392
460I17485823I36013252I52338141I59359732I56244484I47194977I38762068
453I35869301I39244323I46742505I56019329I64901338I70188326I68502342
446I60073378I50743924I47552946I52067294I60123334I67660718I74060367
439I80097847I85683810I90254224I93670420I96185809I98022298I98968671
432I98470252I96447364I93634528I90604874I87113074I83260252I80751482
425I81771103I86560371I92976248I98566283A002425851A005010670A006968519
418A008576672A009898833A011026322A012113146A013277864A014532885A015801780
411A016972417A017935336A018639754A019094199A019119145A018048422A015072861
404A010363969A005607984A002693389A001833628A001622093A000915256I99953355
397I99517811I99261156I96942602I90134774I79946259I72303999I73266409
390I82795370I94711042A002524937A003647717I98444351I87612575I71257203
383I49446328I23450882H97272346H77615264H70562935H77151082H92613156
376I10414975I26709381I41063184I54269961I66489318I77033764I84911552
369I88998629I87638858I78666991I60869945I35833154I07436805H78557437
362H48831100H17162314G86720295G65915295G62835176G78596288H06586749
355H37698694H65707483H88669266I07256898I22634968I35197466I44508273
348I50198349I52869080I53983841I54473606I53177410I47415486I36155103
341I22321865I11220516I07036389I11005734I21603319I35566634I49491894
334I61264124I70255401I76776473I81658208I85735548I89321342I92413362
327I95242872I98143976A001033815A003472901A005223860A006511719A007694129
320A008774907A009407159A009467234A009401877A009747499A010454527A010798431
313A009403468A004041132I92584996I75932049I60036340I53099580I59090794
306I74351069I91025845A002081501A002302010I89046295I66504973I45483156
299I33068810I25570691I17426002I12595242I19549376I38083741I58717616
292I73947853I84107348I92871498A001900067A010437217A017365259A022360462
285A025667327A027575792A027810938A024002981A011545042I89055077I65007170
278I53766769I61729706I80620449I96299149A001078235I96732848I87971308
271I72837738I39606110H78296900G98543691G31169445G06363408G30274619
264G83887858H41662567H88494832I21807218I44287573I58867740I68581636
257I76631885I84988110I93747423A001847947A007766295A009788101A006102840
250I94328509I70628134I30882880H76147371H18703011G79120290G71329942
243G90240668H16556345H32497365H32792331H22235221H04402855G76025343
236G33990555F85385056F46864723F32699418F44633100F73303796G06767260
229G36610438G58301990G69747372G71680974G68319571G65910459G69675332
222G80956907G96378316H10066139H17342412H16804091H09634985G98023761
215G85012992G75146618G72996071G79206394G89852217H01178148H12287389
208H21769066H26325671H25325459H20260317H13036227H05569164G99179570
201G94522862G91656632G90015641G88917426G87965325G87293744G88307447
194G93617090H04935576H21004827H38175222H53157968H65031448H74695196
187H83188435H90981329H98095005I03825619I06343871I03133738H92323154
180H75041518H57812958H50581804H59228222H80487412I04240544I18709407
173I16465247I01326013H87171463H84714558H92117728I00183887I01334604
166H91454165H69618471H41059080H16903623H06999574H13380195H30656484
159H51330833H70593164H87284485I02145808I15798693I27673382I36725752
152I43122983I48301657I53333134I58148112I62430560I66375468I70229309
145I73619286I75841109I76816692I76834638I74616570I67355697I55077093
138I43929478I40490371I41562686I34690710I12625025H84836936H69909683
131H77016486H99022414I22880105I41402316I54262770I63201545I69684242
124I75088261I80354184I85210018I88762147I91025399I93201275I96431391
117A000811461A005516662A009425423A011862727A013171969A014335414A015950886
110A017888116A019711687A021133760A022296824A023501570A024561793A025069504
103A025392917A026329808A027481861A027634786A026890911A026849100A028552076
96A031099284A032716219A032875953A032676000A033158000A033817680A032603324
89A027244870A017464918A006967500A001953142A005533017A014207118A021163289
82A022399982A018940002A015005595A014731757A018898510A024922880A030422739
75A035214680A039791267A043597761A045690142A046581086A048219722A051421455
68A054956211A057689945A059758016A061623270A063131320A063708588A063263498
61A062876510A063859157A065474565A065811151A065138043A065556087A067309591
54A066839300A059860029A046530174A032987830A026611028A029738176A038521863
47A048180457A057184652A065673564A072213982A073741823A067698424A052457496
40A028230127A000602853I80906251I78629317I91313174A006507073A015136373
33A018176018A022712576A030449340A036784523A039349677A040219747A042893342
26A047556160A050835978A049659296A043231264A032900581A022315088A017256182
19A023737225A041251269A057571513A064090802A064640642A062634873A056249098
12A043650581A026983760A011502659A003228146A005179504A013889624A023917323
5A032601797A038945952A043652935A050979993A063438250
##END=


$$ === CHEMSPECTRA PEAK TABLE EDIT ===
##TITLE=X8547
##JCAMP-DX=5.00
##DATA TYPE=INFRAREDPEAKTABLE
##DATA CLASS=PEAKTABLE
##$CSTHRESHOLD=0.93
##MAXX=3997.453
##MAXY=1.0056751920938023
##MINX=373.96442
##MINY=0.5925913428211381
##$CSSOLVENTNAME=- - -
##$CSSOLVENTVALUE=0
##$CSSOLVENTX=0
##NPOINTS=57
##PEAKTABLE= (XY..XY)
385.29667513685536, 0.9396315174010494
402.2950578420937, 0.9575085001646548
424.9595681157448, 0.9165920571230292
444.7910146051895, 0.9675046758105182
481.62084379987255, 0.9599509790402687
492.9530989366981, 0.9417902780416662
559.5300978655196, 0.8147643770743608
566.6127573260355, 0.8808708148064717
602.0260546286158, 0.7558422650749878
613.3583097654414, 0.8286307415864096
624.6905649022669, 0.79666173078665
650.1881389601249, 0.7373856268532895
674.2691811258792, 0.7239943117971287
689.8510319390148, 0.7173578708421766
702.5998189679435, 0.5925913428211381
718.1816697810787, 0.7224338020300354
749.3453714073494, 0.6615856259036981
766.3437541125877, 0.8933055955172197
791.8413281704452, 0.8547440135450883
808.839710875684, 0.8926807009556358
852.7521995308834, 0.8495375472988759
879.6663054808441, 0.7144775361513598
909.4134752150117, 0.8153762181301093
927.8283898123786, 0.9106677136184319
975.9904741438872, 0.9185796938605708
1001.4880482017197, 0.8874856791226974
1014.2368352306485, 0.876542683629701
1025.5690903674745, 0.8502606114924199
1052.4831963174352, 0.840376969298958
1073.7311746989835, 0.8806245290472021
1102.0618125410474, 0.8149681651817846
1137.4751098436277, 0.8294448215999334
1161.556152009382, 0.8249821626048623
1185.6371941751368, 0.7682740055561352
1232.3827466145422, 0.7247828214753714
1270.6291077013288, 0.7284322939809602
1289.0440222986708, 0.8193467814035104
1328.7069152775603, 0.6412227122090708
1364.1202125801406, 0.6528472867170243
1375.452467716966, 0.7385152547884223
1395.2839142064108, 0.6927337016559086
1430.6972115089911, 0.8839775285899135
1447.6955942142295, 0.8524041138519457
1468.9435725957778, 0.8293375930953005
1485.9419553010162, 0.8856490807294564
1541.1866990930412, 0.7028508748807599
1578.0165282877247, 0.8574989401697982
1589.3487834245502, 0.8533804977309144
1599.2645066692726, 0.84953194450976
1655.9257823534008, 0.6579062315820138
1684.2564201954651, 0.7336084806268175
2331.6114948866298, 0.8941188410130065
2340.110686239249, 0.8902390556611507
2359.942132728694, 0.8811292015412304
2923.721825785779, 0.9026067808580308
3063.958483103995, 0.899323996008005
3283.5209263799843, 0.8734450895984525
##END=


$$ === CHEMSPECTRA PEAK TABLE AUTO ===
##TITLE=X8547
##JCAMP-DX=5.00
##DATA TYPE=INFRAREDPEAKTABLE
##DATA CLASS=PEAKTABLE
##$CSTHRESHOLD=0.93
##MAXX=3997.453
##MAXY=1.0056751920938023
##MINX=373.96442
##MINY=0.5925913428211381
##NPOINTS=180
##PEAKTABLE= (XY..XY)
3994.6199362157936, 0.9083290652335906
3986.1207448631744, 0.9079153495532375
3980.4546172947616, 0.9074086502394755
3974.788489726349, 0.9079812727080213
3959.2066389132133, 0.9071069322717421
3946.4578518842845, 0.9084646064617578
3936.542128639562, 0.9075421056416044
3922.3768097185302, 0.9068157633200253
3901.128831336982, 0.9044477897383909
3889.7965762001563, 0.9073376019656609
3878.4643210633308, 0.9063751061102645
3869.9651297107116, 0.9045993647590812
3852.966747005473, 0.9038642005266561
3837.3848961923377, 0.9068170146283268
3833.135300516028, 0.9067095472886513
3820.3865134870994, 0.9048722942064112
3799.138535105551, 0.9067718345311403
3779.3070886161063, 0.9080181675707513
3769.391365371384, 0.9097561195985551
3750.976450774042, 0.9075765568940362
3733.9780680688036, 0.9043450316637898
3724.0623448240813, 0.9049143750676926
3707.063962118843, 0.9062157825315075
3688.649047521501, 0.9072453339007718
3674.483728600469, 0.9066054779628362
3647.5696226505083, 0.9060861428704113
3634.820835621579, 0.9089485958411012
3627.738176161063, 0.9075435358420356
3617.822452916341, 0.9084313475113227
3610.739793455825, 0.9077808816778498
3599.4075383189993, 0.9101759157381091
3593.7414107505865, 0.9089604570449399
3586.6587512900705, 0.9099039987640379
3578.159559937451, 0.9117296894203945
3566.8273048006254, 0.9097783527994964
3558.328113448006, 0.9130232293769254
3545.5793264190775, 0.9122397858114087
3532.8305393901483, 0.914717610400104
3521.4982842533227, 0.9136846619535873
3510.166029116497, 0.9174346886951298
3504.4999015480844, 0.9172344765570881
3497.4172420875684, 0.9169585068801577
3491.7511145191556, 0.9172760207419797
3476.1692637060205, 0.9179198104335573
3452.0882215402657, 0.9203768929012631
3432.256775050821, 0.9216027816612318
3419.507988021892, 0.923451479156746
3403.9261372087567, 0.9240828110251826
3389.7608182877248, 0.925061042831755
3384.094690719312, 0.9255057527443751
3374.1789674745896, 0.9252942760217971
3348.6813934167317, 0.9226558765460434
3335.932606387803, 0.9223327598951057
3283.5209263799843, 0.8734450895984525
3215.5273955590305, 0.906533058494895
3207.028204206411, 0.9068293535022505
3195.6959490695854, 0.9080260350780353
3180.1140982564502, 0.9110974630913083
3170.198375011728, 0.9115232788105426
3160.2826517670055, 0.9124789196319139
3148.95039663018, 0.9107038339063376
3123.452822572322, 0.911863859454435
3116.370163111806, 0.9110338046546926
3106.4544398670837, 0.9122032477963306
3099.3717804065673, 0.9129224381791452
3086.6229933776385, 0.9098957734724941
3068.208078780297, 0.8985786396072151
3027.128653909304, 0.9050875857334139
3018.6294625566848, 0.907188590441094
3008.7137393119624, 0.9087249591367295
2990.2988247146204, 0.9114386394178949
2980.383101469898, 0.9112454612060085
2957.718591196247, 0.9075019317142314
2950.635931735731, 0.9071301779459423
2927.97142146208, 0.9022160130105307
2892.5581241594996, 0.9133425312234386
2876.976273346364, 0.9143647508252005
2869.893613885848, 0.9142119244962089
2848.6456355043, 0.9104761435624986
2817.48193387803, 0.9163358170938293
2799.067019280688, 0.9175378635602953
2789.1512960359655, 0.9186095557337536
2774.985977114933, 0.9179357842831679
2755.1545306254884, 0.918520148069727
2748.0718711649724, 0.9187370496258989
2738.15614792025, 0.9178909020273287
2729.656956567631, 0.9186146218464797
2722.574297107115, 0.9186918695287125
2709.825510078186, 0.918788667029938
2695.660191157154, 0.91896831593912
2655.997298178264, 0.9218119936656415
2641.831979257232, 0.922834630994576
2630.4997241204064, 0.922847087881109
2620.584000875684, 0.9222881754806136
2612.084809523065, 0.923282797927361
2603.5856181704457, 0.9233502112254888
2593.6698949257234, 0.9233050301916944
2588.0037673573106, 0.9234920099317707
2580.921107896794, 0.9228883941675661
2573.838448436278, 0.9225000099874513
2558.2565976231426, 0.9235488732772739
2544.0912787021107, 0.9256281215174896
2535.5920873494915, 0.9258954481757038
2527.0928959968724, 0.9252232867542872
2520.0102365363564, 0.924617465278219
2507.2614495074276, 0.9261335685863422
2497.3457262627053, 0.9258433540381876
2488.846534910086, 0.9247220712804238
2476.097747881157, 0.9273067075831876
2466.1820246364346, 0.9266375264484589
2457.6828332838154, 0.926931734693168
2447.7671100390926, 0.9271013094465946
2440.6844505785766, 0.926735516251681
2425.1025997654415, 0.926768656252899
2413.770344628616, 0.9261428072877528
2406.6876851681, 0.9261702255506375
2398.188493815481, 0.92810248908602
2359.942132728694, 0.8811292015412304
2340.110686239249, 0.8902390556611507
2331.6114948866298, 0.8941188410130065
2280.616346770915, 0.9309917646369003
2269.2840916340892, 0.931051309491136
2253.7022408209536, 0.9313134510874069
2243.7865175762313, 0.9318634226278388
2235.287326223612, 0.9320185736179114
2228.2046667630957, 0.9346387944687989
2212.6228159499606, 0.9343202072541975
2202.707092705238, 0.9344056202850615
2175.7929867552775, 0.9342376546241961
2168.7103272947616, 0.9349653681399017
2158.794604050039, 0.9301812605927586
1684.2564201954651, 0.7336084806268175
1655.9257823534008, 0.6579062315820138
1627.595144511337, 0.9047585085091004
1599.2645066692726, 0.84953194450976
1589.3487834245502, 0.8533804977309144
1578.0165282877247, 0.8574989401697982
1541.1866990930412, 0.7028508748807599
1512.8560612509773, 0.8914889056638392
1498.690742329945, 0.9014105760157232
1485.9419553010162, 0.8856490807294564
1468.9435725957778, 0.8293375930953005
1447.6955942142295, 0.8524041138519457
1430.6972115089911, 0.8839775285899135
1395.2839142064108, 0.6927337016559086
1375.452467716966, 0.7385152547884223
1364.1202125801406, 0.6528472867170243
1328.7069152775603, 0.6412227122090708
1289.0440222986708, 0.8193467814035104
1270.6291077013288, 0.7284322939809602
1232.3827466145422, 0.7247828214753714
1185.6371941751368, 0.7682740055561352
1161.556152009382, 0.8249821626048623
1137.4751098436277, 0.8294448215999334
1102.0618125410474, 0.8149681651817846
1073.7311746989835, 0.8806245290472021
1052.4831963174352, 0.840376969298958
1025.5690903674745, 0.8502606114924199
1014.2368352306485, 0.876542683629701
1001.4880482017197, 0.8874856791226974
975.9904741438622, 0.9185796938605708
927.8283898123532, 0.9106677136184319
909.4134752150117, 0.8153762181301093
879.6663054808441, 0.7144775361513598
852.7521995308834, 0.8495375472988759
808.839710875684, 0.8926807009556358
791.8413281704452, 0.8547440135450883
766.3437541125877, 0.8933055955172197
749.3453714073494, 0.6615856259036981
718.1816697810787, 0.7224338020300354
702.5998189679435, 0.5925913428211381
689.8510319390148, 0.7173578708421766
674.2691811258792, 0.7239943117971287
650.1881389601249, 0.7373856268532895
624.6905649022669, 0.79666173078665
613.3583097654414, 0.8286307415864096
602.0260546286158, 0.7558422650749878
566.6127573260355, 0.8808708148064717
559.5300978655196, 0.8147643770743608
424.95956811571523, 0.9165920571230292
##END=

##END=

