##TITLE=X8624
##JCAMP-DX=4.24
##DATA TYPE=INFRARED SPECTRUM
##DATE=2/11/2018
##SAMPLING PROCEDURE=ATR platinum Diamond 1 Refl
##ORIGIN=ComPlat
##XUNITS=1/CM
##YUNITS=TRANSMITTANCE
##RESOLUTION=4
##FIRSTX=3997.453
##LASTX=373.96442
##DELTAX=-1.4165319
##MAXY=0.71794802
##MINY=0.29881117
##XFACTOR=1
##YFACTOR=6.686412e-010
##NPOINTS=2559
##FIRSTY=0.60485697
##XYDATA=(X++(Y..Y))
3997+904606191+905092466+905038178+904709508+904607885+904684102+904583014
3988+904281800+904115727+904357393+904972123+905640249+905970346+905819516
3978+905411598+905034345+904706834+904363901+904236694+904622683+905357934
3968+905972663+906273164+906336991+906174483+905824775+905478009+905176973
3958+904788310+904428440+904419348+904786973+905218068+905412489+905243207
3948+904861942+904713519+905061177+905579186+905645954+905011168+904004476
3938+903199248+903080242+903706382+904488344+904550744+903736602+903074270
3928+903611267+905189810+906578746+906648099+905548432+904317101+903586307
3918+903246583+903057154+903053054+903131678+902915150+902440731+902453657
3908+903533534+905255152+906479708+906308821+904879593+902944032+900871013
3898+898927518+897810111+898088861+899546794+901145038+901829388+901895176
3888+902228036+902426111+901479681+899982971+899407553+899401937+899004627
3878+898940087+899957743+901041276+901040473+900430647+900285344+900565609
3869+900889733+901259498+901182211+899966034+898255915+897786756+899257704
3859+902042618+905104589+906995490+905305428+899327859+894498629+894141879
3849+896151964+898549017+900511945+901632026+901794712+901415052+900938940
3839+900320912+899732390+899863519+900611607+900941168+900333748+899547062
3829+899447489+899814847+900129700+900623284+901414696+901475848+900269744
3819+899460860+899764125+899699764+898667132+898097508+898896853+900580852
3809+902148431+902625435+902153423+902126769+902735972+902527913+901251920
3799+900731415+901206814+901114373+900031464+899288101+899932516+901763601
3789+903906152+905436201+905781273+905030512+903943948+903136224+902395535
3779+901342133+900448208+900491085+901387150+902461501+903128290+903113314
3769+902636489+902230977+901976831+901650122+901523004+901936717+902416127
3759+902202452+901608136+901683105+902431727+902890814+902241140+900532091
3750+899121850+899162588+899997412+900065963+898761891+897902820+898805749
3740+900659387+902364870+903359884+903445639+902583449+901333575+900724016
3730+901139957+902031208+902559202+902376102+901836966+901391518+901303445
3720+901798723+902731783+903651025+904456788+905187047+905099330+903232677
3710+900787486+900026829+901093603+902867191+904338941+904721453+903954824
3700+903184183+903369511+904249085+905177419+905842069+906087479+905553157
3690+903785987+901178734+899368508+899397302+900845785+902685785+904013747
3680+904634717+904913467+904509115+902299796+899546259+899391418+901436446
3670+902745867+902091558+901598776+902662697+904219400+904888953+904544415
3660+904246054+904754882+905529356+905664229+905572768+906197660+907102639
3650+906575715+903605383+900365126+899305217+900070598+901519795+902844013
3640+903554928+903616972+903399463+903233212+903277070+903863006+905260590
3631+906660579+906070810+903269493+901235340+901298186+902660290+904450993
3621+905677065+905157184+903146565+901485475+901027904+901352117+902129978
3611+903257904+904130168+903948227+902866656+901778131+901059728+900592887
3601+900463897+900948300+901953119+902965426+903517488+903666625+904085418
3591+905201933+906212547+905393145+902501526+900024422+899552767+900223478
3581+900791408+900881175+900760921+900711358+900852471+901296046+902147807
3571+903257548+903969621+903314777+901218224+899438486+899337308+900259760
3561+901040563+901209667+901028261+900960245+901153863+901326801+901143434
3551+900770103+900675522+900819488+900570155+899577727+898415214+897892390
3541+898136285+898751996+899387050+899917451+900332589+900621680+900769301
3531+900798005+900785079+900757266+900562846+900048312+899374481+898908263
3521+898797815+898892128+899060252+899327146+899703775+900058296+900240950
3512+900292921+900454804+900901589+901436892+901517745+900643252+898915841
3502+897247976+896569420+896926170+897686738+898281054+898588508+898797637
3492+899030746+899128090+898821973+898199577+897839172+898169179+898872250
3482+899298175+899325096+899344886+899519427+899658936+899641464+899436524
3472+898930727+898123181+897271955+896688426+896635475+897275967+898308955
3462+898939374+898722222+898133879+897887042+898104461+898507477+898973070
3452+899523974+900022283+900181670+899832052+899106161+898427070+898252439
3442+898687902+899292469+899434118+898963710+898327051+897964329+897914944
3432+898108740+898627998+899410406+900030751+900128006+899823137+899398906
3422+898794606+897828831+896765000+896150626+896130391+896340768+896444352
3412+896502919+896780421+897298431+897779179+898058107+898266078+898432151
3403+898351477+898066130+897918598+897930454+897755289+897360920+897111409
3393+897143857+897274986+897478767+897916281+898528425+899000081+899120245
3383+898953102+898603929+897994637+897052753+896093397+895773730+896445511
3373+897649476+898503287+898588686+898219099+897895065+897851117+898105175
3363+898531991+898859146+898956133+899076209+899515505+900158315+900630862
3353+900764041+900673205+900462649+900082276+899546973+899156883+899227930
3343+899608214+899825009+899770721+899801921+900072916+900242644+900034406
3333+899690136+899664730+900101531+900716350+901081033+900965861+900443661
3323+899678102+898680236+897306097+895444614+893188852+890833161+888645147
3313+886626505+884568195+882361550+880218286+878560762+877659260+877410462
3303+877512709+877725315+877871509+877815973+877641431+877653466+878027866
3293+878649995+879388276+880248149+881136280+881793977+882152777+882472890
3284+882923775+883334813+883565871+883774466+884080939+884374041+884638172
3274+885061957+885693624+886347666+886865141+887205399+887426028+887709503
3264+888229117+888913735+889513667+889844655+889864444+889649075+889395463
3254+889351248+889690437+890413565+891281015+891933987+892205695+892173960
3244+891866327+891238850+890510017+890086410+890063590+890207199+890442625
3234+890915529+891543184+891931847+891822558+891381301+890989517+890858834
3224+890909289+891000036+891134286+891316761+891404924+891323714+891289662
3214+891640617+892478472+893504686+894195811+894228705+893737081+893054246
3204+892378008+891883175+891847875+892326394+892900029+893056921+892690900
3194+892066542+891474098+891085435+890978107+891116100+891324695+891371673
3184+891095865+890501727+889779491+889218069+889034880+889239552+889628483
3174+889909907+889950824+889964284+890322728+891066180+891757038+891971605
3165+891760782+891459479+891256500+891149172+891114139+891111465+891091764
3155+891135623+891377646+891711843+891861514+891853045+892098188+892802417
3145+893508519+893478032+892465011+890972669+889817199+889553781+890179654
3135+891192763+891981500+892243313+891978469+891194992+889878261+888163686
3125+886279115+884353271+882420117+880528860+878778717+877313029+876304555
3115+875869091+875913841+876052369+875804641+874977216+873735098+872356770
3105+871171258+870584608+870757367+871360509+871936194+872299719+872404729
3095+872182407+871733839+871392600+871424157+871785096+872198452+872419081
3085+872432452+872404996+872484066+872724039+873166099+873901796+874990766
3075+876275672+877364108+877941576+878077608+878105866+878297167+878770338
3065+879539552+880442213+881143768+881424569+881430898+881518258+881866539
3055+882328656+882647610+882747272+882782037+882874835+882836949+882317157
3046+881264022+880001312+878879805+878141880+877966446+878246444+878530365
3036+878534733+878452186+878574758+879006121+879797264+880845496+881675773
3026+881860299+881615513+881492674+881563543+881453005+881104635+880927775
3016+881128614+881412089+881451222+881245748+880983489+880855391+880961560
3006+881175236+881236299+881079942+880874913+880747974+880685485+880614972
2996+880423672+880051322+879699920+879749662+880278101+880815990+880802975
2986+880251002+879741639+879780149+880330606+880924655+881072097+880646083
2976+879921708+879191449+878497560+877855553+877449774+877424903+877684220
2966+877924728+877787091+877171826+876467686+876171197+876322205+876557453
2956+876531780+876084906+875300627+874558423+874273522+874488178+874843680
2946+874972848+874893600+874977216+875484529+876243937+876899316+877285394
2936+877393970+877177353+876591506+875774600+875091587+874910894+875256501
2927+875757573+876034273+876045505+875993000+876013325+876066186+876072872
2917+876059233+876092038+876145434+876151853+876123060+876133222+876267739
2907+876616109+877183058+877817399+878330506+878599183+878513695+878026618
2897+877342802+876885321+876927218+877303312+877595523+877621820+877580547
2887+877660240+877777285+877847084+878009235+878371690+878760977+878891661
2877+878636712+878085720+877480796+877082059+876964123+876984893+877014311
2867+877070916+877146510+877101047+876888976+876709353+876771218+877031248
2857+877241447+877159257+876729588+876150872+875683763+875404478+875317475
2847+875578040+876297245+877232889+877940060+878147941+877915724+877588570
2837+877560489+877904136+878358141+878732363+879027782+879172818+879085904
2827+878977417+879150532+879536610+879784338+879735845+879559163+879494356
2817+879625575+879858238+880045795+880128074+880143139+880162037+880245653
2808+880412618+880620054+880805114+880907896+880836493+880518520+879996944
2798+879363406+878632612+877792172+876885767+875943436+874987289+874190351
2788+873792596+873727789+873597194+873169041+872625001+872172066+871776450
2778+871495649+871684276+872534343+873664586+874517328+874999413+875407063
2768+875868556+876252495+876537574+876844315+877128235+877263287+877375607
2758+877674592+878038117+878171832+878080906+878009502+878025816+877994526
2748+877846995+877605150+877235296+876739216+876329693+876250445+876459039
2738+876716662+876903952+877001474+876925703+876665494+876410902+876308209
2728+876284676+876276920+876406177+876802596+877421337+878106312+878714623
2718+879128603+879223808+878929279+878352435+877791013+877582419+877913050
2708+878691357+879559342+880127895+880275516+880187621+880134492+880248862
2698+880437756+880463875+880191365+879769808+879519227+879653388+880125399
2689+880682097+881023515+880960490+880480723+879714005+878824536+877923212
2679+877094094+876462427+876126982+876013770+875909830+875684387+875418474
2669+875275934+875284848+875319525+875307847+875320951+875413749+875536945
2659+875675027+875899846+876226554+876564495+876815878+876899049+876744742
2649+876422847+876200703+876307764+876680025+877056743+877297161+877511639
2639+877894241+878485882+879130386+879642601+879981879+880213918+880353694
2629+880372504+880333459+880349683+880420997+880491955+880642072+881014422
2619+881602231+882293267+883029677+883730786+884206363+884356391+884343911
2609+884402300+884534766+884492601+884067746+883432335+883088154+883314756
2599+883794166+883984308+883686571+883085747+882489114+882173548+882213840
2589+882374476+882381162+882268663+882267683+882449802+882636289+882587884
2580+882210631+881611145+880975467+880410924+879926432+879511561+879185833
2570+878988025+878934985+878977595+879012806+878933647+878675846+878250991
2560+877778801+877444425+877372220+877554784+877968586+878668180+879627625
2550+880550433+881049009+881049009+880865821+880853073+881028150+881073880
2540+880756531+880299139+880157134+880437845+880795665+880928577+880920644
2530+881031359+881347549+881737193+882039566+882206441+882301824+882392126
2520+882445255+882411827+882404250+882580396+882813772+882777313+882424396
2510+882082354+882024055+882194585+882387758+882488668+882461747+882211255
2500+881708578+881320985+881569159+882338730+882872428+882803788+882584318
2490+882673372+882910671+882856204+882375546+881838548+881799236+882360837
2480+883047594+883477976+883794523+884195488+884465234+884263682+883674982
2470+883234884+883375819+883958189+884473703+884514798+883882240+882642796
2461+881427332+881181654+882174974+883587533+884322427+883959259+882897478
2451+881898987+881488038+881577627+881715888+881730418+881899522+882428496
2441+883096623+883586196+883815917+883774109+883413437+882898547+882530387
2431+882304588+881982693+881574061+881264557+881009430+880674609+880431695
2421+880626650+881321341+882127193+882483676+882189861+881632896+881295133
2411+881190747+881042413+880783898+880583862+880560506+880730234+881113014
2401+881711431+882390700+882864762+882907016+882575671+882121577+881744235
2391+881589840+881785241+882194675+882335699+881853079+881000427+880461825
2381+880710445+881573259+882361194+882469859+881972352+881582173+881907456
2371+882784712+883480472+883466477+882794428+881811182+880825082+880061395
2361+879708121+879834615+880138147+879917340+878774795+877276123+876346719
2351+876217908+876516715+876946651+877365266+877554784+877361344+877021620
2342+876903060+877016450+877120302+877123154+877228699+877680298+878346106
2332+878713643+878474561+877924193+877532855+877407698+877404044+877535351
2322+878025102+878945058+879971806+880636991+880719626+880297000+879562194
2312+878770783+878260529+878244394+878540349+878736820+878686811+878651867
2302+878896296+879321687+879567186+879382126+878919028+878667199+878980804
2292+879682983+880255548+880364570+880106412+879867420+880040892+880754214
2282+881769374+882650730+883064353+883005073+882743973+882537429+882487598
2272+882597868+882651176+882242277+881444091+881087876+881723376+882802273
2262+883495003+883687908+883707252+883747277+883946066+884442236+885078092
2252+885430920+885267878+884737299+884089675+883429393+882789080+882234521
2242+881876078+881967984+882725521+883720891+884025492+883388477+882579326
2232+882253509+882311541+882471998+882561052+882221952+881109983+879455847
2223+878150616+878183688+879752960+881829545+882985283+882684426+881519238
2213+880630483+881122196+883165085+885353722+885852923+884560261+883359505
2203+883778210+885174545+885963638+885998671+886494930+887756392+888538443
2193+888069819+887260401+887035136+886647543+884945804+882692003+882147607
2183+884332144+887814870+890400283+891119131+890478193+889653354+889622154
2173+890585165+892027676+893189654+893608359+893497732+893256957+892390220
2163+889911957+886239803+883536276+883569972+885855597+888230454+888834576
2153+887654056+886368347+886239981+886672503+886574802+886025771+885602520
2143+885209132+884552149+883863252+883458811+883295144+883299601+883490189
2133+883623725+883365835+882778115+882072370+881185666+880182094+879650624
2123+880000778+880726223+881068175+881034033+881084577+881161864+880750470
2113+879787013+878937659+878836927+879292626+879412256+878569588+877095074
2104+875767201+874962151+874793136+875546661+877223975+879114073+880594470
2094+881871264+883258061+884264128+884063378+882589845+880722479+879425895
2084+879014767+879323024+880275338+881909506+883883131+885323681+885450621
2074+884483420+883753250+884410679+886010438+886892953+885999385+883987072
2064+882479308+882272318+882567649+882328300+881832130+881990448+882770181
2054+883410228+883553124+883258863+882714289+882458627+882944991+883852733
2044+884686487+885490200+886575872+888265398+890618861+892793949+893499783
2034+892420440+890261665+887872278+886477904+887479871+890801871+894601589
2024+897100712+897579231+895997211+893040340+890054408+887865859+886257810
2014+885283567+885720456+887523907+889488083+891102996+893001563+894875704
2004+895167825+893564857+891736446+891250260+892031688+892969204+893282452
1994+892948790+892068860+890408305+888034251+885951515+885327782+886199956
1985+887368085+887737226+887676876+888633737+891314265+894730490+897324104
1975+898363778+897876969+896133957+893452893+890167976+887004917+885027548
1965+884439740+884186484+883331782+882053026+881153128+881268569+882521740
1955+884272686+885320918+884903639+883479314+882304766+882338195+883578619
1945+885340262+887009820+888376649+889261125+889261838+888232683+886740965
1935+885620794+885105905+884912108+885050369+885809956+886986197+887783313
1925+887557247+886435204+885261638+884678643+884358976+883648863+882744063
1915+882431527+882874479+883548667+883886518+883616326+882961215+882551246
1905+882708584+882985016+882762693+882066220+881438832+881226315+881339259
1895+881658480+882333381+883418964+884449456+884813694+884546622+884252539
1885+884252450+884378320+884311106+883917986+883517378+883682381+884517383
1875+885436982+885908637+885999206+885999652+885971839+885873158+885845970
1866+886071145+886544048+887102528+887420412+887104757+886170896+885329743
1856+885373334+886268953+887190780+887433160+887079530+886786517+887005898
1846+887431555+887299356+886417198+885419866+884819667+884727404+885053043
1836+885540031+885973979+886286068+886299261+885793464+884971923+884148777
1826+883135667+881791303+880577354+879925541+879695730+879541067+879272569
1816+878890770+878468499+877992387+877364197+876608889+875941208+875549960
1806+875471246+875570106+875475614+874721732+873254974+871684365+870650128
1796+870204057+869960162+869510436+868786328+868183811+868033872+868264396
1786+868692817+869265560+870061161+871135601+872383513+873540856+874372738
1776+874846265+875015726+874843323+874393954+874098178+874209517+874490050
1766+874740631+874940489+874908487+874426313+873804184+873536488+873479615
1756+873311313+873220744+873484785+873875944+873899300+873469274+873078204
1747+873109226+873605306+874460633+875350814+875786901+875708634+875741973
1737+876269076+876818909+876704182+876259626+876147752+876119048+875917050
1727+875709258+875530081+875187950+874770850+874520893+874128397+872638908
1717+869673211+866648858+864689675+863429372+862315620+861117093+859711487
1707+858072772+856716908+856490039+857465174+858837530+859735823+860061819
1697+859946289+859211217+858376571+858105755+858161826+858196235+858516169
1687+859377825+859926500+858829596+857017231+856606371+857462678+858719683
1677+859860980+860619854+861090885+861582063+861935871+861714172+861325420
1667+861810714+863148393+864543302+865470923+866119082+867004093+868285612
1657+869855776+871381101+871730630+869610633+867579511+868020412+869376900
1647+869840265+869075418+868558033+868944022+869668665+870344190+870936545
1638+871258172+870846332+870022830+869884123+870441623+870992972+871084789
1628+870859436+870722869+870699692+870709052+871124191+872178128+873356063
1618+873831997+873392879+872936199+872929246+872828871+872120898+870855425
1608+869550550+868741132+868632824+869064097+869696121+870298994+870838755
1598+871290888+871474344+871033176+869565437+866981094+863851553+861267655
1588+860118870+860448877+861558974+862645805+863350480+863821512+864266157
1578+864532783+864352536+864177103+864710445+865654825+866344881+866701185
1568+867329643+868400250+869454187+870312188+871083631+871417649+870264674
1558+868167141+867996967+869435378+871094506+872499666+873552623+874280029
1548+874876306+875540956+876250712+876783965+876445311+873072588+865184061
1538+857362927+853188541+851378226+850356292+849659283+849518883+850028780
1528+851084589+852659567+854617413+856420864+857327181+857062694+856448944
1519+856446448+857290899+858908131+860949415+862912343+864557476+865884547
1509+866630227+866184156+865359138+865661333+866535112+867143067+867360932
1499+867491705+867699586+867862272+867931804+867875109+867548311+866984838
1489+866623274+866794785+867319570+867948473+868595294+869315124+870221707
1479+871282419+872254880+872880039+873037555+872807566+872607886+872869342
1469+873448415+873881560+873868010+873662358+873927469+874814798+875847786
1459+876402790+876132063+875820508+876366152+877315881+878131183+878682353
1449+878956379+878999970+879066203+879368308+879793877+880210263+880749757
1439+881504797+882146537+882284441+882331152+882944545+884059723+885261103
1429+886193092+886497070+885653332+883359684+880294860+877855107+876852962
1419+877288782+878793782+880489281+880998644+878503533+871112067+858748832
1409+844792167+833932952+828145792+825655852+823477198+820631844+818322775
1400+818097778+820483867+824674031+829547298+834349874+838610906+842210409
1390+845186892+847380878+848525920+848763753+848710535+848955856+849737105
1380+850923776+852258869+853579522+854799176+855892960+856910081+857755067
1370+858064036+857546294+856403303+855086573+853690327+852035566+850324735
1360+849092066+848388550+847573962+845820253+842807221+839134889+836048225
1350+834722046+835580760+838075247+841138733+843867309+845863844+847209011
1340+848324724+849735589+851615614+853681056+855653344+857492808+859173509
1330+860586247+861808664+863157842+864778996+866424307+867765463+868732040
1320+869461407+870069540+870595306+871117148+871752292+872472478+873082215
1310+873494056+873857492+874312923+874807577+875244556+875665400+876207745
1300+876975088+877956284+878969126+879693680+879876869+879526715+878829974
1290+877895043+876606303+874681707+871857659+868190853+864393185+861808129
1281+861692421+864239859+868370833+872575259+875928906+878367857+880238076
1271+881766967+882937503+883735243+884355856+885070248+885960162+886959097
1261+888081051+889272535+889994058+889373534+887054035+883770365+880960758
1251+879814380+880619519+882830353+885634344+888457590+891014032+893129126
1241+894740831+896017269+897331860+899135756+901790344+905293929+908989439
1231+911205532+908764353+897360474+874244729+841979262+808983803+784790141
1221+774128467+775474971+784144122+795739480+807396613+817629243+826092117
1211+833168551+839234640+844293502+848304221+851554640+854519178+857437272
1201+860156221+862417688+864187711+865597952+866641014+867065602+866545274
1191+864878836+862045428+858081330+853086116+847674248+843328797+841688567
1181+843124659+846260530+849191639+851153586+852876363+855393403+858789392
1171+862279963+865222660+867613207+869686048+871501889+872987100+874031944
1162+874445568+874080973+873186245+872503054+872802752+874254623+876306605
1152+878208648+879592949+880566033+881394973+882267683+883232477+883881437
1142+882685585+877057902+865267499+849060599+833871354+825362750+825393147
1132+831477242+839680265+847386049+853814236+859154611+863740659+867653856
1122+870725900+872864796+874345638+875677880+877149541+878567716+879578062
1112+880229429+881012461+882277132+883872523+885473976+887015258+888672692
1102+890608075+892813293+895067629+897025119+898489024+899631123+900812624
1092+902184445+903607790+904966240+906343676+907838336+909439254+911184673
1082+913236654+915693523+918513382+921696944+925360808+929546515+934050016
1072+938290279+941023491+940543545+936222073+929902552+924136251+918263336
1062+908224325+892010115+873766209+860322473+854463820+853225714+851699408
1052+846541419+836410948+821393838+803434209+787115702+778567250+781711679
1043+794914016+812142316+827778078+839754521+848612299+855349723+860717822
1033+865335961+869567398+873468204+877054247+880486339+883976642+887606543
1023+891268446+894781836+897989645+900760386+903109214+905363550+908003161
1013+911266863+914989116+918747293+922111726+924865797+927091340+929072809
1003+931135488+933533790+936371120+939502088+942485791+944811709+946365381
993+947571931+949011233+951081846+954035062+958113173+963696285+971341451
983+981479589+994250029+1009829274+1028385447+1048993335+1067519111+1073741823
973+1051758014+990300997+898507298+807906154+751498728+740058479+760777528
963+794951099+832110781+870552874+911555151+953991471+990222818+1005477583
953+983580154+917493141+818948380+718482544+649775576+627678867+641539837
943+670120358+699162817+724634165+746537522+765019752+780383003+793390831
933+804948391+815632619+825418018+834056593+841656743+848638507+855312996
924+861682437+867566139+872918014+877942467+882732563+886942873+890014918
914+891688844+892113699+891206402+888162884+882539658+875845825+870806485
904+868481370+866679256+861689836+852167587+841856601+837603324+843485510
894+857391453+873785642+888490484+900282937+909688052+917682659+925094092
884+932380369+939655949+946829816+953748646+960362607+966846151+973511993
874+980525760+987761582+994961925+1001796871+1007580376+1010918601+1009436243
864+999844997+979123452+946826518+906721642+864811801+822973362+774797128
854+713360346+646077792+595879573+582165511+603563160+641745223+676813700
844+695908208+693438324+670649243+635698211+601125279+578641468+574163773
834+586212289+608508855+634352777+659522198+682577950+703601734+722933496
824+740674814+756772870+771379120+785100715+798559160+811679308+823896081
815+835049200+845631537+856072226+865837390+873473553+878296008+881954345
805+886846332+892456365+894556840+888948055+875789576+860142137+848314205
795+843653455+845690728+852199055+860658898+868289178+872838588+874107894
785+873697747+872957237+871485041+866718746+854006160+828223703+786989743
775+732129482+667919953+599907141+536081239+486066298+456391592+446893144
765+452258569+466257265+484548550+505096756+527215349+550357659+573620447
755+596163939+617777003+638967172+660529335+682345332+701440954+711512012
745+707202351+691293768+676032318+674195082+688983450+714109369+741825337
735+767434099+786436522+791038616+772694335+730018711+674374526+625354554
725+598010491+593357541+600303337+604563701+596587948+576019996+551334042
715+533763834+529797686+538439738+554680513+574262632+595122616+616249004
705+636399989+654190959+669723582+684846460+700047204+711732195+713242365
696+697451718+660185778+606028899+550787908+512770983+499501744+505334188
686+520808556+539887375+559207147+575921627+588403556+597343434+605007410
676+613338174+622539999+631419127+639152946+646237448+653317670+659178641
666+662596827+664919179+668041098+672886240+678941275+684873470+689900464
656+694184362+698122608+701687523+704527751+706403497+707325547+707373818
646+706182734+702465384+694924114+684533880+675240773+671265087+673887984
636+681272496+690471469+699068281+705935452+711302570+716041186+720632048
626+724708777+727587471+729229172+730428991+731959308+733909666+735949881
616+737757388+739073093+739773890+740098816+740720232+742443365+745454435
606+748814634+751257329+752538224+753404337+754458541+755784097+757324933
596+758926118+760230903+760850090+760635078+760017317+759926035+760910084
586+762637763+764408677+765612374+765800733+765210607+765020376+766145181
577+768055158+769363152+769316085+768432233+767899782+768429469+769502661
567+769966650+769440350+768861010+769634236+772126138+775092548+777113596
557+778229666+779325589+780454674+780904489+780568420+780222100+780601403
547+781764630+783222206+784478586+785549550+786909960+788791233+790722961
537+792096475+792900723+793323438+793001900+791698808+790531125+791296328
527+794367481+797975274+800104186+800567907+800549098+801122822+802469504
517+803779638+804232484+804264933+805147002+807319059+809885930+811853315
507+813031339+813554519+813507808+813252235+813375609+814234323+815888727
497+818004802+819515418+819173644+816898003+814080819+812367580+812467688
487+814046409+815998818+816890604+816082345+814536428+813894866+814866168
477+816732286+818174530+818458807+817898187+817342826+817299414+817981714
467+819736760+822407126+824989241+826717009+827630100+827899669+827795015
458+828267205+829816153+831374995+832094112+832660258+834210008+836941972
448+840405354+844203735+847640284+849368231+848644212+846926160+846411360
438+847185121+847332652+845901730+844658720+845969924+850120330+854990922
428+857916861+857965801+856595228+856364169+858314260+860427394+859102730
418+854695057+852131930+852490819+853701648+855037901+858389675+866159553
408+877822391+889104322+895153295+894543557+889862840+885306031+883820018
398+884284453+882401843+878841741+879520565+886634885+896417431+903209767
388+904957325+905350356+909627435+917236944+922789747+925182433+927075472
378+929437136+931743621+935519003+944203398
##END=
