##TITLE=ESP 467
##JCAMP-DX=4.24
##DATA TYPE=INFRARED SPECTRUM
##DATE=31/1/2019
##SAMPLING PROCEDURE=Diamant-ATR
##ORIGIN=Rieke
##XUNITS=1/CM
##YUNITS=TRANSMITTANCE
##RESOLUTION=4
##FIRSTX=3997.453
##LASTX=373.96442
##DELTAX=-1.4165319
##MAXY=1.0033859
##MINY=0.72562033
##XFACTOR=1
##YFACTOR=9.3447594e-010
##NPOINTS=2559
##FIRSTY=0.99918777
##XYDATA=(X++(Y..Y))
3997+1069249322+1068812146+1068690893+1068893088+1069163660+1069271710
3989+1069129727+1068852330+1068663849+1068656577+1068782423+1069050507
3980+1069465167+1069806795+1069807432+1069502162+1069167232+1068963251
3972+1068853542+1068827773+1068986404+1069338747+1069659709+1069681523
3963+1069366493+1068908588+1068564792+1068549484+1068951833+1069594840
3955+1070084893+1070118507+1069742692+1069305835+1069137190+1069211562
3946+1069236183+1069135787+1069179160+1069548406+1070020854+1070185991
3938+1069794867+1068931486+1068081437+1067873309+1068423702+1068953875
3929+1068535834+1067212953+1065923176+1065494547+1065876104+1066428346
3921+1066829930+1067214867+1067650639+1067922423+1067836570+1067548202
3912+1067463880+1067729157+1067838037+1067057958+1065388730+1063849047
3904+1063623889+1064845417+1066677231+1068397869+1069452219+1069216601
3895+1067664672+1065784701+1064986061+1065701080+1066732914+1067108985
3887+1067274313+1067671752+1067642283+1066814048+1066086400+1065946904
3878+1065482747+1064255670+1063225941+1063142703+1063686334+1064676198
3870+1066331585+1067724310+1067643942+1066702553+1066331458+1066738783
3861+1066940149+1066291593+1064722952+1062424558+1060464985+1061310315
3853+1065917436+1069855589+1070118507+1068411009+1066667408+1065576956
3844+1065075742+1064789989+1064303253+1063653676+1063489752+1064158017
3836+1064958251+1065224677+1065293309+1065713709+1066319275+1066596225
3827+1066421011+1065812192+1064739408+1063804015+1064077840+1065117711
3819+1065039895+1063981144+1063746674+1064624023+1065159936+1064720783
3810+1063855617+1063460156+1064350517+1065965911+1066424582+1065490529
3802+1065011192+1065846061+1066504249+1066229403+1065931596+1066129007
3793+1066356078+1066231891+1065849761+1065377504+1064930697+1064624725
3785+1064426739+1064162545+1064023815+1064672180+1066213394+1067510761
3776+1067607394+1066919483+1066236930+1065898938+1066035883+1066462087
3768+1066484922+1065906911+1065411373+1065294712+1065061390+1064621727
3759+1064621408+1065135762+1065107442+1063768807+1061626110+1060276695
3751+1061187850+1063179570+1063711592+1063187096+1064127783+1067107263
3742+1068869680+1067496282+1064516100+1062141166+1061999629+1064216762
3734+1066907428+1068100891+1067523135+1065909207+1064176004+1063242206
3725+1063551877+1064633208+1065679649+1066252748+1066229276+1065685963
3717+1064718615+1063291128+1061742962+1061242959+1062675038+1064807338
3708+1065714730+1065227037+1064338015+1064051370+1064822838+1066076067
3700+1066708740+1066434150+1065652285+1064544102+1063075028+1061458358
3691+1060348005+1060611114+1062295077+1063909195+1064155083+1063231681
3683+1062079805+1061453957+1061352093+1061337870+1061720510+1063337563
3674+1065140482+1065138951+1064093148+1063975594+1064742789+1064794071
3666+1064030002+1063430113+1063286217+1063118146+1062515833+1061754762
3657+1061570107+1061957276+1061613098+1059797932+1057605930+1056969237
3649+1058712200+1061080055+1062102895+1061851203+1061249784+1060861913
3640+1060638924+1060324979+1059984755+1059891311+1059943295+1059569393
3632+1058658685+1058484299+1060745316+1064287881+1065738521+1064496838
3623+1061994909+1059469699+1057960888+1058179029+1059350997+1059893225
3615+1059564865+1059171891+1059154925+1059562887+1060644920+1062333921
3606+1063669304+1063775823+1062824739+1061626620+1060851325+1060601100
3598+1060690844+1061175539+1062090521+1062793995+1062423027+1061124065
3589+1060112196+1060472448+1061832387+1062840685+1063121845+1063196983
3581+1063262744+1063028976+1062319378+1061354453+1060517416+1060030361
3572+1059743779+1059329948+1058878931+1059053636+1060166540+1061380669
3564+1061889665+1061932975+1061944392+1061875441+1061558435+1061103591
3555+1060701560+1060432838+1060334866+1060314519+1060112004+1059649187
3547+1059212713+1059101984+1059293081+1059614042+1059902091+1059869242
3538+1059276178+1058421408+1058052800+1058503690+1059270565+1059718329
3530+1059843155+1060023791+1060235745+1060021750+1059297992+1058637573
3521+1058559246+1058970398+1059471485+1059791936+1059808456+1059521874
3513+1059153713+1058941695+1058791611+1058421026+1057862405+1057502025
3504+1057660146+1058290843+1058966124+1059226618+1059128136+1059191728
3496+1059607409+1059822233+1059309218+1058333642+1057514655+1057082900
3488+1056946020+1057062745+1057380581+1057707729+1057930782+1058191020
3479+1058664170+1059247858+1059570031+1059331160+1058652243+1057989973
3471+1057670415+1057649685+1057745298+1057865786+1057970519+1057983722
3462+1057849521+1057568488+1057207917+1056951250+1057050115+1057581309
3454+1058228781+1058432698+1057937670+1057195160+1056969046+1057438879
3445+1057995905+1058053885+1057609183+1056996473+1056554641+1056500871
3437+1056794979+1057141582+1057295939+1057302892+1057368398+1057531557
3428+1057503365+1056992646+1056247011+1055912400+1056198790+1056568100
3420+1056467321+1055982371+1055507116+1055121988+1054594558+1053856066
3411+1053262620+1053301783+1054066362+1055062286+1055559227+1055205673
3403+1054351477+1053687166+1053543971+1053667840+1053668350+1053512525
3394+1053476998+1053712552+1054015909+1054064704+1053757392+1053206553
3386+1052533377+1051824991+1051173055+1050558751+1049717503+1048224510
3377+1045744587+1042212674+1037809662+1032777548+1027203653+1020851784
3369+1013157324+1003593993+992391986+980998244+971649482+966283203+965707106
3359+969560491+976724395+985699191+995019314+1003771823+1011661844+1018529853
3349+1024139787+1028524174+1032119361+1035294594+1037928428+1039655891
3340+1040455168+1040801133+1041190981+1041682756+1042052384+1042290044
3332+1042692011+1043439751+1044329921+1045049086+1045556998+1046015223
3323+1046447933+1046680490+1046599803+1046353597+1046293449+1046684253
3315+1047400676+1048004583+1048227189+1048244857+1048346019+1048474097
3306+1048320952+1047841997+1047430144+1047436905+1047751233+1048086290
3298+1048423389+1048819870+1049054532+1048899026+1048579660+1048561928
3289+1048926198+1049279881+1049315600+1049155055+1049035205+1048968551
3281+1048950054+1049160477+1049617681+1049905666+1049656717+1049135856
3272+1048985773+1049455733+1050149321+1050504215+1050317456+1049781670
3264+1049203340+1048817702+1048724322+1048850487+1049012115+1049019642
3255+1048766355+1048379250+1048259400+1048716987+1049592805+1050429843
3247+1050856686+1050667758+1049875496+1048896921+1048374020+1048575450
3238+1049153588+1049616724+1049912937+1050380921+1051150475+1051859307
3230+1052158071+1052200679+1052252727+1052111318+1051487956+1050751825
3221+1050640522+1051288695+1052121778+1052663879+1052894841+1052861865
3213+1052544284+1052158773+1052108575+1052509458+1053013862+1053159864
3204+1052805607+1052233974+1051832007+1051665148+1051451600+1050982914
3196+1050444832+1050247166+1050599126+1051339914+1052135237+1052718924
3187+1052943763+1052784303+1052371365+1051880675+1051411734+1051075656
3179+1051025012+1051242197+1051502244+1051669422+1051826203+1052085677
3170+1052456517+1052836287+1053000595+1052728365+1052087016+1051497652
3162+1051349481+1051558820+1051644100+1051307192+1050781038+1050464669
3153+1050426973+1050504662+1050666163+1050926848+1051052758+1050787608
3145+1050342395+1050221588+1050556263+1051043892+1051515511+1052043324
3136+1052493958+1052508118+1051993764+1051293288+1050833468+1050789457
3128+1051030944+1051297497+1051431508+1051410204+1051203161+1050774341
3119+1050220121+1049770571+1049650721+1049891570+1050198179+1050143261
3111+1049620870+1048952669+1048467081+1048188281+1048020465+1047964016
3102+1047970905+1047813486+1047361831+1046814947+1046387976+1045941424
3094+1045220091+1044294457+1043526497+1043207067+1043300574+1043478787
3085+1043515781+1043652024+1044252296+1045165555+1045869093+1046165498
3077+1046231450+1046086597+1045504823+1044381586+1042867098+1041193469
3068+1039543567+1038019129+1036651152+1035496917+1034667469+1034148969
3060+1033718171+1033229522+1032839291+1032725755+1032773338+1032795854
3051+1032869780+1033170458+1033626577+1033978346+1034120074+1034185581
3043+1034239733+1034011578+1033113499+1031503717+1029522521+1027477095
3034+1025431541+1023454045+1021840245+1020917353+1020728680+1021122993
3026+1022082050+1023643611+1025518223+1027187069+1028410766+1029239958
3017+1029557602+1029101547+1027931747+1026470647+1025119765+1024171487
3009+1023941291+1024577345+1025770043+1026869233+1027167806+1025988694
3000+1023032751+1019079225+1015907819+1014970194+1016328666+1019068828
2992+1022243998+1025182592+1027536605+1029474109+1031410465+1033329344
2983+1034782727+1035649998+1036380581+1037326243+1038284789+1038916187
2975+1039197220+1039151678+1038401514+1036326811+1032569612+1027155177
2966+1020277217+1012276084+1003814941+995825990+989159475+984259904+981085118
2956+979268229+978444522+978526038+979629757+981714347+984334914+986772931
2946+988358730+988601428+987064616+983358381+977490696+970218359+962859532
2936+956594345+951866162+948415510+945854708+944158818+943618504+944414018
2927+946288057+948623318+950867304+952806211+954377276+955453695+956055816
2917+956592878+957637086+959527773+962252627+965527235+968911169+971983710
2907+974532648+976655508+978691813+980923935+983252627+985256721+986582472
2897+987155954+987062447+986427030+985448711+984396083+983515736+983016626
2887+983158481+984252314+986477484+989687032+993384912+996905408+999723195
2877+1001720719+1003203188+1004616323+1006195743+1007846028+1009303429
2868+1010376277+1011066420+1011519542+1011824684+1011791836+1010986243
2860+1009075274+1006072513+1002188894+997628208+992663642+987811271+983774061
2850+981177923+980341842+981214854+983433901+986433026+989596268+992425153
2840+994554838+995628069+995262905+993305373+990244058+987350496+986157479
2830+987528772+991135376+995810427+1000374940+1004200770+1007201490+1009502180
2820+1011213314+1012459973+1013435550+1014314494+1015156443+1015943538
2812+1016670931+1017360182+1018016902+1018628336+1019190146+1019677456
2803+1020015894+1020180584+1020303942+1020563735+1020974376+1021389483
2795+1021715100+1022036189+1022474960+1022989633+1023394789+1023565794
2786+1023525100+1023370169+1023231949+1023245662+1023448623+1023744581
2778+1023994678+1024066690+1023883694+1023564391+1023406462+1023557375
2769+1023817486+1023919732+1023878336+1023908825+1024121353+1024444419
2761+1024762191+1024989262+1025093358+1025167666+1025370372+1025677683
2752+1025848944+1025787073+1025731900+1025914960+1026232541+1026443857
2744+1026477471+1026381668+1026192484+1025978170+1025817626+1025666649
2735+1025406793+1025045711+1024761043+1024758364+1025090296+1025559173
2727+1025865719+1025922614+1025908390+1026005725+1026232286+1026479959
2718+1026587499+1026462993+1026215638+1026054838+1026063513+1026199820
2710+1026434991+1026738731+1027009877+1027145163+1027140379+1027075574
2701+1027018360+1026959743+1026855711+1026727569+1026670163+1026729036
2693+1026807873+1026761566+1026617924+1026627810+1026979643+1027535393
2684+1027986091+1028178974+1028135474+1027913059+1027642040+1027520659
2676+1027568944+1027569773+1027417776+1027320760+1027478626+1027748368
2667+1027817829+1027600134+1027281916+1027053441+1026980536+1027140124
2659+1027629220+1028295444+1028688162+1028543564+1028147465+1027935574
2650+1027910188+1027776497+1027482963+1027241732+1027107275+1026920962
2642+1026665634+1026549101+1026646244+1026721254+1026572765+1026387153
2633+1026542914+1027118884+1027800735+1028287152+1028591083+1028860188
2625+1029093574+1029190717+1029169030+1029188229+1029384493+1029725418
2616+1030039299+1030220765+1030364215+1030594795+1030860965+1031034522
2608+1031080127+1031007031+1030838769+1030730208+1030884948+1031233400
2599+1031427431+1031322698+1031278878+1031718350+1032485927+1032968517
2591+1032788838+1032085236+1031245200+1030686325+1030659599+1030982155
2582+1031230785+1031282514+1031314215+1031353059+1031267270+1031069412
2574+1030886607+1030744878+1030566347+1030335066+1030215981+1030419389
2565+1030844892+1031090971+1030941907+1030579231+1030265414+1030083885
2557+1029929463+1029605696+1029130377+1028906176+1029254118+1029913645
2548+1030325307+1030222487+1029737155+1029168839+1028772421+1028545541
2540+1028234722+1027690134+1027081761+1026650135+1026473900+1026590178
2531+1027054270+1027729488+1028292382+1028598354+1028763619+1028804696
2523+1028605881+1028325295+1028354699+1028707298+1028887806+1028594655
2514+1028211504+1028309413+1028864142+1029308398+1029338122+1029305783
2506+1029661124+1030352926+1031009710+1031457027+1031804714+1032171153
2497+1032531405+1032810269+1032962203+1032886619+1032447912+1031770781
2489+1031312174+1031357652+1031635431+1031697365+1031464809+1031149780
2480+1030899491+1030762228+1030790101+1030982410+1031259424+1031532611
2472+1031689010+1031604815+1031323145+1031078022+1031017491+1031079681
2463+1031200934+1031389033+1031545368+1031516665+1031339920+1031179056
2455+1031063352+1030911355+1030740477+1030637785+1030622158+1030706480
2446+1030985536+1031478969+1031954989+1032066484+1031631477+1030784807
2438+1029994842+1029844248+1030483364+1031356504+1031742652+1031458558
2429+1030873850+1030457404+1030401529+1030479537+1030339914+1030031964
2421+1029910520+1029984190+1029886026+1029518056+1029200029+1029164629
2412+1029297045+1029353366+1029241744+1029092234+1029068570+1029129038
2404+1029102248+1028962179+1028882767+1029048797+1029455357+1029843227
2395+1029904843+1029614498+1029262155+1029120172+1029185486+1029256478
2387+1029182871+1029018117+1028935134+1029050392+1029363699+1029778933
2378+1030105252+1030155131+1029919832+1029579927+1029330212+1029179810
2370+1028869564+1028181271+1027524167+1027836263+1029510083+1031732638
2361+1033254525+1033627406+1033424254+1033339039+1033440009+1033382986
2353+1032867101+1031761532+1030245832+1028848962+1028133624+1028296847
2344+1029026345+1029763370+1030056904+1029757438+1029164820+1028752712
2336+1028634966+1028645044+1028779629+1029119980+1029463457+1029406689
2327+1028795256+1027868346+1026960572+1026212385+1025668499+1025512929
2319+1025877965+1026497819+1026916688+1027009430+1027070854+1027407443
2310+1027974483+1028443359+1028551792+1028308647+1027891819+1027486662
2302+1027231144+1027159131+1027140507+1026980281+1026606698+1026110777
2293+1025650129+1025365078+1025330826+1025493475+1025662758+1025669073
2285+1025590427+1025705047+1026134058+1026676031+1027118692+1027521999
2276+1027975312+1028268208+1028102497+1027544387+1027002797+1026811062
2268+1027057970+1027693578+1028508610+1029176557+1029611755+1030087265
2259+1030766182+1031462066+1032023238+1032416148+1032282520+1031193280
2251+1029685681+1029173941+1030283018+1031984394+1032958121+1033131294
2242+1033119941+1032884514+1032043649+1031014430+1030695127+1031291316
2234+1032285582+1033168480+1033584033+1033319074+1032659611+1032190799
2225+1032079559+1032135817+1032416658+1033061259+1033741261+1033880438
2217+1033231116+1031972849+1030547658+1029492351+1029130696+1029390999
2208+1030004920+1030734545+1031385589+1031796805+1031837563+1031458941
2200+1030878060+1030592690+1031055252+1032453653+1034713585+1037310552
2191+1039210678+1039524113+1038255512+1036214423+1034389753+1033439052
2183+1033357026+1033561262+1033614586+1033658724+1033802621+1033620263
2174+1032790369+1031580258+1030088030+1027865795+1025049411+1023045890
2166+1023188256+1025250267+1028193390+1031809243+1036288540+1040311654
2157+1041575344+1039864146+1037502669+1036668565+1037481238+1038403172
2149+1037971865+1036126337+1034015277+1032756053+1032666755+1033510108
2140+1034746753+1035565038+1035538823+1035332928+1035894355+1036982702
2132+1037462740+1036924595+1036010506+1035255494+1034497995+1033519930
2123+1032513865+1031639960+1030774474+1030027946+1029856877+1030225294
2115+1030337107+1029690528+1028781159+1028332184+1028401772+1028517540
2106+1028238485+1027589355+1027243390+1027943420+1029510020+1030946245
2098+1031629308+1031813963+1031932346+1031971127+1031588295+1030512003
2089+1028834164+1027085014+1026033088+1026200904+1027238032+1027928431
2081+1027455855+1026515295+1026430463+1027568944+1029360191+1031181799
2072+1032447912+1032636458+1031889419+1030918052+1030125153+1029400694
2064+1028649318+1028048855+1027833265+1027906872+1027848382+1027676484
2055+1028210292+1029896359+1031830865+1032861934+1033018397+1032930311
2047+1032392356+1030790165+1028811584+1028287981+1029940307+1032248523
2038+1033265560+1032883748+1032415701+1032476934+1032403646+1031733340
2030+1031239013+1032088872+1034451369+1037294861+1039459627+1040566790
2021+1040762352+1040020990+1038352974+1036628956+1036111922+1036893468
2013+1037957896+1038822361+1039637329+1039861722+1038647019+1036560324
2004+1035278392+1035614343+1036857494+1037701739+1037379247+1036206897
1996+1035184311+1035054383+1035760345+1036601273+1036928741+1036861385
1987+1036976897+1037207987+1036665121+1035027020+1033652155+1034495507
1979+1037542407+1039798001+1038421606+1034744584+1032794961+1034395749
1970+1037759464+1040260372+1040956702+1040449619+1039532022+1038649570
1962+1038166215+1038353357+1038908214+1038959050+1037850420+1035719523
1953+1033234561+1031097987+1029847947+1029725546+1030485277+1031522661
1945+1032311542+1032635118+1032590278+1032566997+1032992309+1033852181
1936+1034566945+1034474012+1033441986+1031945039+1030607807+1029759989
1928+1029363061+1029181723+1028975892+1028708765+1028699325+1029337101
1919+1030506645+1031516920+1031804459+1031480181+1030829392+1029808210
1911+1028440489+1027181201+1026372802+1025720483+1024803077+1023720789
1902+1022893829+1022586582+1022812696+1023393322+1024023062+1024541435
1894+1025104712+1025957313+1027129599+1028355465+1029241297+1029645688
1885+1029702647+1029416193+1028657291+1027591141+1026644331+1026034747
1877+1025745932+1025804677+1026173158+1026658618+1027251363+1028124822
1868+1028980485+1029081327+1028388569+1027685732+1027542473+1027827142
1860+1028156586+1028418994+1028693584+1028962370+1029132482+1029228796
1851+1029372182+1029507404+1029326577+1028704045+1028058614+1027889140
1843+1028005035+1027922307+1027772925+1028073093+1029047203+1030325945
1834+1031248836+1031538288+1031507991+1031503398+1031438147+1031300884
1826+1031519982+1032266893+1033085561+1033590603+1033835661+1033883372
1817+1033679199+1033279082+1032791772+1032277736+1031878448+1031734552
1809+1031672745+1031341451+1030713114+1030152835+1030016975+1030320587
1800+1030770520+1031038923+1030977371+1030667062+1030413457+1030550784
1792+1030927428+1030870916+1030193848+1029435520+1029046692+1028919826
1783+1028708892+1028401389+1028263233+1028389270+1028609453+1028771273
1775+1028946424+1029352027+1029988910+1030492740+1030704376+1030816380
1766+1030876911+1030837557+1030911929+1031301713+1031718159+1031859568
1758+1031984840+1032304653+1032510612+1032397076+1032317219+1032701199
1749+1033399825+1033874123+1033939948+1033777108+1033535175+1033268430
1741+1033040912+1032810142+1032399564+1031917612+1031912892+1032681808
1732+1033500157+1033808936+1033964314+1034205354+1034394473+1034471652
1724+1034469164+1034273985+1033876228+1033668356+1034128047+1034976758
1715+1035251986+1034819913+1034352631+1034286997+1034577470+1035039139
1707+1035615045+1036193885+1036566192+1036950427+1038051850+1039927419
1698+1041400256+1042080513+1042608709+1042946509+1042736213+1042312559
1690+1042165920+1042247436+1042421758+1043251524+1045260083+1047222973
1681+1047838681+1047613076+1047395828+1047618370+1048276941+1048926900
1673+1049245437+1049586937+1050469198+1051618905+1052154755+1051978201
1664+1051779067+1052074068+1052565269+1052597161+1052056782+1051259992
1656+1050691294+1051255464+1053547798+1055595393+1055950479+1055825972
1647+1056566824+1058252189+1059634389+1060205001+1060476402+1060804635
1639+1061227970+1061964930+1063422204+1065270602+1066618358+1067402711
1630+1068038255+1068726803+1069381036+1069853612+1070118507+1070250668
1622+1069568115+1067730561+1064371693+1058131319+1047036596+1030789910
1613+1009844126+983322661+951371836+918015274+889987039+872423531+866354353
1604+869334598+877026506+884740674+889044119+888651975+884284363+878307544
1594+873895156+873006326+874844071+876917371+877851807+878932309+882759479
1584+890740711+901845065+913343157+922722089+928512467+929691069+927006845
1574+924364337+925627771+933116590+946382457+960336809+970714280+977883797
1564+982919419+985996998+988152006+992065730+998726697+1004683998+1009103147
1554+1013370809+1017771078+1022183594+1026683366+1030961680+1034565414
1545+1037604341+1040478960+1043591047+1047678838+1052761915+1056804611
1537+1058914650+1060239062+1061839021+1063601884+1064533067+1064289412
1528+1063096778+1060765599+1056817814+1050552564+1040114817+1024075237
1520+1005382943+988808088+976691291+970380562+970079374+973803150+978817659
1510+983004443+984785293+981663065+971103490+954804948+934715528+910370885
1500+881840925+851631339+825166834+808817072+803995956+806390154+810758913
1490+812235514+807197022+796768460+785786827+778356561+776499744+780156036
1480+787439662+796246962+805761179+816280506+828824912+844388216+861120490
1470+874854404+884529549+892106710+898828144+903045735+901897686+895810840
1460+888668623+885438854+889697013+897415008+900418471+898604963+896311672
1451+897012978+902403175+911734843+921891812+929532757+932871979+931528559
1441+926059716+916834249+903208002+886547230+872615776+864887894+861655893
1431+861075969+863594992+870252004+880803924+893803046+906866399+917885410
1421+926800249+934598612+940693177+943780962+944463579+944247797+944118507
1411+944635859+946207562+949073251+953359920+958831697+964429831+969036314
1401+972555980+975433533+977838829+979850004+981760973+983624998+985085843
1391+986106324+987319560+989450138+992412396+995280318+997394695+998666676
1381+998927553+997803359+995232608+991836172+988839151+987602698+988778493
1371+992010047+996598415+1001766708+1006600453+1010620442+1014157649+1017736508
1361+1021330802+1024544879+1027280002+1029713810+1031863459+1033546656
1353+1034733358+1035586214+1036068804+1035790833+1034330944+1031631604
1344+1028133624+1024591888+1021761471+1020217834+1020214709+1021518008
1336+1023520061+1025563957+1027117863+1027780197+1027253787+1025454758
1327+1022697949+1019528966+1016156641+1012127722+1006537243+998384687+986952228
1317+972272779+955289005+937613747+921292561+908280555+899595784+895218095
1307+894850571+898183351+904162976+910530855+914818928+916039882+915159471
1298+913842841+912956562+912220686+910940795+908916737+906728243+905229190
1288+904828116+905360841+906646727+908971463+912864012+918497417+925472329
1278+933104726+940721050+947731043+953671059+958289150+961585127+963746193
1268+964913250+964936722+963496032+960523569+956364212+951447930+945861150
1258+939217533+931008400+921263284+910811122+900630680+890866365+880590311
1248+868608417+854685702+840235365+827801816+819593831+816340335+817426450
1238+821853189+828900241+838052867+848616778+859586229+869894239+878703579
1228+885480314+890068937+892908922+895026807+897593221+901405146+906672878
1218+913086873+920036207+926857144+932998526+938122808+942172775+945275613
1208+947506141+948832402+949424509+949992570+951612557+954983926+959811739
1198+964997636+969415892+972456350+974044189+974502350+974476964+974710414
1188+975572391+976545799+975737018+969736662+955002295+931065870+902681784
1179+877385227+860091781+850725989+847051710+848286951+855162742+867495130
1169+882972071+898416800+911710286+922372553+930826871+937636518+943334984
1159+948419018+953128895+957262483+960370296+962295489+963581312+965235168
1149+967951283+971568348+975328991+978600666+981263585+983490222+985370320
1139+986869819+988063155+989225236+990599782+992136084+993575626+994735220
1129+995553314+995917584+995650074+994614158+992654329+989550726+985379888
1119+980957868+977636761+976401902+977004406+977820459+976686890+972530148
1109+966781739+962937922+963978559+969962585+978242965+985656583+990158970
1099+991095894+989201891+986558425+985672912+987883921+992597306+998035469
1089+1002506411+1004896335+1004299954+999968062+992434147+984589540+980488864
1079+982282089+988659663+996545283+1003680803+1009377865+1013761359+1017121757
1069+1019754060+1021917232+1023830051+1025686167+1027581254+1029428376
1061+1031049575+1032407537+1033641184+1034772968+1035562040+1035825149
1052+1035678063+1035207720+1034051443+1031455305+1026591135+1018632290
1044+1006494508+988717451+964187260+933728088+901393155+873894391+857557514
1034+854427249+861146769+872333404+884977058+899028681+914582991+930210079
1024+944164240+955834167+965473146+973351048+979594612+984123342+986380723
1014+986049301+984592602+985018424+989178100+995987555+1002948435+1008564491
1004+1012431589+1013628433+1010499252+1002933700+994330319+989776394+991642970
994+997817264+1004485056+1009502818+1012853712+1015343905+1017758704+1020538540
984+1023547807+1026267494+1028264190+1029253289+1028973723+1027624627
976+1026393468+1026841997+1029460970+1033147814+1036140753+1037164423
967+1035878345+1032773211+1028732237+1024510181+1020619929+1017617040
959+1016119200+1016358709+1017948781+1020343106+1023392302+1027151732
950+1031267270+1034944292+1037469629+1038444122+1037689174+1035462282
942+1032833295+1031413782+1032352746+1035548773+1039914280+1044324627
933+1048178139+1051285633+1053662354+1055454048+1056821131+1057865913
925+1058674185+1059302457+1059759470+1060049879+1060074117+1059472314
916+1057672775+1053836931+1046499216+1033875016+1015675964+995095663+978298266
907+970882224+974326306+985693131+1000260001+1014123270+1025067525+1032108581
897+1034628114+1031838392+1022971773+1008139243+989479734+971312702+957915376
887+950622629+948052834+949109289+954045663+962436261+972118231+980987528
877+988722490+996211246+1004047625+1012006533+1019526351+1026207984+1031917293
867+1036765645+1041053016+1044986003+1048417712+1051022779+1052654885
858+1053362888+1053060616+1051297880+1047603445+1042232829+1036275783
850+1030630960+1025029127+1018293980+1009257058+996948015+979807204+955396353
840+922542601+885047539+852362560+834490720+835318318+850905924+873550148
830+896627722+916300568+930641323+938429354+939157385+934356042+928286225
820+925782511+928573955+934332888+939734630+943658879+946981326+950292801
810+952983531+954284023+954186370+953106570+951248860+948792091+946689769
800+946856819+951039202+959349241+970164207+981463931+991993272+1001394719
790+1009804708+1017364647+1023891348+1029079031+1033020310+1036306081
782+1039593893+1043190292+1046913047+1050195437+1052483370+1053708916
773+1054271938+1054428273+1053901736+1052363328+1050074183+1047610908
765+1045136661+1042436747+1039346793+1035270675+1028059762+1013669063+987454527
755+947414738+898129326+851267133+819809421+810082803+819075777+838706526
745+861503641+882850754+900525628+914080883+924512826+933592355+942959870
735+953482386+965015241+976615515+987232623+996437807+1004361187+1010898285
725+1015297087+1016213026+1011280479+997414787+974284719+948258282+930124035
715+927127014+937817665+954551342+969991543+980724355+986151164+986294678
705+980953722+969599016+951570332+927078347+898557954+870815791+849395326
696+838239435+838021485+846246436+859183815+873975907+889389255+905184797
686+921159316+936760636+951178124+963625004+973905332+982723219+991011572
676+998903251+1005599745+1010340876+1013393453+1016029392+1019643267+1023944671
666+1027197529+1029284798+1031233400+1033709369+1036695546+1039801765
657+1042608709+1044733993+1045927137+1046251096+1046084556+1045876046
649+1045820681+1045614531+1044397723+1040977496+1034340257+1024446652
640+1013121733+1004064783+1000924376+1004583921+1012431717+1020367152
632+1025111983+1024817747+1018996115+1008660422+995837408+982525361+970343567
622+960804729+955211635+954478756+959149278+968699024+980879350+992941932
612+1003505652+1012591177+1020355033+1026646627+1031495553+1035142086
603+1037577871+1038678018+1038768017+1038525064+1038313428+1038022573
595+1037462103+1036534619+1035198662+1033573955+1031901602+1030197803
586+1028135601+1025337013+1021690862+1017477034+1013309066+1009858414
578+1007549878+1006482261+1006401957+1006658688+1006382822+1004904244
569+1002300070+999690091+998634529+999964809+1003310473+1007579666+1011534403
560+1014032186+1014185906+1011551689+1006173100+998465182+989155137+979307520
550+969991161+961605091+953922751+946974437+941150444+936443629+932814764
540+931292431+933200977+938188378+944440042+950853017+957651183+964926389
530+971815384+977116156+979967047+980270723+978893753+976929333+974724127
520+971665747+966155125+956008233+940378977+921754294+905460089+896874120
510+898162812+906686783+916294381+920732410+917278377+908638830+901719665
500+902381425+910640373+921990486+931622513+936534458+934967858+925578529
490+908804413+888981739+873545684+868946663+876254528+890501393+905130389
480+916763512+925371295+931706325+936203546+939721682+943610531+948383809
470+953355902+958134347+963135461+968556084+973978237+979003589+983681766
460+988273897+992642529+996166852+998930551+1001973368+1005291732+1007548475
450+1008747360+1011051813+1015565299+1020442800+1023269900+1023528544
442+1022061001+1019755655+1017116272+1014449270+1012340889+1011261790
433+1010402556+1008611500+1006778985+1007077749+1009542300+1011447274
425+1010250239+1006215835+1002565092+1003710080+1011941601+1022991291
416+1030513916+1034765888+1039095867+1044591691+1049449227+1051254443
408+1049653272+1046896845+1045337581+1044483895+1042373346+1040053010
399+1042047919+1049560020+1055643231+1056093036+1056085127+1059165258
391+1062277281+1062727851+1062934256+1066031928+1070118507+1073741823
382+1071062383+1065176520+1058871213+1053278757+1051134274+1057280631
374+1070118507
##END=
