##TITLE=ZZ-43
##JCAMP-DX=4.24
##DATA TYPE=INFRARED SPECTRUM
##DATE=16/8/2017
##SAMPLING PROCEDURE=Diamant-ATR
##ORIGIN=Angelika Moesle
##XUNITS=1/CM
##YUNITS=TRANSMITTANCE
##RESOLUTION=4
##FIRSTX=3997.453
##LASTX=373.96442
##DELTAX=-1.4165319
##MAXY=0.95575702
##MINY=0.5674932
##XFACTOR=1
##YFACTOR=8.9011809e-010
##NPOINTS=2559
##FIRSTY=0.87360585
##XYDATA=(X++(Y..Y))
3997+981449378+981316926+981334337+981536698+981691114+981514265+981072513
3988+980725713+980692433+980831715+980847652+980657612+980519201+980716138
3978+981184742+981624419+981880551+981963451+981841646+981574866+981451387
3968+981603459+981751581+981699015+981680734+981893609+982130254+982188847
3958+982128982+981967937+981676583+981448977+981490293+981688569+981768121
3948+981578951+981190032+980919369+981137667+981764705+982254202+982344736
3938+982237328+982112242+982054185+982259492+982889477+983690417+984115027
3928+983901751+983308596+982876821+982870995+982872133+982375137+981597031
3918+981345386+981962915+982657652+982580578+981945237+981470070+981289874
3908+980900553+980116688+979605496+980209365+981730755+983161144+983973736
3898+984091456+983488323+982465871+981805218+982387927+983992820+984816393
3888+983915612+982434466+982077689+983010277+983967240+984640282+985358121
3878+985553451+984837553+983881863+983271432+982785417+982431318+982958716
3869+984059314+984445286+984223439+984574256+985640301+986124508+985341849
3859+983712983+981777227+980130416+980358624+983883872+987221021+987157273
3849+985008710+982685308+981328042+981274740+982048694+982796533+983192550
3839+983626534+984316383+984853691+985012862+985073731+985289685+985500149
3829+985442427+985167612+984675102+983607651+982179539+981988762+984004271
3819+985978195+986432402+986744381+987675496+988017475+987120108+985525594
3809+984029649+983437030+983881930+984251831+983993623+984127549+985282587
3799+986181761+986196627+986082255+986098058+985718982+984875856+984140874
3789+983928000+984143084+984542516+984970608+985249574+985353969+985608427
3779+986216180+986692753+986485571+985728357+984906123+984535820+985030808
3769+986119754+986897257+987192830+987531058+987802926+987442868+986517177
3759+985676997+985243816+984873178+984240381+983436494+983212504+984858379
3750+987641881+988684021+987572575+986391689+987116225+988663061+988821093
3740+987360638+985136006+983425981+983628409+985699429+987732147+988488423
3730+988230751+987686210+987440792+987685005+988220505+988843593+989413712
3720+989671786+989507728+989006713+988117048+986866856+986048305+986937635
3710+989134746+990694841+990929344+990229317+989105617+988143900+987808752
3700+987892857+987824756+987420369+986872949+986383319+985957102+985665011
3690+986119017+987757927+989381302+989725959+988954884+987783440+986780206
3680+986133146+985732375+985927169+987817055+990590915+991316321+989985640
3670+989110506+989962337+990712519+990162689+989200035+988728886+988628576
3660+988299119+987715272+987593065+988309164+988926090+988573867+987865737
3650+988370769+990754170+992683229+992455021+991162441+990006867+989455430
3640+989343000+989173651+988701096+988172694+987994239+988250438+988723529
3631+989536723+991129764+992599392+992391942+990929746+989315009+988251107
3621+988270660+989560026+991093068+991651335+991494777+991352816+991123000
3611+990435227+989804171+990046844+990859569+991205565+990773723+990028697
3601+989554736+989589623+989957315+990423643+990940661+991395605+991350138
3591+990520404+989384651+988999482+989623238+990046509+989689531+989240011
3581+989413244+990296280+991342236+991775216+991239247+990074232+988763773
3571+987431819+986292116+986263054+988087718+990348511+991116505+990638794
3561+990119364+990116150+990391099+990587433+990581741+990325542+989820979
3551+989194008+988618397+988347266+988715359+989662077+990489065+990688011
3541+990457994+990156596+989896513+989695893+989630336+989731450+989910776
3531+990077044+990236281+990366189+990284226+989888209+989463800+989456100
3521+989938298+990515850+990723836+990428933+989931400+989625113+989581989
3512+989694085+990020394+990548260+990891778+990844570+990858364+991371766
3502+991915503+991687830+990755442+989905352+989701518+990051866+990494422
3492+990664105+990532993+990382862+990459802+990656271+990735287+990750085
3482+990949902+991389043+991888450+992291431+992517162+992534706+992467677
3472+992536983+992730170+992701376+992159783+991239917+990358890+989848702
3462+989870531+990416210+991148647+991523839+991390918+991270452+991644907
3452+992141971+991966328+991069564+990288311+990205344+990469244+990601629
3442+990714662+991044185+991462099+991799122+992161189+992632606+992977731
3432+992887064+992398504+991913427+991801064+992032219+992228352+992117194
3422+991911083+992062486+992602807+993051792+993123911+993077773+993203328
3412+993343213+993169646+992737536+992485020+992679614+993083733+993291451
3403+993188329+992917800+992656712+992574884+992710416+992845547+992816418
3393+992770348+992841730+992955500+993129401+993426649+993569346+993212100
3383+992600062+992383907+992838047+993639925+994293614+994569835+994588919
3373+994571576+994575794+994484926+994131296+993455911+992697359+992314533
3363+992508189+992969562+993268751+993344084+993474393+993862040+994321135
3353+994494435+994385888+994355487+994474882+994363255+993880253+993458724
3343+993456648+993694097+993880521+994057169+994361916+994690836+994842707
3333+994835274+994860988+994958084+994890585+994417361+993619702+992885189
3323+992547697+992584125+992714970+992766397+992797870+992905411+993125986
3313+993532851+994149711+994758267+995054778+995033952+995022770+995328387
3303+995916788+996408293+996404410+995881632+995204707+994730277+994541643
3293+994575125+994762888+994956343+994934580+994677912+994460351+994512581
3284+994753714+994991029+995156360+995203703+995034555+994712130+994512381
3274+994590727+994780499+994879068+994954200+995178860+995467134+995539989
3264+995358319+995228680+995400104+995801813+996230709+996582128+996824332
3254+996912857+996819109+996603824+996429588+996487376+996860358+997374631
3244+997613152+997267022+996518045+995890204+995711012+995907346+996280194
3234+996704402+997054349+997169257+996946606+996440034+995928104+995802616
3224+996188120+996783284+997261531+997657146+998122403+998534625+998638752
3214+998383490+997930555+997544180+997522485+997945086+998470943+998686027
3204+998594891+998516612+998639488+998886178+999081843+999115057+998979457
3194+998709665+998373245+998163451+998271863+998578820+998755936+998706183
3184+998579088+998436123+998271930+998196664+998268716+998349071+998337219
3174+998339629+998446837+998559803+998517549+998288470+998020686+997948233
3165+998204499+998674643+999087535+999326190+999559755+999933541+1000224761
3155+1000043694+999365631+998662992+998463510+998855777+999420674+999622098
3145+999291369+998747231+998468064+998633796+998976511+999112579+998990506
3135+998851023+998797855+998704710+998551030+998521098+998723258+999046353
3125+999288825+999297932+999047960+998657434+998283314+998033476+998010307
3115+998279966+998701496+998955217+998882495+998681942+998634265+998755601
3105+998879080+998926557+998893879+998709598+998335143+997863793+997381327
3095+996890826+996425637+996058949+995800742+995597912+995354235+994917839
3085+994180514+993202726+992123757+991030994+989996823+989144389+988572595
3075+988209925+987770115+986952367+985722598+984300714+982863227+981403107
3065+979875422+978371040+977154128+976524344+976548451+976956521+977358632
3055+977528650+977520146+977611817+978079886+978919932+979856003+980647903
3046+981284784+981916376+982704124+983673073+984667067+985538987+986314414
3036+987054083+987684269+988093544+988246956+988088991+987533737+986731591
3026+986165623+986239349+986861164+987651390+988424406+989194008+989870330
3016+990300766+990513774+990657744+990813298+991033270+991374445+991739927
3006+991940145+992041125+992387857+993151164+994091788+994881211+995408608
2996+995709471+995848553+995942300+996073815+996191000+996278587+996512353
2986+996993882+997503467+997768706+997800312+997756854+997706699+997703819
2976+997866338+998219766+998631252+998983877+999290767+999597723+999858409
2966+999923162+999688659+999282262+999014747+999079165+999387728+999698301
2956+999758300+999398643+998726941+998175906+998111421+998408467+998598708
2946+998432239+998151398+998193383+998692991+999327663+999660735+999575693
2936+999296458+999045014+998837965+998647658+998599980+998859059+999350162
2927+999764527+999886399+999751670+999454490+999049098+998708125+998678929
2917+998965596+999287820+999433598+999433263+999372997+999278512+999228090
2907+999393956+999849369+1000394244+1000691826+1000616761+1000387280+1000283621
2897+1000350718+1000460738+1000514442+1000470782+1000353999+1000313889
2888+1000479219+1000701401+1000676826+1000386878+1000163290+1000258042
2880+1000555423+1000763543+1000731735+1000542834+1000407234+1000504799
2871+1000863451+1001343506+1001750973+1001992307+1002130786+1002258282
2863+1002314732+1002139290+1001748898+1001416026+1001374978+1001598299
2854+1001933781+1002272545+1002489705+1002457965+1002260157+1002200159
2846+1002478589+1002942707+1003212232+1003068262+1002742757+1002731708
2837+1003225156+1003873421+1004237296+1004263746+1004175623+1004127745
2829+1004152320+1004253568+1004398810+1004496977+1004453250+1004220354
2820+1003848109+1003509479+1003403611+1003559969+1003810677+1003985851
2812+1004037345+1003947682+1003681439+1003313680+1003059624+1003047906
2803+1003153439+1003166229+1003083664+1003114266+1003371335+1003686260
2795+1003820052+1003757442+1003676618+1003713246+1003879448+1004126406
2786+1004404903+1004699606+1004999665+1005236311+1005329590+1005277493
2778+1005094886+1004750765+1004289192+1003916076+1003830900+1004030448
2769+1004337271+1004590658+1004750430+1004818799+1004752037+1004565814
2761+1004451643+1004630099+1005091203+1005569383+1005777570+1005659716
2752+1005420994+1005299256+1005341978+1005432980+1005429164+1005261556
2744+1005056182+1005077342+1005372312+1005641301+1005662394+1005588401
2735+1005631659+1005757080+1005846475+1005874666+1005821163+1005635007
2727+1005352090+1005128167+1005136537+1005424677+1005831140+1006095643
2718+1006131668+1006109303+1006225215+1006492195+1006792121+1007022472
2710+1007148630+1007189209+1007189276+1007188272+1007209968+1007273180
2701+1007356281+1007359562+1007166040+1006737412+1006163409+1005639895
2693+1005357380+1005351621+1005523313+1005811319+1006214434+1006650964
2684+1006976268+1007136108+1007160348+1007092649+1007057092+1007241574
2676+1007682188+1008183470+1008518016+1008597366+1008452928+1008174096
2667+1007858635+1007557035+1007289519+1007130751+1007191888+1007461881
2659+1007726651+1007745133+1007494224+1007166241+1006948613+1006881114
2650+1006904149+1006963679+1007075708+1007301773+1007649644+1007999256
2642+1008138940+1007926870+1007470787+1007099211+1007072962+1007375834
2633+1007808212+1008138003+1008189363+1007971065+1007658751+1007290457
2625+1006665294+1005690117+1004609407+1003757375+1003240691+1002902061
2616+1002521044+1002096902+1001890658+1002099179+1002607559+1003183304
2608+1003750076+1004371958+1005100913+1005891607+1006632080+1007269966
2599+1007845644+1008362930+1008758411+1009047087+1009343531+1009731512
2591+1010228978+1010808070+1011334932+1011596622+1011497652+1011153397
2582+1010778674+1010561514+1010598410+1010836998+1011112081+1011292143
2574+1011357365+1011362186+1011435376+1011765837+1012380554+1012978597
2565+1013222877+1013173592+1013179753+1013376824+1013579988+1013665968
2557+1013721681+1013785095+1013774649+1013735609+1013819313+1013960738
2548+1013920627+1013691347+1013552735+1013711503+1014113145+1014565009
2540+1014921585+1015236711+1015719712+1016376281+1016843077+1016829283
2531+1016508197+1016180281+1015867766+1015581099+1015595630+1016001290
2523+1016334965+1016180549+1015834821+1015876940+1016350634+1016817765
2514+1016976534+1016876960+1016701920+1016577302+1016490318+1016304631
2506+1015886181+1015215015+1014418896+1013752082+1013464411+1013637375
2497+1014163099+1014789869+1015176377+1015106134+1014734357+1014485926
2489+1014674961+1015250907+1015840245+1016025731+1015647392+1014866675
2480+1014023616+1013468429+1013309660+1013248389+1012917460+1012375398
2472+1011995787+1011993711+1012340041+1012881501+1013276447+1013140245
2463+1012509725+1011923534+1011902039+1012522916+1013462335+1014292872
2455+1014804065+1015107540+1015337088+1015325838+1014838283+1014052945
2446+1013505861+1013535123+1013999844+1014569562+1015120330+1015727882
2438+1016342665+1016684644+1016613529+1016426570+1016535384+1016950351
2429+1017303311+1017267687+1016796873+1016106086+1015584180+1015573734
2421+1016088140+1016803770+1017345899+1017502860+1017226103+1016628462
2412+1016010196+1015717636+1015878413+1016313470+1016738481+1017011823
2404+1017147288+1017161283+1017087089+1017098807+1017340475+1017607255
2395+1017522212+1017073696+1016669979+1016659131+1017044702+1017609464
2387+1018122197+1018468863+1018666135+1018739927+1018696803+1018620131
2378+1018573994+1018386030+1017826155+1017095526+1016757365+1016984033
2370+1017246393+1017094857+1016872273+1017080460+1017404023+1017203403
2361+1016721205+1016843680+1017795754+1018831264+1019216902+1019050098
2353+1018960234+1019203309+1019448593+1019396228+1019159515+1019054384
2344+1019176256+1019374800+1019723140+1020455912+1021341760+1021732152
2336+1021385822+1020731463+1020153843+1019508056+1018577878+1017555359
2327+1016730915+1016153429+1015907609+1016290568+1017338333+1018485335
2319+1019139493+1019335962+1019488570+1019803897+1020193954+1020536669
2310+1020804653+1020987126+1021007483+1020803247+1020495085+1020298616
2302+1020203931+1019990789+1019680351+1019650016+1020088756+1020639590
2293+1020841081+1020720012+1020653652+1020759252+1020744521+1020329017
2285+1019555934+1018756132+1018377392+1018602453+1019000077+1018991037
2276+1018693455+1018716424+1019184693+1019628588+1019744902+1019693810
2268+1019732983+1019913046+1020111322+1020194891+1020104626+1019853047
2259+1019587272+1019561023+1019830882+1020186990+1020606444+1021353010
2251+1022413832+1023353719+1023893974+1024222091+1024672950+1025318135
2242+1025856113+1025921334+1025570517+1025252712+1025186687+1025067092
2234+1024582082+1024005667+1023963615+1024566345+1025072650+1024735292
2225+1023763129+1023018437+1022936542+1023237807+1023604494+1024111535
2217+1024849731+1025506099+1025739865+1025786204+1026205323+1027034052
2208+1027587030+1027203668+1026041465+1025029526+1024922252+1025543330
2200+1026319427+1027186057+1028211858+1028766107+1028155475+1026780063
2191+1025655827+1025277020+1025678461+1026727564+1027711647+1027817180
2183+1027550803+1028238241+1029697156+1030199576+1029002419+1027061842
2174+1025270190+1023822792+1023223544+1024057563+1025770467+1027124853
2166+1027982645+1029542472+1032609628+1036341924+1038914360+1039136275
2157+1037273508+1034432753+1031756390+1030211697+1030329350+1031878932
2149+1033850513+1034831649+1033922832+1031680053+1029742958+1029172370
2140+1029540999+1029846616+1029799676+1029818492+1030131609+1030387808
2132+1030081387+1029025722+1027495826+1026141106+1025618864+1026109298
2123+1027251145+1028532341+1029564302+1030079178+1029977796+1029449260
2115+1028900100+1028639012+1028500199+1027929744+1026855664+1026226483
2106+1026971375+1028564215+1029420868+1028754456+1027458930+1027054811
2098+1028033670+1029459706+1030308056+1030710032+1031274393+1031829982
2089+1031772595+1031106317+1030289172+1029558074+1029069917+1029151343
2081+1029867442+1030821257+1031750900+1032903460+1034409918+1035647120
2072+1035878342+1035367953+1035013854+1035034077+1035051086+1035167467
2064+1035702230+1036202240+1035973295+1035144833+1034326617+1033759979
2055+1033273630+1032569652+1031517066+1030565862+1030482761+1031237162
2047+1031804938+1031604117+1031044712+1030235803+1028629905+1026525873
2038+1025404316+1025908946+1026905752+1027392704+1027928539+1029089336
2030+1030165158+1030535863+1030671797+1030823534+1030433812+1029811126
2021+1030622111+1033440567+1036236994+1036728566+1035440272+1034722969
2013+1035589666+1037256567+1038673496+1039173908+1038451247+1036990926
2004+1036103805+1036711424+1038247881+1039140225+1038415958+1036720330
1996+1035709864+1036574284+1038984470+1041216602+1041877657+1041412736
1987+1041014442+1040897459+1040570145+1039856056+1038856103+1037854074
1979+1037872154+1040033574+1043657524+1046345069+1046334623+1043806114
1970+1040392560+1038091858+1037943536+1039275021+1040805184+1042173632
1962+1043618753+1044926332+1045481050+1044870150+1043005576+1040158325
1953+1037053469+1034468511+1032709670+1031739248+1031544655+1032045133
1945+1033078835+1034762745+1037100477+1039104601+1039608495+1038798180
1936+1037851262+1037374153+1037024675+1036697630+1037003917+1038215338
1928+1039606352+1040301290+1040242095+1039940830+1039621821+1039033688
1919+1038022016+1036691268+1035008163+1032866430+1030605102+1028889185
1911+1028053826+1027915883+1028360381+1029610238+1031630166+1033775515
1902+1035287196+1035984946+1036318621+1036802426+1037543033+1038226989
1894+1038507295+1038424127+1038295224+1038299911+1038400690+1038559458
1885+1038676643+1038489483+1037923046+1037322592+1036987042+1036776712
1877+1036413708+1035845999+1035152266+1034402017+1033733730+1033355056
1868+1033278317+1033265594+1033380167+1034066668+1035508373+1037261723
1860+1038693919+1039677734+1040488719+1041177563+1041529921+1041596280
1851+1041804266+1042356976+1042875133+1042927230+1042636076+1042449719
1843+1042474227+1042438068+1042103656+1041312627+1040091028+1038790680
1834+1037793071+1037288508+1037504663+1038555106+1039858466+1040739962
1826+1041395326+1042229948+1043048298+1043477662+1043561165+1043543955
1817+1043526947+1043479336+1043442306+1043593441+1044068742+1044680847
1809+1044976085+1044685400+1043886268+1042813862+1041737170+1040861834
1800+1040138772+1039304686+1038300179+1037414866+1037113267+1037933760
1792+1039945451+1042024172+1043146599+1043600271+1044107915+1044913609
1783+1045697674+1046187573+1046457901+1046613924+1046635888+1046550510
1775+1046520243+1046736064+1047151299+1047463881+1047657871+1047917753
1766+1048098084+1047865322+1047091769+1045873585+1044433822+1043022250
1758+1041815583+1040907235+1040238546+1039676998+1039254397+1039159243
1749+1039377541+1039547224+1039512069+1039503832+1039769339+1040365976
1741+1041221491+1042106937+1042705650+1043064101+1043744308+1045158491
1732+1046500958+1046987107+1046952420+1046759635+1046536850+1046458906
1724+1046635687+1046844409+1046819298+1046808718+1047635171+1049673179
1715+1051587506+1052380611+1052514938+1052520764+1052565830+1052662993
1707+1052796114+1052831538+1052541991+1051949774+1051484451+1051602506
1698+1051960689+1052061936+1052222647+1052664935+1053201841+1053885931
1690+1054845774+1055776420+1056307367+1056768739+1057959402+1059560143
1681+1060446862+1060656522+1060660942+1060779332+1061115886+1061483042
1673+1061675560+1061870220+1062442683+1063322572+1063926642+1064140856
1664+1064303977+1064614549+1064918091+1065031659+1064978692+1064802580
1656+1064683387+1065341763+1067448675+1069145709+1069327446+1069201891
1647+1069836496+1071322195+1072512925+1072979989+1073134137+1073237193
1639+1073355449+1073582720+1073741823+1072999274+1071221216+1069200619
1630+1067586819+1066892886+1067255756+1068130824+1068909800+1069269456
1622+1068920313+1067716191+1065344777+1060544427+1051552619+1037963424
1613+1019507185+994968664+964785997+932245174+901211278+874436004+855134831
1604+847315471+852559850+867325109+885355600+902182370+916152850+927121328
1594+935604421+942239011+947005076+948750524+945462257+935488576+919413796
1584+901399912+888121290+884474907+890613974+904662666+924413761+942487576
1574+951532553+952976669+950116360+945326323+941792504+940918508+940859916
1564+939362899+935760444+930001457+920158621+906519472+897820893+896330171
1554+900698010+910946907+926436903+944260412+959638312+969969909+976531241
1544+981479980+985872595+991266836+999263111+1006515364+1010986995+1014753174
1534+1019987508+1026534913+1031798041+1034915821+1037146011+1039417919
1526+1041532465+1042670830+1041683868+1037463146+1030712242+1022564498
1517+1012699765+1001775214+991619327+982903941+975662803+970041626+964227395
1507+952341930+934852900+922190200+915344209+911328125+907906871+901325449
1497+885114065+857139558+824560834+792789479+761146022+730214914+708395678
1487+702780058+709025193+721472139+738948916+761353138+786319684+810786019
1477+833935200+856301789+878506528+901103669+921464392+935352642+942957855
1468+945382705+941834356+934358849+930748760+935000284+944402975+956534393
1458+970827767+983387880+990019121+992745237+994040495+994918710+996079641
1448+998106733+1000615689+1002411627+1002859071+1002346740+1001891930
1439+1002732043+1006104415+1011933511+1017477280+1020800903+1022217698
1431+1021297833+1016337576+1006842812+993857151+977866945+958858599+936857091
1421+911704322+887416441+876385621+884201231+901879833+921238326+939180493
1411+954575670+966951769+976691081+985219776+993834853+1002048020+1008582501
1401+1013384926+1017032380+1019573210+1020692625+1020321585+1018905258
1392+1017295008+1016127715+1015614112+1015684624+1015774688+1014838551
1384+1011718293+1004647978+990949299+968870717+940219284+910191770+885361760
1374+872105504+873073248+885583540+905831833+929987864+952764063+970262267
1364+981997869+988178921+987930557+980841894+967741660+949851055+928234849
1354+903784049+877910226+852931024+830799072+810903338+789553309+762998476
1344+731257254+698178319+668672243+647341365+637548215+639124582+649033310
1334+664552099+684112418+706517108+730395244+754156731+776316338+795844046
1324+812289665+825791272+836764304+845060438+849474547+849014447+845120838
1315+841802572+843060331+850107009+861381573+874998892+889943544+905204996
1305+919011350+928932131+932310730+927062936+912792732+891625109+868103081
1295+847656980+834280058+829303261+832017323+840693202+852534069+863326838
1285+868546039+865448548+854097982+836811714+817088408+798588978+783494531
1275+770540477+755710532+737202598+719871331+712177325+717649377+731036813
1265+743365235+750038195+754052336+761806207+776265513+794775322+812937596
1255+828497366+841326200+851803708+860249302+867197210+873358107+879086626
1245+884144848+888099393+890514869+890872918+889492216+888740226+891816221
1235+899671807+910146168+920300448+928609438+934923009+939453232+942273631
1225+943331707+942664492+940776413+938764521+937727940+937793362+937373975
1215+932758242+918901264+893179446+860272404+831521264+816464182+814908306
1205+818687810+820952620+822325019+827982290+840746237+858343546+876306538
1196+891744972+904187030+914188836+922182633+928423215+933289456+937346521
1186+941171024+945056932+948899516+952449807+955593368+958304952+960522018
1176+962146464+962957716+962413779+959705542+954493573+948074134+943446749
1166+943246866+947266498+951981939+952360211+945259896+932814289+921675994
1156+917022225+918187978+921489905+925153899+929252346+932495547+931862282
1146+926108786+918947535+917238314+924745561+938450333+952071669+961897497
1136+968099642+972244294+975407743+977992969+980066132+981610691+982531495
1126+982518906+980899615+976306448+967159755+954160836+942237538+937760149
1116+942919084+954037826+965531157+974218352+979921626+983701733+986433942
1106+988468401+989923566+991042444+992080499+992678609+991546941+987508492
1096+981286258+975445978+971637278+968300798+961870846+950377515+936262530
1086+925959258+925476458+935191663+949640457+962737409+972007046+978017678
1077+982033293+985043129+987689893+990198380+992491783+994486868+996247047
1067+997897810+999439691+1000764145+1001851484+1002754810+1003465953+1003966164
1057+1004271380+1004370150+1004229126+1003607177+1001452387+995523047+983441918
1047+965719657+948146588+938609503+939362565+944330388+945810530+941329257
1037+932790384+923246067+917000128+918794391+929551736+944894414+959395104
1027+970598219+978612105+984159222+988000533+990930081+993408301+995440817
1017+996936160+997974415+998738593+999390407+1000036529+1000723633+1001466851
1007+1002304286+1003265132+1004307339+1005398294+1006584671+1007810087
999+1008755800+1009114050+1009003160+1008919992+1009249582+1009933605
990+1010626468+1011095876+1011406716+1011750904+1012174778+1012453007
982+1012159041+1010968446+1009112711+1007488331+1007068810+1008175569
973+1010383260+1012889604+1014818663+1015518021+1014967789+1013829156
965+1012878689+1012252454+1011136388+1008426411+1004162900+1000211771+998959369
955+1001243129+1005867702+1010962955+1015339632+1018594485+1020538477
946+1020815903+1018513192+1011875656+999704529+984215270+971194387+965477118
936+967148371+973420426+982361945+992881774+1002972707+1010487989+1014966182
926+1017270165+1017868275+1015944171+1010003581+999854324+988097696+978401909
916+972341725+969675742+971132915+977994576+988834954+999537457+1007122381
907+1011695526+1014730004+1017207086+1019392210+1021172613+1022457090
898+1023527286+1024763416+1026139298+1027399065+1028498257+1029518165
890+1030347631+1030590236+1029494058+1025765579+1017564131+1003174331+982435135
880+957596019+932222742+909699929+893783851+889307131+899348311+921160650
870+946881396+968926966+983923848+992216768+995379480+994210044+988251643
860+977674695+965903804+958909223+960673219+969930535+981924679+992588210
850+1000534664+1006102808+1009792381+1011672491+1011672223+1009890482
841+1006156712+999731448+990927202+983134493+981069232+985935540+993984782
832+1000877647+1005887255+1010833315+1016576298+1022157164+1026585804
823+1029953020+1032743553+1035065014+1036877826+1038377454+1039795388
815+1041097744+1042142361+1043009192+1043948209+1045033472+1046129918
806+1047168709+1048147234+1048969334+1049608426+1050203790+1050829087
798+1051496571+1052354831+1053534444+1054942535+1056194200+1056193999
789+1052669823+1042391462+1022352896+992458034+958663001+932296668+923759737
779+935814349+962451613+993328147+1019741822+1038155473+1049424948+1055700284
769+1058498451+1058654608+1056608966+1052064079+1042807835+1023491327+986915605
759+929396182+856822624+784961213+731965451+709178538+717156733+747108111
749+785150851+818755509+842088302+854733725+856075120+843212202+813420329
739+767444862+712901459+665209271+640885967+646374894+673406768+705538784
730+730213842+746915058+764036933+787643602+815274055+840662801+860552174
720+875601957+887575612+897122473+903281160+904995068+903713203+903694185
710+908655848+918486899+929880657+939769162+947352545+953337397+958540995
700+963357550+967714540+971324830+974204290+976754763+979270214+981608816
690+983255896+983337591+980580739+973677428+962496946+949738490+940916298
680+940998127+950309949+964271925+977318923+986433541+991151392+990924523
670+980910195+950372091+898147537+842961360+796804893+763775243+751676368
660+765236300+797874889+837008048+872317775+899153048+918191929+932323453
650+943609736+952805580+960254100+966236139+971041779+975125629+978716232
640+981361457+982527544+982625644+983026884+984948845+988246822+991411274
630+992631266+990433955+984213060+975884516+970344765+971759217+979155373
620+986278522+984955809+970040286+944318201+918144921+902127126+900637408
611+911409552+927972155+941116249+940655077+921810254+893619993+876516064
601+884996077+913544388+944302531+965761977+978082765+985325443+989918945
591+992796128+994430619+995172431+995417581+995645522+996395102+997941001
581+999879770+1001572451+1002926971+1004146628+1005118658+1005666211+1005975110
571+1006271821+1006412108+1006250996+1006266062+1007050864+1008204430
562+1008538908+1007262734+1004484656+1001285315+999515426+1000018383+1000895526
552+999381300+995535101+992416785+992475846+994907393+996883125+996262181
543+991645978+980419962+959788978+931469814+903764764+887040714+886777283
533+900647788+921211407+941139954+957155003+969912321+980763882+989454359
523+995195265+998398490+1000316567+1001585576+1001538836+999263982+995084107
513+990821936+989008990+991365606+997370613+1004294147+1008974098+1009553325
503+1004890047+993658406+976906098+960780360+953532861+958858666+972594576
493+987085824+997673017+1003963887+1007223829+1008662521+1009379222+1010254691
483+1011347187+1011855969+1011165651+1009734860+1008890060+1009817760
475+1012624298+1015977317+1017877047+1017758724+1016987114+1017041487
466+1018214070+1019475512+1019228420+1015721721+1005905402+985941231+958926164
456+938721397+933093256+934673440+933391976+927514867+921976924+919857088
446+920017129+920941548+923303320+928756756+938074338+950781969+965136077
436+978082230+987213789+992942643+996879375+999543149+1001109940+1002833558
426+1006203720+1011091456+1015601523+1018135925+1018561338+1017741649
418+1017743323+1019849297+1022739203+1024290794+1022544141+1016206865
409+1005334880+992239200+981806289+978667818+983169715+991830126+1001204023
399+1009056194+1012763245+1011227390+1007934101+1006156244+1006394765
391+1007783302+1008852092+1008984209+1009868853+1013781613+1019414174
382+1022676459+1022240265+1019339042+1015414831+1012088128+1010971191
374+1011601711
##END=
