##TITLE=CML-41
##JCAMP-DX=4.24
##DATA TYPE=INFRARED SPECTRUM
##DATE=9/12/2020
##SAMPLING PROCEDURE=Diamant-ATR
##ORIGIN=Angelika Moesle
##XUNITS=1/CM
##YUNITS=TRANSMITTANCE
##RESOLUTION=4
##FIRSTX=3997.453
##LASTX=373.96442
##DELTAX=-1.4165319
##MAXY=0.87802464
##MINY=0.35200107
##XFACTOR=1
##YFACTOR=8.1772417e-010
##NPOINTS=2559
##FIRSTY=0.79927331
##XYDATA=(X++(Y..Y))
3997+977436334+977818282+978061811+978124424+978275090+978643262+978942697
3988+978969303+978961722+979122884+979237031+979043578+978632328+978329029
3978+978446894+979069236+979858936+980243581+980002021+979553960+979521597
3968+980025419+980533760+980520494+980062958+979653092+979646605+979980664
3958+980254733+980096342+979590552+979207000+979258388+979636546+980011715
3948+980129507+980022649+979873150+979659798+979270925+978880011+978690058
3938+978560020+978454183+978734521+979461170+979889842+979412261+978619426
3928+978499739+979129079+979709874+979612127+979203282+979311671+980096852
3918+980803893+980558397+979418456+978336245+978111231+978729346+979601631
3908+980254588+980595571+980589959+980208302+979775184+979703751+979883719
3898+979958651+979870380+979722193+979523419+979317138+979358394+979932191
3888+980984153+982058856+982521932+982253183+981817077+981423758+980914760
3878+980744779+981476093+982683604+983401142+983330802+982996524+982727776
3869+982545913+982650876+983061543+983446917+983651814+983826533+983916918
3859+983816182+983821504+984285527+984810050+984387064+983486278+983409670
3849+984191935+985306874+986214220+986485957+986155105+985730953+985431372
3839+984855534+983891187+983184364+983069853+983174014+983229775+983436858
3829+983956570+984577163+985180992+986077841+987301169+987964695+987338489
3819+986375965+985912962+985359283+984555806+984490205+985485457+986757330
3809+987385650+986964049+986064429+985760110+986149566+986302564+985651940
3799+984794889+984227579+983934047+984194851+985317662+986944587+988347153
3789+989087871+989185909+988826265+988230747+987778677+987708265+987677140
3779+987151014+986383618+986249499+986974909+987962216+988593743+988789965
3769+988946681+989261788+989229716+988404518+987439662+987491852+988699435
3759+989933186+990149599+989670342+989335918+989377903+989680328+990183275
3750+990777700+991298141+991579646+991184796+989868969+988648776+988532150
3740+989273159+990147267+990500861+989982242+988841281+987902592+988011491
3730+989403780+991390494+992582989+992007078+990412079+989428635+989525070
3720+990078166+990705538+991550635+992756834+994146353+995085042+994773360
3710+993466208+992475256+992452223+993164804+994106044+994641428+994320416
3700+993509141+992997592+993024343+993322248+993625110+993757771+993425462
3690+992305931+990759915+989939819+990332410+991461562+992792769+994034611
3680+995038319+995729907+996011849+995702063+995022137+994694711+994898733
3670+995191244+995301528+995498916+995939396+996419893+996856946+997478633
3660+998500053+999735626+1000587211+1000605142+1000302426+1000580140+1001362916
3650+1001512561+1000222538+998672804+998116282+998098934+998073714+998174595
3640+998588324+999033031+999226046+999455725+1000099425+1000959319+1001659217
3631+1002221425+1002584275+1002240668+1001352346+1000732482+1000690643
3622+1001054587+1001464161+1001429246+1000740500+999893945+999441657+999444136
3612+999725130+1000123552+1000442595+1000567530+1000770167+1001453956
3604+1002603008+1003784570+1004558890+1004904903+1005179993+1005574041
3595+1005907809+1006035003+1006150535+1006464331+1006787529+1006545385
3587+1005455083+1004241669+1003793681+1004166008+1004859492+1005429280
3578+1005752624+1005941557+1006184065+1006617037+1007209786+1007809386
3570+1008311677+1008701206+1008957345+1008999622+1008802087+1008536400
3561+1008494342+1008787363+1009186587+1009452711+1009634064+1009840199
3553+1010030226+1010151079+1010166969+1009936342+1009455190+1009110124
3544+1009210495+1009526477+1009768693+1010014481+1010375729+1010722689
3536+1010891650+1010876125+1010802578+1010903750+1011333369+1011879249
3527+1012184079+1012254710+1012327601+1012395973+1012321843+1012152809
3519+1012004257+1011936906+1012106304+1012729813+1013788043+1014893433
3510+1015540705+1015602443+1015547119+1015845170+1016277486+1016217496
3502+1015524741+1014728481+1014379042+1014680082+1015482902+1016324719
3493+1016792970+1016916666+1016910616+1016761846+1016432014+1016207875
3485+1016423413+1017037883+1017774883+1018458163+1019010384+1019348743
3476+1019523098+1019739512+1019999222+1019942731+1019339632+1018523983
3468+1018090282+1018289201+1018852138+1019334020+1019587388+1019862260
3459+1020351722+1020848182+1021069770+1021035512+1020896509+1020757797
3451+1020816620+1021273573+1022010792+1022699902+1023190021+1023489602
3442+1023561035+1023445576+1023392584+1023689323+1024439516+1025458604
3434+1026305305+1026623182+1026522592+1026419160+1026506629+1026673841
3425+1026841854+1027057101+1027339918+1027756416+1028485034+1029505142
3417+1030402720+1030777452+1030679195+1030457097+1030363797+1030457170
3408+1030694503+1030940728+1030986795+1030736706+1030437781+1030606742
3400+1031544119+1032949893+1034159663+1034748257+1034813130+1034780839
3391+1035036905+1035633808+1036341433+1037020120+1037747280+1038512853
3383+1039099187+1039377776+1039463058+1039549944+1039782539+1040164706
3374+1040455176+1040329877+1039799741+1039332073+1039513645+1040642797
3366+1042493570+1044381226+1045693918+1046473631+1047242047+1048259677
3357+1049278983+1050004102+1050384957+1050509090+1050626882+1051181654
3349+1052340838+1053580712+1054206189+1054227400+1054266616+1054679761
3340+1055253412+1055793024+1056538187+1057761734+1059234859+1060432602
3332+1061146568+1061579686+1061925335+1062265298+1062862274+1064078677
3323+1065867638+1067747349+1069340598+1070593301+1071574850+1072429131
3315+1073274957+1073741823+1072891259+1069893840+1064513763+1057011176
3306+1048128401+1039079361+1031039932+1024755134+1020854159+1020075830
3298+1022706973+1028005339+1034521129+1040894271+1046242786+1050087562
3289+1052239447+1052578390+1050366880+1043677027+1030196439+1009400813
3281+984125459+959455682+938834848+920258895+897170632+864888130+825887566
3271+787356857+754768287+730059586+714727351+711261462+720668542+740250024
3261+764706668+788974671+810140291+827608302+842093399+854454455+865181225
3251+874563084+882918713+890489672+897328878+903505361+909242385+914622680
3241+919368606+923195670+926225088+928845588+931357481+933915733+936592360
3231+939277441+941697055+943753161+945757879+948083682+950583912+952651827
3221+953936748+954717555+955443840+956249357+957085197+957927378+958629901
3211+958942019+958877511+958801996+959034518+959563269+960155726+960561655
3201+960646136+960472728+960235177+960058489+959898348+959641043+959246412
3191+958790844+958414362+958222951+958247661+958494178+958956598+959509111
3182+959882822+959905491+959691702+959431992+959080221+958495781+957781232
3172+957189212+956784886+956457825+956172238+955997009+955967707+956030320
3162+956033017+955785115+955249731+954623744+954107094+953720480+953450711
3152+953363315+953403551+953279126+952748480+951924959+951151295+950602500
3142+950091243+949312914+948279540+947379046+946901100+946654656+946173940
3132+945152520+943587043+941713820+939951318+938718004+938097265+937696219
3122+936949671+935684139+934341197+933522997+933392741+933659740+933942921
3112+933872144+933074499+931444659+929246343+926654998+923334016+918692033
3102+912544998+905504977+898783562+893616982+890733492+890124780+891186800
3092+893161925+895477741+897681962+899276231+899870802+899455397+898315019
3082+896612725+894146389+890639827+886277307+881754354+877723196+874393103
3072+871724057+869743174+868558041+868311087+869218724+871364778+874259494
3063+876850036+878267254+878488332+878088817+877492205+876723279+875747416
3053+874656385+873549682+872588470+872110524+872335757+873023046+873743135
3043+874394488+875125146+875850046+876205170+875996265+875426477+874812444
3033+874248123+873598373+872748903+871810141+871015120+870396131+869702282
3023+868742528+867640126+866593413+865544221+864261269+862660002+860903185
3013+859212554+857670620+856261274+855040644+854081618+853243737+852239009
3003+850966626+849540297+848043045+846548709+845253583+844262996+843414109
2993+842577540+841903299+841526891+841283508+840918398+840350213+839589086
2983+838649231+837678106+836902109+836314317+835683374+834983840+834499625
2973+834360841+834326582+834189183+834023940+833844774+833382573+832490971
2963+831502279+830855372+830525468+830138782+829552083+828993812+828667042
2953+828511639+828356089+828076043+827607792+827003380+826469236+826231028
2944+826342697+826670269+827053165+827446338+827885870+828331452+828595609
2934+828489626+828076480+827733966+827854090+828445381+829122610+829533496
2924+829712006+829965229+830475975+831120914+831658193+831958503+832037444
2914+832007850+832022210+832127683+832207790+832166169+832080012+832073233
2904+832113032+831974320+831392578+830327205+829080406+828052572+827387369
2894+826893023+826257634+825364283+824431571+823770378+823440255+823290974
2884+823267941+823476336+823984895+824691937+825372301+825883047+826344009
2874+826971600+827676382+828032818+827754448+827016209+826207485+825537909
2864+824997642+824518530+824017186+823418606+822734306+822018008+821252216
2854+820395529+819440075+818323824+816967981+815474884+814064299+812780909
2844+811477401+810078625+808685024+807454334+806509595+805898624+805540657
2834+805266077+804974076+804713928+804573759+804550142+804537970+804373528
2825+803929404+803271563+802638433+802160415+801734221+801273697+800894591
2815+800717466+800647345+800493546+800240396+800089584+800219695+800575621
2805+800946052+801215603+801481727+801930662+802636611+803513415+804451886
2795+805431175+806466808+807544500+808667676+809886047+811213682+812571494
2785+813864141+815099350+816375378+817710958+818955059+819964380+820820046
2775+821750206+822865729+824045030+825085548+825903530+826510856+826846884
2765+826829681+826611592+826552987+826873926+827523092+828374458+829317739
2755+830213277+831006111+831831965+832829695+833931805+834946665+835729076
2745+836219632+836465056+836610181+836727536+836663756+836190548+835291439
2735+834188308+833102817+832086281+831097807+830172676+829427877+828929887
2725+828644081+828506901+828456096+828401209+828266507+828103887+828130055
2715+828599181+829580000+830857195+832112813+833195170+834147635+835031802
2706+835824636+836454486+836828490+836837674+836429193+835674845+834676823
2696+833399629+831710601+829620674+827346551+825082122+822854358+820653490
2686+818536228+816512194+814504925+812541754+810829839+809465831+808178651
2676+806595971+804755622+803108944+801961568+801154666+800410814+799746268
2666+799340922+799184498+799065103+798813192+798419435+798023783+797855916
2656+798037341+798389040+798622509+798756483+799114377+799850794+800718706
2646+801409930+801916157+802439076+803101655+803859939+804606123+805296472
2636+805986312+806682420+807184565+807254686+806969901+806717553+806802763
2626+807207599+807745096+808329317+809067556+810094442+811324987+812459679
2616+813297050+813933314+814574973+815281358+815985922+816673939+817413563
2606+818238906+819046902+819612098+819743958+819442991+818814672+817848867
2597+816466710+814778557+813097329+811734560+810923139+810758333+811035391
2587+811356038+811511296+811507432+811203915+810297444+808747783+806933748
2577+805292390+803963152+802855356+801930006+801215311+800542601+799567467
2567+798212134+796792583+795503654+794093215+792286468+790256676+788427843
2557+787024475+786016977+785331146+784898320+784609162+784413742+784411774
2547+784688103+785113130+785451052+785627958+785785111+786096209+786613880
2537+787276896+787968047+788510501+788737848+788723051+788818101+789237588
2527+789722167+789898781+789862336+790055205+790654806+791426356+792145862
2517+792848166+793603388+794284991+794708633+794915862+795197658+795825103
2507+796791198+797803361+798506030+798726597+798567112+798304195+798197482
2497+798388092+798931494+799764418+800580723+801018433+801180980+801667745
2487+802785600+804047633+804790464+804960445+804934569+804923125+804974878
2478+805275334+805964007+806810416+807465122+807908007+808276471+808433769
2468+808149276+807597128+807284499+807573584+808485740+809749669+810868690
2458+811449849+811620924+811870137+812410040+812986170+813373366+813796935
2448+814689849+816116615+817606141+818628144+819117023+819346629+819428632
2438+819261055+818938295+818831218+819147710+819677991+820112858+820423884
2428+820750508+821036750+821036094+820739939+820569811+820960142+821850796
2418+822775708+823410151+823864844+824427270+825174183+825943036+826598982
2408+827189033+827842646+828626660+829452514+830036006+830082437+829671333
2398+829335962+829564329+830272464+830915434+831120258+831098026+831368378
2388+832137523+833111127+833950684+834641763+835264980+835697514+835818513
2378+835813411+836005406+836541372+837393977+838433839+839392500+840055807
2368+840519903+840967818+841344518+841590306+841913140+842432560+842801680
2359+842615589+842075030+841821224+842156304+842838344+843576291+844302867
2349+845043293+845848373+846798141+847847697+848715828+849166658+849277234
2339+849282482+849376730+849686662+850182101+850527458+850266800+849406688
2329+848600077+848423681+848778441+849284596+849853436+850565434+851329039
2319+852033530+852779349+853633120+854369537+854687196+854642951+854699296
2309+855205669+855973064+856549412+856753507+856690164+856415439+855915480
2299+855365154+855133142+855429735+856058711+856649491+857061544+857367321
2289+857578048+857716687+858032961+858777031+859880672+861067190+862040939
2279+862523768+862495705+862374415+862611966+863255520+864127077+865118101
2269+866160951+867235436+868457087+869845367+871065925+871755181+872020650
2259+872239031+872424320+872332186+872231450+872848180+874289233+875753393
2249+876565616+876806520+876727798+876328502+875785319+875640849+876197225
2240+877113026+877890918+878485781+879119494+879776095+880262132+880547500
2230+880735048+880897157+881137770+881603033+882333691+883166615+883735529
2220+883688368+883216035+883222085+884490314+886730032+888870838+890277559
2210+891115877+891526399+891237751+890336674+889701211+890038040+890859156
2200+890996190+890198691+889767469+890945969+892962860+893927643+893624344
2190+893522224+893896665+893475866+892315734+892213687+893562096+894440504
2180+893764732+892861468+892930204+893154854+892417709+891321357+891061938
2170+891372162+891190007+890870235+892137953+895491590+899031172+900692064
2160+900533454+899775753+898751854+897468829+896828118+897432383+898311739
2150+898104583+896799034+895399092+894571634+894497650+895341435+896884754
2140+898179005+898364075+897674964+897209337+897694791+898655930+899026726
2130+898534712+897921044+897719136+897609290+897239514+896865948+896799545
2121+896968724+897296150+897840281+898465029+898955220+899330754+899485720
2111+898850038+897105613+894926103+893389563+892939170+893313756+894140922
2101+895309072+896973827+899227249+901721648+903964282+905953766+907975978
2091+909852846+910993297+911182449+910937754+910998618+911576424+912214584
2081+912465766+912532752+913009459+914111642+915431842+916490655+917326495
2071+918252719+919143592+919476630+919064141+918264746+917675496+917944026
2061+919399220+921478433+922911322+922647093+920546887+917569076+915285550
2051+914738795+915839666+917930469+920452421+922907896+924713039+925478904
2041+925375909+925078952+925055116+924952777+924272414+923433731+923188891
2031+923182622+922415883+921049980+920523562+921822551+924481829+927202773
2021+928647908+928069665+926143304+924747954+925053075+926500688+928193069
2011+930001492+931828357+933090317+933542823+933741961+934145631+934433769
2002+934216335+933875935+934182368+935448774+937363035+939163003+939968739
1992+939475850+938170229+936547896+934935039+934056704+934393679+935292788
1982+936126222+937657441+940795103+944572892+946936671+947015466+945204127
1972+942346440+939973695+939708737+941397910+943111940+943682530+943614304
1962+943350803+942621967+941437563+940250899+939253387+938280877+937097348
1952+935537118+933647932+931547727+929164996+926596831+924524325+923616469
1942+923569818+923398015+922839670+922667283+923472363+924710196+925305424
1932+924953506+924405585+924637451+925984840+927871110+929272000+929583390
1922+929153480+928814172+928889469+928926424+928354668+927234773+926184998
1912+925813692+926289888+927174492+927760535+927677803+927025940+926150010
1902+925553909+925710187+926598581+927541352+927702732+926897579+925889425
1892+925584450+926081274+926792835+927247966+927502719+927866809+928556357
1883+929552776+930593002+931319432+931509896+931295451+931155063+931541239
1873+932529203+933863470+935074407+935650536+935584789+935406279+935467070
1863+935824308+936527487+937505974+938445465+939169053+939890162+940809681
1853+941730001+942288637+942411021+942372535+942521961+943071412+943973583
1843+944845577+945371339+945669025+946012268+946565656+947355720+948231067
1833+948886794+949052693+948666517+947949635+947198641+946401797+945281902
1823+943778964+942168586+940660400+939355362+938461355+938143769+938366670
1813+939064454+940078294+940955536+941292729+941147239+940837307+940688682
1803+940937386+941585532+942490180+943580118+944735876+945777049+946718508
1793+947648742+948449157+949079371+949818485+950863595+952178619+953613622
1783+955036671+956503455+958141677+959900024+961712384+963693923+965917386
1773+968258277+970505504+972590985+974812991+977538892+980653155+983789723
1764+986934674+990143185+993074638+995620936+998253536+1001262035+1004515957
1754+1007972079+1011864379+1016430484+1021420011+1026044501+1029935927
1745+1033406335+1036730670+1039957696+1043165478+1046240672+1048920652
1737+1051357832+1053736845+1055495046+1056143192+1056260473+1056323232
1728+1056516612+1057080568+1058009053+1059125741+1060340103+1061433613
1720+1061921034+1060829420+1056432641+1048134232+1037293461+1024272232
1711+1008269109+989135541+966822983+940485900+911938910+886649342+865421400
1701+841706785+811640458+781336507+752661886+720767018+688715142+661861846
1691+637495295+612006589+587816361+567779784+547862421+522375792+496583568
1681+478451047+465859802+455139811+445177302+436469866+430967514+430464312
1672+434362481+440557587+447325178+454254806+461333459+468361599+475602690
1662+483763372+493188821+503716452+514809790+525918945+537449665+550084645
1652+561803241+571778141+582193230+594398482+607261756+618645491+628433135
1642+637278153+645335221+652699679+659971056+668321364+678097345+688233479
1632+698640258+710081941+722639147+735451471+747885928+760620040+774734268
1622+789634625+803849661+818047422+834096466+849715599+856618075+848022854
1612+820433797+774209673+720187316+677065064+656162434+654789826+663988365
1602+676436234+688454922+699135989+709037196+718902760+728750247+737794476
1592+744918978+748797575+748170203+743431858+737908404+736163105+740578762
1582+749911931+760981361+771446306+780822845+789221844+796073588+801467076
1572+807037471+814151331+821058035+820609901+805021309+773487761+735274127
1562+703739851+686221909+684834650+697098907+711441867+723097266+733834241
1553+743622540+751497235+757434563+762186903+766685510+771753541+777688026
1543+784183917+791251126+799059126+806319132+812204488+817284546+822017206
1533+826352027+830205987+833852427+837655437+841702266+845715857+849553490
1523+853547036+857908682+862210338+865972893+868878615+870193494+868993929
1513+865013576+859102926+852876149+847732384+845349581+848247577+855560356
1503+864623099+874291056+883559716+891068134+896069834+898982700+900819404
1493+902482848+904585604+907487536+911205919+915471494+920127910+925296968
1483+931201859+937784344+944402983+950179368+954593349+957566860+959336578
1473+960548462+962160590+964576194+967548320+971124347+975732218+981259607
1463+986594346+991004026+994940863+999508353+1005759694+1012757366+1018211500
1453+1021941254+1024542074+1026016146+1026098732+1024606801+1021595168
1445+1017193578+1011102961+1002798939+991765882+975534465+947623522+903575263
1435+852061228+804460414+761863705+723389632+692564000+672653343+662225717
1425+658203379+658569875+662068564+668024406+676376537+686537746+697011292
1415+707099465+716906133+725916613+732115838+732040687+722435271+703622861
1405+682969591+671979102+675296148+688262636+704892547+722088675+738959345
1395+755085654+769410974+781030875+790478045+799080118+807733871+816437189
1385+824764536+832735156+840756288+849051855+857469951+865620246+873111025
1375+879661875+884942310+888537216+890318014+890639244+890373629+890955882
1366+894042447+901089903+912648503+927207511+942114063+955994312+968816986
1356+980599945+990978952+999633579+1006617766+1012207768+1016652218+1020000461
1346+1022032149+1022413587+1020741324+1016188559+1007413151+993360516+974012576
1336+949919949+921660150+890090229+856409389+821552089+785617097+748100665
1326+708978155+670006529+635085668+608945864+595166752+594852592+606230459
1316+625649286+649416601+674230118+696198778+710874994+715009876+708234886
1306+693072050+673254911+651962971+631345126+613036173+598958062+591733919
1296+593679231+604512312+619844838+631926285+632246641+615393756+583073788
1286+544855999+513046851+495470087+492612436+500191449+513213006+528152250
1276+543062191+556990329+569494834+580364178+589543292+597178795+603605257
1266+609217091+614331007+619170889+623953406+628886079+634029406+639241324
1256+644309500+649060747+653319762+656890760+659701870+661932113+663910882
1247+665922306+668165159+670794916+673879513+677383306+681269921+685520991
1237+689986433+694340278+698266182+701589642+704197751+706007632+707125633
1227+707900098+708706928+709780538+711262337+713232723+715662395+718459656
1217+721578876+724988931+728566708+732119847+735530412+738824424+742069964
1207+745237001+748198849+750777146+752684773+753587090+753527538+753297640
1197+754030412+756181714+759019283+761227732+761842566+760383291+756137688
1187+747633872+733237775+712546310+687112782+659936870+635009132+617454236
1177+612370679+621587076+641535637+665349165+687308202+705170626+719165605
1167+730112505+738660565+745384677+750823140+755347623+759153257+762342306
1157+765007343+767337957+769607560+771964196+774333806+776583729+778677884
1147+780712415+782905702+785489976+788547020+791978067+795599068+799198056
1137+802449573+804634331+804190790+798249964+782871225+755582259+719993937
1128+687455005+670879834+675021859+693547298+715397145+731772668+737193053
1118+728701483+708538696+686230729+673492317+675583702+688895620+706190297
1108+722061487+734149785+742101453+746595833+748616587+749011145+748462204
1098+747625271+747229473+747936442+749948668+752934206+756430855+760089905
1088+763610462+766802865+769724477+772567732+775440581+778309129+781135401
1078+783980624+786849391+789517489+791552822+792003870+789054851+781405826
1068+770969891+762935930+761584022+766491985+773791789+780261949+785051974
1058+788453282+790798838+792516585+794093434+795712486+797206677+798308058
1048+798934409+799307028+799664776+800021140+800437128+801157217+802242271
1038+803501388+804828367+806248427+807767328+809383173+811141957+813269424
1028+816216257+820416886+826049384+831818553+832466698+820395675+794824165
1018+767842653+755109197+759876918+770557766+774267111+769303751+763851294
1009+765323835+773369824+782733825+789822246+794582313+798088438+800946052
999+803456633+805769461+807908299+809909300+811684193+812960002+813566527
989+813513171+812779597+811145748+807920107+801969003+793012753+783351211
979+777408854+778476268+785847433+795554167+803514144+807592025+807656096
969+805008991+801655062+799206292+798085522+797660422+797034071+795795655
959+794102108+792124578+789732809+786793775+783395747+779621457+775339482
949+770315841+764474001+757983067+751013822+743455766+735016531+725514183
939+714972410+703559737+691482081+678846444+665731259+652445290+639573196
929+627748398+617475228+609133048+603114702+599913698+599874082+602836659
919+608236563+615516358+624264796+634091655+644597128+655401891+666162700
909+676677066+686976695+697176828+707226368+716907736+726047598+734591504
899+742521961+749904496+756987596+764020546+770961654+777537215+783555451
890+789052883+794221503+799280058+804333584+809322163+814144771+818773051
880+823216480+827496633+831734947+836108400+840556786+844535171+846917974
870+845574158+836420738+813160962+769782571+706148895+632841139+569238441
860+533432685+531067302+552685101+581702200+605936709+623415763+638912586
850+656359604+675234701+692749362+707017390+717830462+726238208+734152847
840+743260272+753435185+762169992+765404234+759162077+742000936+717574323
830+694390355+681114445+681080623+691413126+706771383+722993397+738011764
820+751220104+762625706+772202330+779869796+785853993+790598534+794339878
810+797019493+798435471+798218694+795939250+791834691+787585808+785806905
800+788314206+795042619+804575800+815237405+825783405+835631038+844615132
790+852573214+859369998+865171239+870351011+875171286+879609248+883310137
781+885456920+884134898+875140234+851208113+803451021+727170920+631099848
771+540915846+487227548+484649798+521249081+567336972+595498004+598051773
761+590277996+595192118+622646108+663800889+703267591+730917147+742364225
751+735433686+711630800+679887764+654458828+646223105+655906587+676098968
741+698689532+719653828+738633231+756440039+773435280+789317841+803637621
731+816260210+827437154+837531814+846723938+855056024+862648922+869636097
721+875909889+881078874+884730198+886841847+887997240+889030615+890209115
711+890553305+887917206+879853505+864674924+842185970+814072827+783439919
701+752800305+722054854+689714258+657606767+633461076+625948649+636575266
691+658374308+682351913+703273932+719702227+731514853+739036026+743259033
681+745270312+744801186+739367388+725384510+700965988+669034091+637655363
671+614860340+604867691+609861738+626733829+645701206+662663937+678827347
662+694313527+707801185+718529340+726600403+732213366+735404967+736053987
652+734008887+728909222+719539681+704183027+682772858+658249446+633887852
642+609109650+580794453+549787834+522964969+507272981+503580110+506969937
632+511567968+514440379+516461061+521018491+531388970+548206393+569222660
622+591404561+612797601+632638138+650535476+666033756+678890689+689431077
612+698411235+706570860+714361803+722002227+729534407+736870074+744132776
602+751834064+760271841+768965537+777100890+784321972+790956793+797804965
592+805575936+814182966+822814268+830719212+837583639+843431967+848325862
582+851410531+849672011+837841308+810596879+767171255+715501234+669882541
572+642534607+638045257+653531000+681126544+711405713+736212962+749668402
562+749089940+736295693+716448086+693918386+669368223+641709045+612986243
552+590132979+580797661+587731553+607605510+634318929+662455178+688547056
543+711189519+730522006+746933609+760262438+770383848+777563747+781277101
533+779381427+768579799+743764823+698472755+634230949+572644596+544395293
523+559407901+601376801+647742224+684252689+705343815+709344431+696140027
513+667301766+627672737+586506220+554634568+538913861+539200541+550577935
503+567302203+584376859+598571121+609508837+618219590+625163322+630743193
493+636320148+642986530+650108481+656507135+662103844+667436250+672838558
483+678714804+685305890+691667515+696037106+697774679+698207213+698844790
473+699352329+698210712+695083037+691202253+688440344+689319991+695998692
463+707762407+720662492+730803729+737278263+741716808+746349680+752444598
453+759738498+766794555+772214139+775848989+778526927+781081462+783818077
443+786477647+788676911+790685784+793718191+798811370+805078018+810028112
433+812625579+814288803+816425017+819296189+822951813+826953814+829694220
424+830250888+830007068+830357455+830460814+829654058+830053062+832830351
414+836565645+839382732+840538053+840025047+837600841+833747100+830252856
404+828101554+826160543+823106633+819709480+818461807+819948417+821345881
394+820657208+818355823+815573651+812410478+807187554+797255513+781257129
384+760593873+737563412+714390960+695517831+686884779+692353127+709876899
374+730329209
##END=
