##TITLE=LIS-P345
##JCAMP-DX=5.0
##DATA TYPE=LINK
##BLOCKS=1


$$ === CHEMSPECTRA SPECTRUM ORIG ===
##TITLE=LIS-P345
##JCAMP-DX=5.00
##DATA TYPE=INFRARED SPECTRUM
##DATA CLASS=XYDATA
##$CSCATEGORY=SPECTRUM
##ORIGIN=Angelika Moesle
##OWNER=
##XUNITS=1/CM
##YUNITS=TRANSMITTANCE
##XFACTOR=1.0
##YFACTOR=8.8309282e-10
##FIRSTX=3997.453
##LASTX=373.96442
##MAXX=3997.453
##MAXY=0.9482136944250109
##MINX=373.96442
##MINY=0.5295445307125017
##NPOINTS=2559
##XYDATA= (X++(Y..Y))
2559A054417369A054462726A054793858A055411508A056236638A057012700A057440080
2552A057363810A056847606A056157196A055617706A055398076A055452410A055652804
2545A055895989A056093886A056155981A056062028A055962405A056098813A056541717
2538A057098554A057564946A057927194A058234230A058435096A058452443A058350727
2531A058328859A058488350A058655468A058589323A058373675A058346205A058573934
2524A058678349A058376510A057891961A057641419A057799425A058212834A058597490
2517A058695426A058363686A057736317A057254198A057357736A058010551A058602012
2510A058590335A058077641A057668417A057793081A058224848A058569209A058876178
2503A059428493A060182415A060709486A060728385A060363640A059910004A059561863
2496A059320298A059053623A058580819A057890004A057479025A057957027A059011439
2489A059574012A059258944A058780672A058955418A059871667A060748836A060863308
2482A060533594A060374777A060446592A060473455A060531029A060903603A061367701
2475A061364259A060958747A060661430A060597107A060450102A060110735A059836839
2468A059714808A059715955A060085222A060926956A061696943A061829032A061488990
2461A061147531A061171560A061882150A063369275A064714255A064715470A064046928
2454A063587285A063307517A062913007A062316010A061765046A061690531A062407939
2447A063765878A064924840A065152974A064741793A064277897A063911870A063651338
2440A063691768A064050910A064209727A063688731A062876694A062756822A063577768
2433A064311510A064562188A064887448A065284253A065247400A064879281A064611527
2426A064573594A064683612A064965810A065562671A066502139A067360072A067226431
2419A066019074A064813000A064316640A064360309A064509609A064663431A064944819
2412A065429773A066015295A066348384A066057209A065247130A064492667A064279517
2405A064702173A065435915A066054374A066433091A066643271A066714276A066698010
2398A066873025A067555741A068573435A069209444A068839502A067567957A066077525
2391A065221145A065622942A067039739A068604551A069705062A070253664A070390545
2384A070056240A069155313A067998240A067275433A067670887A068816621A069660988
2377A069886895A069699190A069271945A068628242A067956460A067728529A068068773
2370A068615080A069069931A069474228A069976663A070474846A070694746A070601805
2363A070440289A070369014A070245902A069886287A069434811A069370690A069991310
2356A070862604A071380229A071402772A070996990A070407149A070059345A070132240
2349A070288019A070319405A070480313A070897435A071280403A071339934A071196236
2342A071184425A071289920A071188879A071001647A071120169A071686860A072541418
2335A073343938A073741823A073478186A072504431A071391838A070894060A071016496
2328A071437397A071836362A071950564A071699954A071131306A070409781A069801648
2321A069555357A069858681A070718909A071666139A072007260A071659119A070971477
2314A070129608A069332825A069080055A069585933A070519731A071383604A071662695
2307A071002795A069569261A068050211A067100620A066819164A066743029A066397723
2300A065882666A065919249A066884972A067883970A068281518A068334839A068339699
2293A068162456A067404754A066136179A065028445A064493275A064483151A064801796
2286A065214058A065450831A065305379A064890957A064599378A064708720A065272778
2279A066095749A066610738A066291216A065390220A064735583A064572852A064265073
2272A063485567A062711668A062459303A062568375A062544820A062388095A062409154
2265A062748790A063251359A063574461A063443992A062810886A061853465A060913860
2258A060301207A060085627A060136384A060231012A060113773A059692332A059143257
2251A058742198A058656751A058778175A058747195A058265818A057442442A056761414
2244A056544147A056620214A056755812A056940345A057015872A056565948A055528680
2237A054386119A053582249A053140425A052852287A052574004A052225053A051715801
2230A051118872A050734486A050677723A050531393A049792656A048561271A047446113
2223A046937199A047053628A047415066A047490863A046987820A046081560A045100718
2216A044102665A043036373A042169666A041911699A042229602A042615540A042549192
2209A041835564A040670392A039516627A038796249A038507099A038241302A037692835
2202A036874927A035850078A034661485A033502590A032592820A031962954A031579918
2195A031453567A031407467A031028143A030079429A028798300A027686045A027071432
2188A026861522A026616446A025878789A024680072A023707937A023585770A023992025
2181A023969751A023113641A021936522A021024525A020377987A019712686A019003782
2174A018455923A018028070A017331113A016138605A014754006A013631558A012838421
2167A012091855A011088942A009751319A008289640A006937034A005621010A004134628
2160A002589052A001371031A000664490A000270385I99900308I99434590I98865132
2153I98160007I97319219I96419371I95465460I94360493I93113042I91885170I90773656
2145I89747457I88838699I88195942I87854213I87497838I86638690I85227497I83892980
2137I83261561I83292879I83520945I83548416I83116311I82239681I81457343I81384583
2129I81959913I82601389I82929619I82930496I82644991I82125614I81566685I81226779
2121I81274026I81660099I82037263I81993526I81567833I81291844I81534895I82060279
2113I82411727I82486782I82523094I82745086I83234563I84013189I84998281I85844945
2105I86028599I85301540I84054901I83043956I82692170I82789296I82943995I83118538
2097I83458242I83800983I83833381I83702238I83951566I84710551I85422964I85586235
2089I85338662I85091292I84996731I84991939I85022244I85049107I85071651I85151903
2081I85212783I84999971I84484914I83980589I83589251I82961004I81928325I80927977
2073I80380320I80045611I79451314I78676738I78220672I78208253I78165596I77650201
2065I76784236I76026061I75656320I75661924I75931835I76316696I76564741I76456208
2057I76011077I75424070I74844690I74326866I73843937I73275356I72527508I71631642
2049I70577635I69259721I67799190I66598448I65846212I65280601I64624950I63994950
2041I63666383I63572834I63234548I62259645I60800261I59380902I58364085I57726929
2033I57258511I56801568I56275914I55551081I54471021I53133939I51960262I51231245
2025I50734817I50059391I49008084I47617747I46054826I44595104I43474681I42690183
2017I42053095I41414994I40755969I40109094I39449327I38667596I37678587I36542168
2009I35432815I34520210I33867328I33328648I32602870I31588213I30579360I29863302
2001I29282438I28501652I27540450I26735096I26262291I25969564I25660030I25318234
1993I24954907I24408330I23523871I22423427I21377789I20498055I19744132I19097392
1985I18549330I18052901I17598388I17208670I16835218I16420324I16052674I15868347
1977I15781751I15507652I14902489I14131355I13432238I12916641I12687630I12872162
1969I13316551I13505268I13075188I12264704I11606827I11288114I11069362I10761920
1961I10514145I10543168I10748691I10781359I10475605I09989909I09471612I08873738
1953I08231453I07830058I07909568I08374273I08870971I09053141I08834996I08441701
1945I08098082I07728613I07162259I06516126I06056888I05766321I05363846I04759020
1937I04261175I04253548I04689703I05029812I04807749I04213523I03865112I04000575
1929I04209338I04041883I03584129I03271423I03353835I03715408I04068341I04143193
1921I03804029I03206155I02773915I02816235I03191509I03514811I03572790I03326837
1913I02734700I01918952I01375614I01648430I02729301I03967840I04699490I04851084
1905I04733170I04442332I03941719I03576637I03853773I04671681I05304720I05218326
1897I04590350I04062266I04112483I04598314I04935588I04773127I04316184I03962508
1889I03837507I03759212I03518186I03122529I02815627I02875968I03321505I03777166
1881I03748615I03164443I02556513I02551113I03177875I03807066I03840881I03350865
1873I02895812I02866586I03200958I03604378I03810374I03739773I03563678I03490446
1865I03512449I03562733I03774399I04278926I04880782I05194095I05039464I04599191
1857I04229047I04139683I04259892I04414927I04528591I04570843I04470478I04234649
1849I04019339I03914586I03795660I03573330I03444616I03644740I04076170I04420059
1841I04475675I04249431I03890288I03598033I03389068I03039577I02481323I01988472
1833I01732530I01509728I01160102I00879659I00890458I01098209I01280243I01412939
1825I01618395I01864551I01935758I01786188I01707826I01972138I02466406I02825347
1817I02767098I02230780I01368190I00460445H99694036H99038318H98446114H98042290
1809H97904262H97785808H97344388H96604234H95879671H95274914H94621019H93882147
1801H93235272H92730070H92245453H91775753H91466152H91382053H91458187H91646567
1793H91991333H92528191H93124647H93528472H93685871H93851302H94185336H94449446
1785H94359069H94030300H93781309H93671832H93540351H93393144H93469953H93901586
1777H94476174H94812841H94714972H94325659H93952410H93771793H93762546H93892137
1769H94200523H94628443H94928055H94885331H94558721H94202818H94028815H94091923
1761H94307166H94482113H94407396H94037792H93591513H93359869H93361151H93294196
1753H92961579H92613978H92679651H93259368H94097323H94914084H95584717H96144793
1745H96745029H97451098H98128954H98728312H99465294I00453561I01427248I02096532
1737I02498602I02803883I03078252I03380496I03829272I04406290I04845077I04864448
1729I04501796I04149740I04241601I04894754I05806818I06488251I06679465I06568098
1721I06538400I06782531I07242309I07799483I08384195I08957230I09473772I09878744
1713I10188413I10550863I11108037I11820517I12533740I13162190I13744607I14391685
1705I15211886I16190908I17147789I17906774I18486154I18999793I19436826I19721184
1697I19967744I20453238I21266894I22154120I22799511I23196383I23650489I24401647
1689I25306490I26011681I26400589I26701821I27167809I27847217I28692191I29660614
1681I30606966I31270715I31545826I31650376I31863189I32192094I32459240I32611172
1673I32795975I33168211I33681716I34096542I34231465I34141764I33963171I33748536
1665I33577436I33580135I33753598I34009068I34382115I34933687I35568480I36168177
1657I36705912I37144497I37458350I37744868I38082074I38377569I38549344I38715382
1649I39069936I39675167I40401349I40986736I41212643I41112547I40935844I40828324
1641I40652769I40230046I39646346I39164159I38896540I38696012I38313921I37586456
1633I36564509I35546342I34880366I34629755I34485990I34084798I33385679I32661726
1625I32131416I31731978I31311010I30879310I30523339I30215561I29887533I29577392
1617I29333667I29089131I28812603I28658106I28766841I28988428I28989913I28643257
1609I28186381I27965874I28078118I28322789I28485520I28539314I28537492I28475598
1601I28365041I28291876I28297208I28312935I28301325I28353432I28582646I29010769
1593I29590284I30220623I30722518I30954162I31019430I31210779I31681559I32303124
1585I32881626I33352001I33696700I33832163I33715869I33462559I33183600I32791115
1577I32200531I31648419I31495137I31727861I31941416I31774635I31169135I30333137
1569I29662569I29581982I30231827I31312090I32328637I33007033I33426516I33778501
1561I34109704I34333586I34389202I34338985I34360044I34591351I34969662I35309296
1553I35534800I35703066I35857158I36013275I36188493I36298712I36151708
1546I35695912I35177008I34882053I34773520I34559020I34135622I33734835
1539I33522562I33316296I32899512I32384388I32008642I31724621I31271525
1532I30615943I30056272I29803569I29684035I29438554I29120989I28951980
1525I28937536I28939629I28996055I29269950I29763882I30349944I31042513
1518I32000272I33201014I34263593I34751382I34661410I34483358I34723101
1511I35464470I36422431I37330379I38204916I39212824I40320557I41249225
1504I41848044I42311264I42936001I43833824I44915099I45983280I46837163
1497I47405407I47785811I48158183I48696053I49485613I50447692I51404168
1490I52290652I53238421I54400354I55716783I56920359I57812850I58502380
1483I59285193I60310920I61456721I62574646I63737995I65041465I66221216
1476I66822262I66826042I66740930I66921008I67178638I67255245I67310254
1469I67665144I68293188I68847257I69116969I69242915I69470239I69871566
1462I70405657I71095122I71953325I72828605I73563831I74212191I74839898
1455I75297246I75496560I75617849I75717067I75516944I74919947I74340972
1448I74253364I74670417I75172110I75326539I75149837I75149972I75755135
1441I76834925I77982008I79061596I80260583I81714500I83229096I84394132
1434I85015899I85345209I85779204I86461245I87276048I88068713I88752711
1427I89322912I89874619I90574005I91512325I92518816I93243783I93566208
1420I93798325I94316891I95177119I96243206I97419517I98539332I99352716
1413I99885796A000480565A001257099A001962628A002483017A002997129A003567869
1406A004100205A004562683A004811808A004558228A003869101A003232890A002852419
1399A002405870A001698991A000992652A000486910A000028212I99490746I99162786
1392I99543663A000689328A002149455A003494164A004506527A005309449A006440066
1385A008266220A010410006A012161240A013217472A013696354A013750958A013539158
1378A013435485A014034776A015740045A018198158A020452705A021891368A022729525
1371A023455167A024200181A024843681A025404635A026041183A026807323A027617537
1364A028378884A029030957A029512873A029788322A029860069A029687416A029178771
1357A028386579A027615309A027129815A026801721A026319264A025767085A025643433
1350A026137634A026742932A026828044A026336273A025680151A025174678A024793869
1343A024330514A023594545A022519074A021257384A020169292A019566153A019445134
1336A019561564A019694260A019753453A019716803A019544015A019159292A018598338
1329A018132013A018036507A018309728A018777538A019201004A019230432A018809733
1322A018563105A019042525A019754398A019804209A019215650A018740415A018762554
1315A019247103A020316836A022052007A024021588A025642421A026807053A027693806
1308A028191450A028073468A027658439A027736194A028716766A030239528A031731107
1301A032999345A034185643A035466839A037015925A039041257A041537167A043966324
1294A045522834A045994289A046166064A046919447A048032580A048460501A047753960
1287A046453460A045181645A044177314A043454169A042562489A040499291A036744256
1280A032112658A027791270A023875595A019508850A014160790A007868065A000218143
1273I90230994I77817725I64389258I51359351I38866167I26259254I12817423
1266H98022919H82179739H66634889H52563056H39994885H28596206H18563632
1259H10126040H02856388G95703975G87636865G78548686G69240269G60339930
1252G51772410G43409670G35657291G29180979G24494373G21905049G21471864
1245G22796663G25053977G27519446G30021836G32656651G35104302G36445097
1238G35711827G32580314G27549347G21524376G15148699G08494536G01508297
1231F94670075F88985820F85394393F84378926F85906076F89460920F94365333
1224G00213399G06852847G14158745G22050907G30316790G38394227G46045025
1217G54016562G63034681G72504411G81220624G88844019G95840653H02500282
1210H08672933H14211398H19295956H24300330H29374562H34265476H38693575
1203H42775221H46901413H51378311H56242295H61150353H65523848H69171768
1196H72546535H76001824H79316992H82333291H85276290H88177914H90922949
1189H93812492H97023110H99880863I01753993I03184962I05270635I08304415
1182I11582799I14430832I16926674I19395181I21643991I23398599I25141801
1175I27421926I29687747I31087128I32034762I33606054I35797155I37655571
1168I38741099I39493199I40531210I42197130I44438650I46681992I48194090
1161I48904546I49550746I50761613I52382243I53921474I55338066I56939528
1154I58412344I58821163I58134330I57496365I57556098I57937716I58479097
1147I59643661I61605480I63892357I65773250I66636920I66719062I67252950
1140I69012486I71317586I73058561I73963471I74376070I74573629I74770918
1133I75239943I76137428I77485040I79389961I82062371I85415134I88500211
1126I89715600I88428126I86091438I84631851I84437802I84791882I85247206
1119I85548438I85178428I84237611I83946841I85275284I87827823I90505025
1112I92490805I93591317I94240554I94904978I95288014I94881962I94122167
1105I93925891I94641679I96013117I97584476I98832262I99451059I99694785
1098A000122840A001076887A002509138A004054848A005304524A006248109A007117314
1091A007820143A008107808A008143311A008227275A008324131A008321566A008378464
1084A008714254A009275275A009811525A010137055A010282508A010473654A010926481
1077A011634912A012362644A012861369A013210793A013859490A015154996A016832862
1070A018117231A018544072A018399902A018288804A018627563A019471930A020589518
1063A021620981A022312336A022702999A023009090A023403331A024067147A025204916
1056A026651679A027819618A028508340A029018132A029505516A029836783A029876808
1049A029722649A029737565A030311006A031416512A032521140A033100993A033137575
1042A033070485A033457638A034651428A036384506A037676366A037921847A037526864
1035A037215711A037437568A038103409A038815283A039493476A040485050A041901844
1028A043142273A043677376A043730495A043732790A043888974A044286522A044959653
1021A045780800A046514408A047047823A047464675A047892730A048373094A048895576
1014A049520920A050313990A051201621A052069004A052849992A053387188A053503347
1007A053421408A053626054A054227707A054931346A055468811A055843343A056159356
1000A056385398A056538275A056812846A057295572A057703582A057712964A057322503
993A056662399A055828359A055018145A054415344A053784263A052396964A049660298
986A045272089A038798679A030165013A019666316A007255207I93878374I83467486
979I80089145I84429230I94169077A005027658A013974975A020846405A025972473
972A028811327A029315449A028247671A026066157A022897048A018645652A012881686
965A005620672I97793576I89152014I76291250I55500730I30638554I07656258
958H85707315H63774909H43115462H24020427H06102913G90486383G78373333
951G68996814G60430981G51736772G43997082G37696865G31865334G25811409
944G19519967G13041157G06201652F99316184F93577865F89712340F87234721
937F85248334F83519846F81890171F79349714F75564441F71346590F66998675
930F62473991F58394370F55664994F55073735F57682294F63064845F69228721
923F75679723F82578421F90252168F99298297G09005071G17629152G25542575
916G34484627G43845488G51280976G56939582G62499983G68802090G75189916
909G80552622G84705475G88017201G91057124G95203564H01695738H07368451
902H10193063H12648746H16991058H23080420H28550984H32796980H36658658
895H40444674H44152665H48320975H53854377H59912016H64506828H67955300
888H71577369H75915834H80489926H84684626H88721117H93014495H97083856
881I00315803I03210205I06853873I11372686I15354978I18223395I20685489
874I23247545I25888367I28371116I30527861I32360562I33968639I35368019
867I36406030I36881535I36707127I35966095I34844526I33422669I31530302
860I28959135I25737583I22027094I17870259I13202282I07930019I01995154
853H95561094H88715985H80581112H69700189H57432507H47313134H39205797
846H30506729H19897880H09078175G99598658G90686574G82045484G74489786
839G67404059G57323631G43570512G33004657G25643211G18276703G10347486
832G02146803F94171622F87701047F83770658F82463341F83662598F87621267
825F95895722G09008716G20964637G28647158G35199740G43658390G53878871
818G63075246G70495210G77758923G85941787G94296022H01934064H09727683
811H18342450H26183518H32452687H38381072H44406313H49851499H54545394
804H58756766H62710305H67353106H74427157H82206400H86968533H89637096
797H91947934H94535163H97670863I01662672I06051894I09666674I12317958
790I14909914I18367970I22550655I26386213I29467645I32132293I34716487
783I37281647I39621305I41584677I43306888I45052250I47100801I49621211
776I52110102I53746189I54573412I55182624I56060266I57245552I58230916
769I58654922I58708851I58750698I58828182I58351800I57039691I55281235
762I53248613I50851246I47917427I44320465I40128330I35393060I29815988
755I23171343I15850124I08304550I00414818H92493768H86043914H81576668
748H78222621H75506070H73744712H73247339H73880378H75406110H77513517
741H79846763H82433791H85502804H88584776H90861326H92280956H92915682
734H92337989H90036668H85980536H80394420H73053762H63665229H53255626
727H43596504H35275612H28048886H21943798H16856877H12086645H07226441
720H02727067G99059505G96125348G93520568G90939344G88321268G85618485
713G82665699G79311181G75579566G71790176G68365732G65443117G62944305
706G61055245G60272974G61154463G64146734G69237165G76175212G85183275
699G96379063H08522486H20035570H30693623H40950484H50882423H60171198
692H68572882H76176164H83192979H89686570H95629534I01030443I05909951
685I10332583I14449393I18308169I21677063I24285421I26138100I27395943
678I28156143I28431996I28196978I27375694I25839838I23461910I20160038
671I15904322I10671949I04361473H96873271H88339566H79011170H68918323
664H58029706H46658092H35282969H24117958H13197955H02645465G92589538
657G83023357G73912026G65323178G57393218G50238646G43918450G38463882
650G33916519G30287430G27518906G25586920G24612962G24741136G25885249
643G27629801G29322112G30238428G29764746G27582487G23863494G19300809
636G14745954G10629751G06699566G02294550F96852064F90287468F83152873
629F76484199F71319119F68226685F67212838F67942395F69976907F72878464
622F76248911F79723301F82904761F85396283F86972704F87670876F87736819
615F87605811F87845824F88895579F90785853F93137931F95413266F97167470
608F98102010F97906004F96119537F92240243F85976406F77386882F66857138
601F55021561F42686991F30755571F20125933F11510694F05250502F01337257
594E99647646F00102025F02564322F06690312F12031012F18292558F25367891
587F33102181F41181778F49308891F57353862F65255473F72898847F80219864
580F87327460F94361891G01294877G08003507G14445735G20600027G26289344
573G31135914G34508656G35417008G32854480G26773825G18776573G11505098
566G07071465G05911153G07000325G09040169G11458392G14529699G18800601
559G24443009G31044120G37891522G44418860G50383153G55672897G60096474
552G63401856G65316226G65508385G63889104G61238698G59239216G59473830
545G62368974G67140017G72562525G77757371G82493856G86933429G91136903
538G94909149G98095739H00824778H03365843H05880516H08388778H10859850
531H13225224H15364691H17231747H19011059H21015940H23362751H25816613
524H28021551H29861473H31546022H33349295H35329675H37342319H39206135
517H40786336H42060985H43218729H44542856H46099433H47662693H49001800
510H50111828H51166848H52335665H53605252H54763539H55639224H56316742
503H56984811H57689800H58402078H59162345H59985451H60783043H61513815
496H62253969H63072215H63988667H65003729H66011637H66804639H67325163
489H67760306H68246610H68683642H68995065H69383231H70112586H71164703
482H72286070H73307612H74243705H75114057H75851579H76425087H76944193
475H77542270H78189482H78744969H79202655H79722436H80391585H81150030
468H81965171H82828167H83576150H83990976H84125967H84324808H84870778
461H85720207H86601763H87305807H87828423H88264713H88672790H89082014
454H89496233H89836005H90011897H90091879H90265342H90624958H91083926
447H91495107H91770488H91885905H91814360H91488155H90877323H90096739
440H89316628H88519981H87439245H85711702H82931500H78614770H72458723
433H64831818H56828492H49617221H43636596H38254989H32034891H23658990
426H13344555H03606396G98075828G98982763H05639625H15245561H24909543
419H33019243H39274913H43996076H47560167H50258091H52309409H53842970
412H54953606H55793856H56522198H57208490H57853273H58378184H58556845
405H58165237H57303254H56380930H55699295H55195172H54657572H54027233
398H53375228H52716271H51999133H51216187H50355419H49265099H47762451
391H45954858H44269162H43026168H42090278H41055507H39669558H37955311
384H36061055H34170780H32508573H31261124H30416150H29708529H28826500
377H27725921H26660237H25856975H25257077H24607704H23724730H22623274
370H21399178H20030981H18426684H16659319H14944937H13369664H11842312
363H10264203H08519516H06400365H03766157H00728260G97557802G94434388
356G91309759G88019901G84511359G80917502G77465857G74455161G72283971
349G71316966G71588162G72574606G73380771G73488156G73401829G74241471
342G76626689G80253753G84509806G89103944G94032520G99168375H03976203
335H07682169H09836080H10574074H10146694H08546987H06075848H03961758
328H03698932H05761860H09370970H13386807H17018326H19676428H20407604
321H17916757H11975682H05035002H01219694H02777081H08247645H14617450
314H20138096H24551683H27958172H30484658H32444722H34184617H35925254
307H37757955H39534297H40869085H41470603H41358561H40687927H39530990
300H37852718H35552950H32644643H29618085H27541119H27541119H30046208
293H34439749H39395392H43624784H46453041H47873278H48277575H48174037
286H47884752H47300850H46045705H43952947H41248139H38243044H35064149
279H31797307H28751648H26360355H24772730H23676404H22611260H21415647
272H20365015H19941752H20423331H21565352H22748815H23545125H24004903
265H24264423H24040068H22654592H19448428H14184130H07348337H00218333
258G94436345G91263119G90958310G92623758G94815601G96684750G98514818
251H01021325H04354042H07980431H11321720H14275181H17186997H20440340
244H24057617H27632575H30444363H31482239H29654938H24484120H16766231
237H08372647H01217264G96381561G93949771G93102300G92362416G90398437
230G86905283G82527536G77987935G73561321G69189445G64699926G59995704
223G55369911G51629184G49694363G50048714G52472134G56032175G59400125
216G61529400G62278531G62515439G63544878G66113616G70080181G75275297
209G81752959G88226774G92889217G95958432G98022035G98681194G97244623
202G93867697G89735497G86335285G84596605G84565557G85714260G87272120
195G88167716G87040139G82900178G75905096G67261239G58374128G50265306
188G43627005G39012012G36914797G37690318G41221404G46747179G53251840
181G60033838G66821237G73442731G79638263G85209935G90134395G94473535
174G98166610H00794473H01674410H00246613G96092478G88731774G77870290
167G63635119G46403021G27279973G09257166F96773904F93010094F97701223
160G07703356G19366347G30273796G39301027G46200265G51635866G56878229
153G62779346G69221303G75515378G80962656G85175108G88031105G89391879
146G89247709G88242231G87661906G88605153G91066978G93999718G96470384
139G98638942H01332748H04767653H08312981H11410544H14038947H16511706
132H19339221H22879554H26699587H29791413H31796565H33407476H35263665
125H37230006H39051166H40819676H42485801H43797370H44835516H45810351
118H46401947H45497982H40936580H29876660H11106680G87317342G64331266
111G48027363G41816375G45635464G55301943G63656110G65116507G59339379
104G51310876G48329743G54094991G65730107G78330676G89516948G98698203
97H05527111H10170722H13549336H16686924H20024703H23137048H25076662
90H25384643H24469946H22872872H20769852H18030014H14303057H09177596
83H02540847G94870003G87106757G80172961G74716571G71589512G71978555
76G76202076G82825325G89524440G94803452G98652913H01604147H03545853
69H03552467H00590772G94257752G85114969G74145020G62228314G50760654
62G41774731G36721423G35377995G35935169G36802417G37937958G40234622
55G44502015G50831052G58275045G65068113G69943436G73136910G75449705
48G77093959G78061032G78917953G80846227G84768111G90022218G94409482
41G96343358G96838166G98332851H01581064H05053024H07493385H09628195
34H12053640H12593940H09359496H06170949H07046363H11837992H17737692
27H21539704H22347218H21784914H21752314H22873884H24528330H25839629
20H26883512H29043765H33059065H35921407H34492666H30910823H29451979
13H32429941H39168337H46723158H51493255H51205050H47268520H44189248
6H44899096H49386051H56384980H63072687H63100698H52937386
$$ === CHEMSPECTRA INTEGRALS AND MULTIPLETS ===
##$OBSERVEDINTEGRALS= (X Y Z)
##$OBSERVEDMULTIPLETS=
##$OBSERVEDMULTIPLETSPEAKS=
$$ === CHEMSPECTRA SIMULATION ===
##$CSSIMULATIONPEAKS=
##END=


$$ === CHEMSPECTRA PEAK TABLE EDIT ===
##TITLE=LIS-P345
##JCAMP-DX=5.00
##DATA TYPE=INFRAREDPEAKTABLE
##DATA CLASS=PEAKTABLE
##$CSCATEGORY=EDIT_PEAK
##$CSTHRESHOLD=0.93
##MAXX=3997.453
##MAXY=0.9482136944250109
##MINX=373.96442
##MINY=0.5295445307125017
##$CSSOLVENTNAME=- - -
##$CSSOLVENTVALUE=0
##$CSSOLVENTX=0
##NPOINTS=34
##PEAKTABLE= (XY..XY)
457.5398016340887, 0.6494070273704959
483.03737569194664, 0.6813851580345038
518.4506729945265, 0.6608446230357453
528.3663962392493, 0.6550927145209275
576.5284805707583, 0.695578573776115
602.0260546286158, 0.6119922381989251
636.022820039093, 0.6507641661824576
653.0212027443313, 0.6928442102060007
685.6014362627047, 0.6620497091597737
735.180052486317, 0.6984896044803343
756.4280308678653, 0.7240846740094207
791.8413281704452, 0.7307956204436656
823.0050297967159, 0.7075513590139971
837.1703487177479, 0.7097407562908683
859.8348589913994, 0.6829856021647678
866.9175184519154, 0.6811444746187841
973.1574103596558, 0.704775033522355
1147.39083308835, 0.6704787003120292
1172.8884071462076, 0.6233850707722215
1213.9678320172006, 0.5295445307125017
1243.7150017513682, 0.607219754684377
1259.2968525645033, 0.5892108666496232
1287.6274904065672, 0.6399005040211329
1371.2028720406565, 0.6713916045794467
1427.8641477247847, 0.771158455155006
1545.4362947693508, 0.6026784763503117
1685.6729520875683, 0.5784909119490828
1757.9160785848503, 0.8693423848111287
2112.049051610633, 0.6043701157099114
2137.546625668491, 0.6371266229304166
2648.9146387177593, 0.8195791224049128
2908.139974972644, 0.7890685780887711
3096.5387166223686, 0.7983762607264117
3386.9277545035234, 0.867728231547927
##END=


$$ === CHEMSPECTRA PEAK TABLE AUTO ===
##TITLE=LIS-P345
##JCAMP-DX=5.00
##DATA TYPE=INFRAREDPEAKTABLE
##DATA CLASS=PEAKTABLE
##$CSCATEGORY=AUTO_PEAK
##$CSTHRESHOLD=0.93
##MAXX=3997.453
##MAXY=0.9482136944250109
##MINX=373.96442
##MINY=0.5295445307125017
##NPOINTS=85
##PEAKTABLE= (XY..XY)
1937.8156288819387, 0.8777288179542027
3327.4334150351838, 0.869839309088778
1961.8966710476934, 0.8693499546827816
1953.397479695074, 0.8689163905487817
3338.7656701720093, 0.8687003833957312
3399.676541532447, 0.8683112247010921
3348.6813934167317, 0.8678083995972194
3389.7608182877248, 0.8666536789059941
3369.92937179828, 0.8665717817609602
3378.428563150899, 0.8665143233266268
1759.3326104769349, 0.865509686909439
3294.85318151681, 0.861595092745808
2418.0199403049255, 0.8611478194788704
2423.6860678733383, 0.8603561506092465
2460.515897068022, 0.8537219740831227
2002.9760959186863, 0.8455581651075994
2515.760640860047, 0.8252355438592897
2579.504576004691, 0.8251080490995878
2731.073488459734, 0.8244355306456096
2603.5856181704457, 0.8225966673496163
2593.6698949257234, 0.8209071739055693
2532.759023565285, 0.8203380682700916
2658.8303619624703, 0.8200913056433989
2634.749319796716, 0.8197762349039865
2638.9989154730256, 0.8197678905599304
2650.331170609851, 0.8194800005344247
3164.532247443315, 0.8059878929558166
3150.366928522283, 0.8040685039579389
3137.618141493354, 0.8016982059999836
2810.399274417514, 0.800557552094288
3114.953631219703, 0.7985398156983254
2820.3149976622362, 0.7984481435988668
3001.6310798514464, 0.7984392623343761
3058.2923555355746, 0.7983708959375302
3107.870971759187, 0.7981967906556959
3066.791546888194, 0.7979420404544464
3015.7963987724784, 0.7978659258011978
2986.049229038311, 0.7978254536572572
3100.7883122986705, 0.7976725081624829
3024.2955901250975, 0.7973149995145126
3042.7105047224395, 0.7972699979874982
3090.872589053948, 0.7972331624197904
3032.794781477717, 0.7970364075733087
2952.052463627834, 0.7962917068784093
3079.5403339171226, 0.7959983328464916
2964.801250656763, 0.7955603585469484
2869.893613885848, 0.7895104273996083
2881.2258690226736, 0.7892752871575197
2893.974656051603, 0.7889490709036261
2859.9778906411257, 0.7889196859900406
2854.311763072713, 0.788260995003438
2916.6391663252543, 0.7871730908811595
1427.8641477247847, 0.771158455155006
382.46361135261895, 0.7454974636299994
392.3793345973413, 0.7324830871896908
791.8413281704452, 0.7307956204436656
406.54465351837325, 0.7256835683117855
756.4280308678653, 0.7240846740094207
416.46037676309606, 0.7119237767544863
837.1703487177479, 0.7097407562908683
823.0050297967159, 0.7075513590139971
973.1574103596558, 0.704775033522355
735.180052486317, 0.6984896044803343
576.5284805707583, 0.695578573776115
653.0212027443313, 0.6928442102060007
859.8348589913994, 0.6829856021647678
483.03737569194664, 0.6813851580345038
866.9175184519154, 0.6811444746187841
1371.2028720406565, 0.6713916045794467
1147.39083308835, 0.6704787003120292
685.6014362627047, 0.6620497091597737
518.4506729945265, 0.6608446230357453
528.3663962392493, 0.6550927145209275
636.022820039093, 0.6507641661824576
457.5398016340887, 0.6494070273704959
1287.6274904065672, 0.6399005040211329
2137.546625668491, 0.6371266229304166
1172.8884071462076, 0.6233850707722215
602.0260546286158, 0.6119922381989251
1243.7150017513682, 0.607219754684377
2112.049051610633, 0.6043701157099114
1545.4362947693508, 0.6026784763503117
1259.2968525645033, 0.5892108666496232
1685.6729520875683, 0.5784909119490828
1213.9678320172006, 0.5295445307125017
##END=

##END=

