##TITLE=X7483
##JCAMP-DX=4.24
##DATA TYPE=INFRARED SPECTRUM
##DATE=29/10/2018
##SAMPLING PROCEDURE=Diamant-ATR
##ORIGIN=ComPlat
##XUNITS=1/CM
##YUNITS=TRANSMITTANCE
##RESOLUTION=4
##FIRSTX=3997.453
##LASTX=373.96442
##DELTAX=-1.4165319
##MAXY=0.83662117
##MINY=0.39248785
##XFACTOR=1
##YFACTOR=7.7916418e-010
##NPOINTS=2559
##FIRSTY=0.69577956
##XYDATA=(X++(Y..Y))
3997+892981969+893351838+893981647+894231414+893947299+893352526+892722563
3988+892456197+892916792+893879904+894653225+894893429+894757721+894346773
3978+893700057+893182853+893202131+893639547+893995187+893949059+893540253
3968+892991072+892504544+892184322+892110731+892383294+892973095+893637176
3958+894072527+894062659+893538340+892691582+892012201+892040659+892859419
3948+893770895+893982030+893756589+894188957+895632937+897020996+897392931
3938+896975633+896220596+895161938+894176717+894264996+895596906+896692513
3928+896322109+895039540+894257117+894482634+894799872+894306611+893337609
3918+893020065+893922208+895330081+896293193+896817052+897358659+897592820
3908+896512283+894036420+891874275+892059630+894404147+897031324+899087518
3898+900347673+900042904+897942876+895279286+894167614+895491568+897068578
3888+896660384+895023246+894036802+893752229+893256138+893532297+895622227
3878+897600470+897504694+896116023+894662098+893207026+892204594+893044774
3869+895152299+896206597+896036082+896167506+896859509+896885977+895770557
3859+893933836+891762588+890104260+891219298+896483979+901589697+903054179
3849+902341216+901035239+899564638+897948307+896244540+894718325+894033666
3839+894931066+896990474+898572762+899027391+899141144+899471233+899631497
3829+899327264+898998780+898698449+897680028+896278735+896552063+898754904
3819+899608547+898502154+898442333+900353716+901606527+900583364+897994436
3809+895430140+894723220+896001505+896664056+895524845+894672579+895732232
3799+897287440+898588138+900488047+902355674+902618445+901512664+900466169
3789+900084978+900073121+900247613+900479556+900164077+899009873+897943488
3779+898180173+899423575+900232696+900002666+899120260+898323607+898438202
3769+899500685+900410095+900744393+901142030+901409009+900688625+899354191
3759+898758959+899051717+898844943+897390406+895200722+893575212+893960381
3750+895304148+894716183+892658917+892526575+895873600+898800497+898109795
3740+894984997+891625809+890040231+891503947+895069681+898486090+900709968
3730+901669868+901574780+901115256+901056352+901327156+901372749+901179973
3720+901021086+900810946+900190546+898959613+897578974+897438753+899744485
3710+903263554+905501432+905577395+903886708+901591610+900460967+901332587
3700+902762874+903095029+902397518+901441520+900711651+900579921+901630930
3690+904263691+907351082+908641453+907707946+905754106+903765994+902044556
3680+900353257+898509345+897509590+899329712+902822772+903693474+901896532
3670+901005251+902860638+905210586+906082359+905883541+905300318+904325502
3660+902769758+901163909+900897389+902449920+903617205+902239856+899184059
3650+897463538+899537404+903543691+906007774+906644315+906501646+906311854
3640+906416197+906682717+906563992+905644790+904006352+901875418+899462895
3631+897791486+898922359+902582491+904844619+904281822+902379618+900786696
3621+900796182+902734493+904756646+904805452+903501846+902750175+903220027
3611+904235464+905546949+907325608+908583544+908023807+906080676+904317470
3601+903516075+903076057+902361947+901723875+901735962+902161751+902091067
3591+901172247+900409407+901511746+904581312+907219581+907843195+906935085
3581+905655499+905154666+905860974+906949772+907363245+907014184+906191293
3571+904739663+902917782+902303732+904206318+906852696+907604979+906665122
3561+905656723+905467773+905924850+906426142+906513503+906218756+906054590
3551+906269474+906411990+906231607+906199402+906563227+906803814+906766712
3541+907055263+907833785+908444623+908358180+907741528+906949543+906102019
3531+905329005+904865809+904742723+904725282+904782273+905300089+906499886
3521+907831414+908441640+908184376+907710470+907528099+907385735+906862794
3512+906202385+906080906+906619147+907150580+907147673+906893699+907056028
3502+907748872+908307844+908159897+907507062+907003780+906992305+907266628
3492+907478910+907479752+907373955+907472484+908000781+908724224+909149248
3482+909143052+908983400+908762244+908318784+907857500+907943713+908653463
3472+909328560+909438794+909094628+908590658+908020211+907452289+907040729
3462+906830282+906691132+906511973+906402581+906652653+907340601+908028091
3452+908169612+907870122+907834015+908445388+909219397+909437340+909075580
3442+908685822+908585533+908522804+908158061+907613164+907326755+907452671
3432+907689892+907775800+907870657+908249400+908824972+909205398+909105415
3422+908595172+908071312+907983569+908461529+909199813+909722372+909711051
3412+909179082+908447224+907928643+907884121+908337373+909104573+909811034
3403+910024311+909598445+908844709+908200365+907783755+907462463+907253700
3393+907309467+907523585+907564129+907408226+907454125+907930020+908526170
3383+908931458+909391671+910190618+910874053+910702085+909763146+908922354
3373+908725142+908921972+909043757+909010710+909133795+909639219+910297409
3363+910756628+911164746+911930798+912878458+913320771+913038110+912484569
3353+911941355+911240708+910450788+910068068+910299857+910731919+910902280
3343+910787380+910632395+910608986+910650372+910495922+910027830+909578556
3333+909671960+910442603+911469973+912194717+912422835+912389023+912398432
3323+912531921+912648275+912496732+911934470+911200011+910812319+911083811
3313+911876255+912756214+913212296+912976911+912367374+912039808+912245971
3303+912590825+912561220+912082035+911485503+911068664+910842765+910749437
3293+910919263+911522069+912466668+913418229+914067087+914292680+914115357
3284+913643822+913171217+913145131+913727511+914438256+914591252+914105718
3274+913547588+913362998+913445463+913506202+913473537+913425344+913487078
3264+913869109+914646867+915453846+915768636+915521317+915086349+914741724
3254+914406968+913874464+913177719+912717812+912889321+913531676+914020346
3244+914051634+914092025+914767810+915918037+916612717+916308178+915613574
3234+915445890+915797246+915917884+915411619+914596684+913989671+913864979
3224+914189101+914705005+915147318+915453463+915699635+915868160+915832282
3214+915618929+915545338+915915283+916619602+917225697+917460929+917398124
3204+917164804+916755998+916233821+915872214+915977705+916673380+917835005
3194+919054539+919780813+919778824+919350587+918862299+918304933+917611936
3184+917046309+916914426+917216976+917826208+918657207+919505649+920030732
3174+920065080+919769032+919475967+919501059+919987970+920716309+921156174
3165+921004401+920608906+920529424+920792348+920944044+920634838+919817455
3155+918736918+917977368+918018141+918608248+919104722+919290536+919290000
3145+919022792+918334385+917331417+916306418+915662915+915833736+916834179
3135+918045681+918745104+918704483+918266684+918040249+918421822+919215874
3125+919869168+920090477+920018034+919865420+919667978+919376214+919087204
3115+919057675+919367646+919683660+919615271+919250527+919113290+919563634
3105+920363805+920905642+920839395+920353708+919855704+919643116+919903286
3095+920652662+921554423+922090828+922033149+921639489+921416803+921688601
3085+922317339+922873328+923059754+922835921+922197084+921055425+919338806
3075+917160979+914938248+913136792+911736034+910249598+908453268+906679045
3065+905301007+904369718+903709768+902942262+901602473+899594778+897263649
3055+894890292+892540804+890380342+888629528+887269926+886196350+885580463
3046+885803379+887021766+888930013+891044117+893163652+895316923+897325689
3036+898904458+900181289+901591839+903234561+904739969+905747297+906227400
3026+906407247+906554200+906831353+907330504+908083093+908882575+909300867
3016+909110310+908525023+907928872+907570249+907525345+907684996+907780925
3006+907600083+907123347+906393860+905385308+904069769+902499949+900770325
2996+898929320+896941897+894785949+892634055+890852030+889760248+889502602
2986+890076491+891231308+892415194+893150418+893441723+893646585+894136785
2976+895169893+896745220+898471784+899853112+900746305+901379939+902000340
2966+902588687+902884659+902757213+902489163+902464454+902716286+903067642
2956+903500852+904093942+904808206+905526677+906108369+906394701+906411837
2946+906499733+906964689+907645141+908075826+908028014+907660058+907272518
2936+907244214+907959854+909272946+910243708+909990040+908666009+907189824
2927+906220898+905653281+904939476+903798430+902587004+901807182+901387207
2917+900865642+900170962+899769117+900081612+901032714+902145916+903037426
2907+903822679+904886387+906256316+907501783+908256361+908558606+908691559
2897+908926103+909397638+910060877+910750279+911320572+911744372+912113782
2887+912559461+913099920+913588744+913897720+914119182+914470385+914990343
2877+915442830+915572877+915432732+915412231+915905950+916890329+917843573
2867+918172744+917737393+916898132+916137051+915768942+915936243+916623580
2857+917569939+918335150+918638312+918557148+918266072+917736322+916921923
2847+916078454+915604088+915619617+915893481+916123281+916225177+916373737
2837+916749802+917279781+917771894+918240828+918830629+919452865+919825411
2827+919909559+920019028+920393869+920895009+921227240+921254321+920985506
2817+920518102+920124978+920129185+920567367+921208192+921899430+922635189
2808+923341803+923881268+924212582+924354486+924257792+923898863+923466189
2798+923289631+923527847+924027533+924529896+924891427+925097054+925242630
2788+925520395+926026966+926578824+926860414+926745896+926378705+925971581
2778+925619996+925318134+925064389+924861057+924691231+924604865+924728027
2768+925123522+925783013+926719733+927811592+928654908+928911789+928711287
2758+928416846+928159123+927850300+927472935+927112628+926841213+926721263
2748+926813903+927105284+927519522+927978358+928364215+928542456+928566400
2738+928706009+929111449+929609835+929948033+930043427+929900528+929508092
2728+928938181+928338359+927761562+927212305+926868522+926970418+927466662
2718+928067019+928652843+929312945+929981387+930383155+930420104+930360741
2708+930534545+930950083+931304270+931330967+931044023+930625042+930212335
2698+929894561+929798403+930019406+930442212+930784005+930936390+931123963
2689+931515940+931847789+931740539+931293024+931029106+931268698+931813289
2679+932276409+932492439+932476604+932228138+931835014+931591520+931734036
2669+932210238+932835534+933420668+933734923+933691625+933511395+933409041
2659+933303397+933066023+932837446+932926490+933497932+934337958+934928448
2649+934946195+934643798+934521860+934741869+935052451+935136829+934893641
2639+934471447+934101579+933899547+933891515+934172416+934848048+935777271
2629+936564514+936928722+936944481+936757366+936271373+935437084+934657568
2619+934436411+934705991+934988499+935167810+935562082+936250030+936920078
2609+937448145+938028537+938662859+939117718+939405504+939706218+939842997
2599+939457982+938731555+938402077+938928079+939918271+940590308+940660380
2589+940487953+940377872+940211565+939927910+939850723+940220439+940744987
2580+940930266+940698017+940462785+940625420+941173300+941846714+942445236
2570+942770047+942620417+942238079+942383578+943455318+944762442+945164211
2560+944326556+942947599+941886416+941497500+941656157+941970105+942022354
2550+941721945+941332034+941047384+940869450+940971881+941660747+942824973
2540+943884549+944387601+944356466+944111978+944010389+944257095+944828690
2530+945572558+946295848+946766618+946850460+946640014+946246813+945642783
2520+944982833+944805740+945493459+946683694+947575280+947752986+947480805
2510+947295450+947523185+948059820+948452026+948300942+947622939+946711157
2500+945811615+945114793+944790670+944841006+945153271+945648138+946081041
2490+946024509+945478465+945079986+945348495+946213077+947422514+948724589
2480+949546792+949295954+948176250+947081102+946570783+946467663+946471947
2470+946661892+947252841+948138001+948817611+948844768+948405898+948192697
2461+948445830+948541835+947922506+946930477+946252780+946114395+946438058
2451+947160890+947997244+948473063+948484997+948360840+948323280+948335672
2441+948356174+948332000+948120100+947749773+947542616+947712595+948110309
2431+948552774+949085661+949709580+950177902+950278191+950020162+949448797
2421+948716098+948388915+949013752+950211484+950899356+950626257+950040893
2411+949919491+950327609+950801515+950923682+950711094+950520766+950489096
2401+950321030+949902891+949628033+949754331+950020621+950200163+950441820
2391+950885357+951463989+952037955+952274946+951680479+950172011+948313641
2381+946716588+945577224+944882697+944573798+944347975+943706538+942366596
2371+940504324+938651461+937249555+936109886+934730853+933432755+933283278
2361+934487971+936012274+937199067+938491121+940246831+942030463+943153150
2351+943156057+941986553+940114489+938368724+937470635+937536424+938159731
2342+938975278+939707978+940175458+940636130+941422914+942291627+942871331
2332+943334604+943791757+943640902+942486315+941052663+940390647+940702454
2322+941488473+942508653+943884319+945406327+946528097+947026482+947168693
2312+947238612+947292390+947464358+948124996+949408177+950754927+951403479
2302+951386879+951598549+952727433+954482301+955915801+956244131+955450462
2292+954337031+953817991+954073266+954676607+955396914+956279091+957064727
2282+957330635+957232794+957367201+957819917+957998005+957489751+956563435
2272+955758291+955394083+955497356+955867990+956232962+956623945+957423580
2262+958661474+959583659+959532176+958901678+958507483+958438176+958327330
2252+958260011+958630415+959639962+961407147+963807277+965860947+966233799
2242+964839850+963170277+962576421+962866885+963013914+962583230+961872179
2232+961243134+960900423+960740465+960188301+958913000+957474451+956498564
2223+955921691+955495443+954828379+952948589+949391347+945247135+941615460
2213+937923275+932990978+926855135+920816369+916408237+914405591+914330088
2203+915236974+917135123+920906713+926634820+932694548+936995658+938846226
2193+939070289+938585520+937890840+937698829+938695754+940673767+942938955
2183+945253637+947559751+949525296+951130839+952833230+954418655+954579072
2173+952717794+950419024+949789979+950977537+952580863+953884315+955275970
2163+957207473+959927672+963058742+964851171+964030881+962206094+961899183
2153+963706070+966295916+967899241+967797116+966813120+966091207+965721950
2143+965239017+964491171+963225355+961157762+959269634+959473884+962026323
2133+964823096+966151334+966507357+966986771+967452645+967048352+965695176
2123+964487881+964613874+965918321+966976826+967000005+966877532+967497779
2113+968057057+967227664+965235039+963616261+963431518+964420869+965533153
2104+965998721+966002392+966175431+966579954+966772041+966685980+966688199
2094+966899028+967179700+967584757+968180066+968611593+968429527+967705548
2084+966856418+966049439+965357513+965256535+966154700+967513079+968295961
2074+968271941+968045582+967992569+968058281+968443756+969608593+971456025
2064+973022325+973316843+972219935+970299142+968286781+967188114+967909875
2054+969730072+970198930+967966254+964776662+963538845+965165273+968284486
2044+971349616+974021468+976618581+978577393+978414146+975946927+973153902
2034+971665171+971127847+971124099+972172201+973737812+974103397+973330613
2024+973631633+975720798+977214196+975832027+972202953+968525609+966416707
2014+966755135+969182422+971145518+970088772+967187502+966197386+968238970
2004+970606512+971114307+970726538+971298744+972674258+972965487+971317257
1994+969407021+969668109+972498848+975970794+978174248+978530806+977200503
1985+974831736+972591487+971512786+972176867+975055417+979809244+984198327
1975+985791937+984566819+982105719+979516562+977483775+976898947+977889751
1965+979104236+979128792+978054452+977143129+977230260+977708374+977176482
1955+975033309+972412481+971418081+973194140+976781446+980035602+981728736
1945+982437109+983176541+983845288+983874128+983683647+984005858+984527499
1935+984452913+983823562+983264208+983091398+983409248+984140724+984687380
1925+984563147+984156712+983913448+983475190+982708295+982475052+983257093
1915+984059942+983820120+982789307+981991354+981902234+982046510+981925336
1905+981666620+981444392+981003839+980158840+979186855+978418201+977912012
1895+977637001+977569147+977653678+977873840+978238430+978839247+980087009
1885+982273174+984633984+985641924+984763113+983158640+982293063+982574118
1875+983451628+984276738+984869369+985390781+985800811+985751776+985329659
1866+985235107+985860174+986884255+987636997+987715178+987404213+987445369
1856+988316071+989762499+991028008+991474834+990985246+989916643+988910998
1846+988683492+989495826+990552037+990889011+990574298+990171535+989937450
1836+989655631+988971890+987896632+986976206+986838662+987381034+988025914
1826+988731609+989637883+990297451+990199763+989532010+988899599+988605846
1816+988337950+987679759+986723991+985804406+984852846+983578845+982133259
1806+980899802+980003779+979524900+979723795+980560303+981391379+981643135
1796+981304018+980695093+980240082+980164272+980170162+980066431+980322470
1786+981426721+983131407+984700691+985910509+987063337+988185871+988952307
1776+989245601+989383527+989928730+991056389+992137385+992841780+993509610
1766+994018705+993885216+993315916+993008470+992956910+992607696+992094470
1756+991810891+991504286+990865756+990220953+990081879+990487090+991061438
1747+991515531+991737300+991784116+991921278+992420352+993105393+993390043
1737+993217080+993459580+994824460+996236617+996734926+997071518+997689700
1727+998112811+998011834+997515666+996609316+995218349+993893860+993920711
1717+995919991+998185867+999208801+999442273+999543251+999489014+999089005
1707+998586717+998262442+997714638+996639992+995786119+995991823+996493727
1697+996594322+996906664+997201947+996658581+995609561+994913963+994629619
1687+994348489+994873649+997927150+1002309119+1004987703+1005925647+1006171895
1677+1006526388+1007665445+1009314670+1010293311+1010732946+1012434878
1669+1015950581+1018895149+1019884883+1020120191+1021254200+1023376643
1660+1025010644+1025237384+1024192113+1022597203+1022376199+1025912481
1652+1029784895+1029986851+1028606900+1028826450+1031844380+1035097541
1643+1036602567+1036877731+1036721674+1036575486+1037124820+1039509268
1635+1043222107+1045672650+1046214334+1046011078+1046239502+1047298084
1626+1048855587+1050946818+1053987926+1057233209+1059275557+1060288776
1618+1062040661+1065716016+1069542685+1071565756+1072254698+1072761040
1609+1073455643+1073741823+1072775268+1070123612+1065647244+1059032064
1601+1049634338+1036808041+1020361543+1001101672+981402701+964123827+949386528
1591+932949363+908690412+873238858+829479526+785995127+752293164+733711066
1581+729950416+738499623+759970216+795670235+832898995+852907936+854696005
1571+844472328+826897023+808660927+795212776+786915554+782290473+780091686
1561+781300204+792349143+815569019+834546612+844845945+852851633+860937262
1551+869124098+877235583+884277852+889305466+892880609+896006478+899038407
1541+903645357+911986872+919756792+922986163+923796585+925650977+929974502
1531+934643721+937817172+940327766+943376678+946501934+948717092+950940589
1521+954869688+959795559+964195276+968579081+973272321+977031289+979005248
1511+979423081+978829149+978979009+984295862+994724707+1002181903+1004996577
1502+1005639927+1005687049+1006265758+1008694270+1012868316+1016673642
1493+1018685391+1018318430+1012432277+992907339+954467843+904351664+857155115
1483+826324511+818466771+829767388+850060750+871675006+891769167+909912700
1473+926802963+942163875+954001816+962172970+968072510+971273041+967961052
1463+954841690+933857703+908908126+883243673+861743859+847381172+832807426
1453+811859087+786610938+763278303+748358403+744561645+749005654+756980284
1443+766263109+776146139+785506610+794017874+803424550+814853149+825328658
1434+832331148+837501890+843259144+849880903+855803163+860319845+864157300
1424+867751491+870725740+873294243+876761294+881457441+885610986+888181937
1414+889722993+891040445+892563294+894153997+895457603+896602322+897988545
1404+899296129+899754736+899324510+898457556+897077682+894649323+891381856
1394+888542473+887119836+887115400+888581105+892104764+897603377+903483181
1384+908333701+912120973+915221444+917386496+917547601+914270189+906589848
1374+895338189+883906071+876440307+875656584+881730692+891501958+900860517
1364+908279158+914392587+919643345+923813567+926871200+929098215+930935472
1354+932821305+934885379+936959780+938857624+940477702+941814049+942922890
1344+943770796+944229250+944299705+944186717+944000826+943477349+942268372
1334+940368386+938036492+935539668+933326040+932342579+933586057+937123410
1324+941880450+946484416+950083350+952360471+953184816+952691020+951606352
1315+951016398+951542323+952722002+953265827+951993739+948649009+944081379
1305+939645785+936316125+934391507+933881417+934880254+937433075+941141477
1295+945180964+948859991+952032753+954878256+957463512+959680353+961491983
1285+963027531+964415973+965674215+966820388+967954932+969097280+970039737
1275+970545773+970649122+970558012+970237332+969301912+967498926+965213926
1265+963358233+962750837+963619321+965610569+968194907+971003614+973661773
1255+975248269+973984825+967590801+954473887+935458121+914597678+897523054
1245+888166944+886725488+890432437+895928832+901042200+905057896+908007742
1235+909935114+910746454+910515353+909708909+909112529+909638913+912108580
1225+916856134+923303784+930068671+935815444+940109364+943437876+946519146
1215+949699941+952870102+955695792+957910262+959539826+960878315+962195919
1205+963526988+964775209+965903174+966939342+967901230+968792358+969634679
1196+970463920+971271128+971929472+972195456+971786726+970432402+968046806
1186+965163590+963012002+962648712+964017265+966230434+968591244+970898888
1176+972907501+973625131+970710932+961057703+943900996+923878591+908742125
1166+902454968+902100629+902810073+903758421+907520296+915242175+924895940
1156+933776538+940777193+946123039+950224183+953303158+955575919+957280987
1146+958434580+958731317+957998846+956827277+956387565+957387932+959429821
1136+961526713+963013226+963840248+964282713+964609896+964935472+965216297
1126+965395456+965572855+965971717+966663949+967391294+967776079+967694532
1116+967348302+967015305+966820311+966664484+966321543+965709251+965075999
1106+964778881+964919943+965320641+965747577+965973323+965651878+964280877
1096+961418392+956963520+951053041+943740579+935410922+927857261+924101507
1086+926135211+933003218+941647972+949345831+954990326+958697198+961071932
1077+962791840+964273075+965533841+966460005+967113146+967663245+968134473
1067+968415451+968529127+968710887+969094908+969483748+969613183+969462176
1057+969076625+968340483+967172203+965705962+964103784+962368499+960336019
1047+957725977+954398842+950676287+947144749+944151757+941769680+940109670
1037+939348436+939588870+940845276+942961216+945533850+948204860+950955659
1027+953833138+956569784+958787084+960339461+961081035+960548378+958326871
1017+954662837+950469130+946820779+944493628+943743180+944338260+945791190
1007+947535884+949025380+949909699+950124429+949684259+948497772+946516622
997+943882943+940634830+936324539+930360894+922880443+914744784+906536835
987+898634802+892877013+892633749+899588964+911211410+922931390+932401560
977+940452764+948476811+956421683+963357621+968723509+972566243+975244674
967+977264226+979048546+980695016+982068388+983083290+983815377+984452072
958+985164270+985948147+986644586+987169364+987637915+988226415+989018860
948+990041564+991329335+992811564+994196334+995166637+995659285+995786119
938+995674202+995591814+995922439+996745559+997717086+998504329+999042723
928+999323778+999253093+998811622+998176840+997627813+997317995+997058054
918+996357790+994882522+992928529+991157902+989554424+986652771+979830357
908+966365682+945129021+918902231+895151610+882401964+884273416+897395685
898+915070743+931482128+942480807+945662061+942558835+939386609+942396277
888+952134343+963884770+973227646+979303438+983260459+986028776+988053071
878+989553965+990482194+990854052+991074978+991555234+992320292+993202928
868+994107213+995036666+996089281+997328322+998571800+999569566+1000359180
858+1001105573+1001706313+1002031813+1002427003+1003428441+1004990533
850+1006449124+1007306134+1007682658+1007904961+1007985820+1007802760
841+1007624213+1008023763+1009212927+1010820231+1012341626+1013441670
833+1013940821+1013992228+1014134132+1014709398+1015392833+1015598766
824+1015175349+1014514022+1014160065+1014413274+1015184299+1016165771
816+1017110217+1017916738+1018486496+1018612030+1018131851+1016877816
807+1013772908+1006277386+992187262+971918609+946807545+915003272+872401739
798+818918722+760164368+700640902+639682673+578517709+528063599+503729335
788+512349151+547377402+595787288+646565100+693741454+735135463+770268860
778+799372212+823331290+843348876+860323900+874813038+887227163+897752778
768+906495220+913853886+920500661+927003006+933371939+938936340+943017060
758+945228928+944331069+938381652+928349298+920275144+920761137+930418650
748+943788544+955261665+963034798+967763687+969960485+968014754+955478002
738+923389614+873356130+826778604+810203743+829444872+866281119+900142428
728+924052930+940572866+952766141+962020203+969126808+974609203+978840394
718+982131040+984677129+986682606+988428830+990207336+992157122+993947179
708+995006602+995363696+995515009+995322616+994022989+991333925+987826789
698+984431188+981769051+979292193+974705820+963899993+940451463+896278123
688+827930973+746495979+678125114+648326088+663796928+709758185+763461899
679+807375299+832312789+838524518+836885009+840932910+855265916+876752420
669+901674687+924577019+939639588+947632807+952319239+956432699+961056708
659+965775346+969648449+972336901+974272688+975889171+977188492+978262680
649+979665427+981816556+984366700+986614446+988409858+990181021+992059816
639+993564153+994451149+995347325+997012385+999311461+1001464503+1003024071
629+1004072861+1004792939+1005349157+1005839204+1005916850+1004975922
620+1003231152+1002131949+1003033863+1005639697+1008412297+1010170226
612+1010188050+1007415526+1001608013+995221333+992066854+993204076+995200831
602+993557727+988005259+983337799+983930124+988906637+994403414+998523683
592+1002018885+1005927330+1010547285+1015456786+1019457870+1021546117
584+1021701485+1019401950+1012542128+1000071394+985420309+974358672+966381900
574+951021218+920961562+887818571+875328636+893570852+928571984+960915952
564+982920195+996234245+1004278029+1009711848+1013202002+1012542434+1005595099
554+995092204+988451397+991092343+1001007120+1011911018+1020501229+1027778654
544+1033218134+1028250571+998369463+939407952+872953214+833936310+837860973
534+869335309+903697834+928790463+945108214+956597017+965907764+973693443
524+979445189+982891356+984114026+983440230+982311346+982973362+986186438
514+990313898+993321347+994953666+996535036+998892175+1001457618+1003513660
504+1004776874+1004564821+1002421571+999877930+999383829+1001410877+1004006920
494+1005305324+1005704874+1006575117+1007998442+1009298835+1010226605
486+1010235631+1007708284+1000361628+986609320+968570360+953895025+950728230
476+959487042+973433503+986312507+995797288+1002063866+1006167994+1009075537
466+1010757885+1010073991+1005632200+996389690+980881748+956969563+926811531
456+901694270+892943796+901739557+920629331+939216477+951941950+960756759
446+969522839+978564695+984758676+985332413+981450206+977668519+977889445
436+982457687+988587487+993623439+997196669+1000483107+1004656007+1009363858
426+1012455991+1012081303+1008973641+1005382587+1003215393+1005382051
418+1013683711+1023352469+1029005302+1029698529+1027043354+1022741325
409+1016913540+1009201453+1001016147+995048600+992589795+991925332+989162218
399+981570308+973104331+971179560+971635030+963738888+946347102+927947453
390+915991781+910338871+907685532+909684659+921890556+943791757+967598680
380+985960845+995050665+994719352+990328203+989694416
##END=
