##TITLE=LL- 206
##JCAMP-DX=4.24
##DATA TYPE=INFRARED SPECTRUM
##DATE=29/8/2019
##SAMPLING PROCEDURE=Diamant-ATR
##ORIGIN=Marie
##XUNITS=1/CM
##YUNITS=TRANSMITTANCE
##RESOLUTION=4
##FIRSTX=3997.453
##LASTX=373.96442
##DELTAX=-1.4165319
##MAXY=0.95562887
##MINY=0.47589022
##XFACTOR=1
##YFACTOR=8.8999874e-010
##NPOINTS=2559
##FIRSTY=0.90343267
##XYDATA=(X++(Y..Y))
3997+1015094319+1015319545+1015576582+1016072306+1016722667+1017232120
3989+1017368675+1017034888+1016312868+1015576381+1015282844+1015451412
3980+1015605647+1015414309+1015089966+1014991853+1015174417+1015508873
3972+1015966758+1016559591+1017170573+1017630199+1017897215+1018046494
3963+1018066318+1017798298+1017185641+1016434287+1015776358+1015313115
3955+1015215471+1015711128+1016633461+1017325679+1017351530+1017138761
3946+1017401826+1018047633+1018246606+1017491702+1016290365+1015548721
3938+1015605246+1016140483+1016616115+1016667080+1016274359+1015744145
3929+1015467887+1015591382+1015967093+1016412119+1016903356+1017431896
3921+1017783832+1017726035+1017304047+1016809261+1016486860+1016405489
3912+1016601180+1017181221+1018168249+1019255533+1019860487+1019496765
3904+1018194837+1016667549+1015748029+1015649782+1016024488+1016557984
3895+1017202920+1017844575+1018125454+1017888776+1017609639+1017629194
3887+1017545279+1017002340+1016584906+1016955058+1017564902+1017568384
3878+1017238951+1017246318+1017447300+1017483330+1017498332+1017615063
3870+1017529474+1017325210+1017481522+1017860581+1017953203+1017783899
3861+1017874043+1018433322+1019290090+1020199029+1020721140+1019921967
3853+1017300766+1014861325+1014273783+1015049984+1016541977+1018266965
3844+1019555968+1019820505+1019170077+1018198855+1017250336+1016509429
3836+1016296125+1016587049+1016921706+1017009506+1017032812+1017229240
3827+1017500207+1017731125+1018103152+1018600752+1018622651+1017882079
3819+1017190530+1016863709+1016425581+1016149055+1016648663+1017525188
3810+1018098331+1018269912+1018222764+1018060023+1017976308+1018083128
3802+1018176553+1018155658+1018149229+1017963316+1017373028+1016732579
3793+1016495700+1016539232+1016610958+1016848038+1017390374+1017835735
3785+1017639374+1017039175+1016862035+1017350726+1017904247+1017990975
3776+1017809348+1017767089+1017976777+1018286052+1018416714+1018289668
3768+1018185193+1018217808+1018201467+1018216669+1018529762+1018965077
3759+1019022874+1018736570+1018811645+1019588315+1020623160+1021053453
3751+1020378446+1019670087+1020268612+1021457358+1021381814+1019291430
3742+1017314696+1017390976+1019028298+1021018493+1022225121+1021894080
3734+1020482988+1019329537+1019132238+1019700760+1020412333+1020548688
3725+1019845888+1018899244+1018484623+1018706835+1019198272+1019660041
3717+1020047271+1020402087+1020557327+1020087789+1018870513+1017655246
3708+1017162268+1017338270+1017949787+1018798653+1019547797+1019815148
3700+1019600638+1019386596+1019591730+1020104331+1020369070+1019959739
3691+1018945521+1017769701+1017023838+1016984459+1017410063+1018060759
3683+1018858257+1019710203+1020554849+1021373577+1021735224+1020829968
3674+1019379162+1019393963+1020693011+1021443763+1020784763+1019944537
3666+1019883860+1020184429+1020238743+1019989274+1019843142+1020076873
3657+1020489217+1020780075+1021082317+1021598601+1022026416+1021695643
3649+1020319109+1019012091+1018986508+1019913931+1020817311+1021033696
3640+1020609297+1020088258+1019863501+1019946010+1020238341+1020677541
3632+1021143529+1021304060+1020683100+1019527505+1018859932+1018900851
3623+1019303953+1019804633+1020067631+1019642897+1018595662+1017623904
3615+1017210622+1017467458+1018242721+1018898172+1018685671+1017701055
3606+1016975418+1017188521+1018066385+1019067008+1019858746+1020344089
3598+1020587263+1020700780+1020723818+1020668634+1020677541+1020888100
3589+1021090220+1020760385+1019817023+1019046448+1018951482+1019197335
3581+1019299064+1019173091+1019076384+1019127684+1019168068+1019207447
3572+1019620461+1020583915+1021537925+1021466868+1020066090+1018624326
3564+1018330119+1018826513+1019338913+1019638544+1019888749+1020144313
3555+1020312345+1020352729+1020242493+1019968312+1019704711+1019655956
3547+1019678057+1019420082+1018931725+1018695918+1018963001+1019476740
3538+1019827537+1019932415+1020116520+1020614521+1021152370+1021251153
3530+1020775788+1020035283+1019458725+1019229280+1019203161+1019160366
3521+1019089711+1019099891+1019105985+1018911299+1018563113+1018328914
3513+1018322351+1018422875+1018522997+1018665714+1018969162+1019465087
3504+1019942528+1020050888+1019781461+1019587712+1019681405+1019639012
3496+1019001510+1017995931+1017341752+1017482794+1018282101+1019240464
3488+1019799744+1019672431+1019073169+1018513488+1018290405+1018237029
3479+1018051651+1017776197+1017778809+1018298308+1019113218+1019751525
3471+1019968981+1019936835+1020040306+1020499999+1021053854+1021094506
3462+1020332704+1019229615+1018541950+1018593853+1019174832+1019872542
3454+1020333106+1020433162+1020335852+1020265934+1020281203+1020373825
3445+1020591349+1020831174+1020789384+1020410726+1020117390+1020255888
3437+1020594161+1020690467+1020489954+1020247650+1020083034+1019924043
3428+1019767531+1019762039+1020028586+1020494976+1020937190+1021154848
3420+1021085398+1020822334+1020566167+1020458678+1020456133+1020469460
3411+1020535829+1020674393+1020733730+1020580164+1020287632+1020045664
3403+1020048611+1020421910+1021063766+1021681579+1022130356+1022510353
3394+1022837777+1022924840+1022720041+1022459990+1022318479+1022150782
3386+1021758530+1021282094+1021128126+1021470217+1021986970+1022208512
3377+1022009740+1021605767+1021232669+1021065909+1021246666+1021682182
3369+1022067269+1022335155+1022756072+1023394177+1023861103+1023790515
3360+1023245567+1022618847+1022361073+1022709660+1023444674+1023984733
3352+1023908854+1023392034+1023037888+1023228289+1023719592+1024015473
3343+1024023241+1024073269+1024345710+1024566716+1024391585+1023937652
3335+1023714435+1024003083+1024569998+1025075700+1025464604+1025808035
3326+1026062125+1026154814+1026095075+1025822367+1025130550+1023954863
3318+1022620722+1021487362+1020413539+1018993205+1017300766+1015903872
3309+1015140931+1014900771+1015074563+1015681325+1016569369+1017468998
3301+1018335209+1019297122+1020329490+1021263342+1021971499+1022238247
3292+1021688410+1020233921+1018395484+1016798680+1015512021+1014082445
3284+1012026819+1009194255+1005798191+1002112945+998143404+993745981+988992739
3274+984177011+979498844+974937408+970435309+966147786+962428585+959388677
3264+956576539+953346298+949379971+944638449+939170753+933223942+927215518
3254+921426626+915980562+911100408+907061284+903866939+901203746+898759818
3244+896510778+894658946+893344360+892566552+892448414+893344427+895475866
3234+898616834+902346683+906473340+911088621+916331895+922135922+928126934
3224+933853007+939137937+944080173+948752314+953102119+957054248+960502013
3214+963332501+965612348+967565240+969294179+970760991+972053677+973377639
3204+974764889+976026299+977012456+977752894+978345794+978832878+979204102
3194+979471787+979710675+980023231+980496319+981190881+982076514+982925647
3184+983401078+983356341+982927790+982295846+981560096+980866873+980393718
3174+980133869+979905562+979594278+979233234+978885451+978573095+978232478
3165+977700455+976902355+976057575+975482490+975223510+975103029+975034717
3155+975058827+975154931+975256795+975365088+975500907+975648110+975815339
3145+975998975+976084296+975975334+975807771+975841725+976170020+976640496
3135+976998526+977075074+976944346+976888893+977115123+977562427+978054400
3125+978538203+979086098+979713957+980312549+980807067+981260733+981711452
3115+982035996+982163443+982288613+982678120+983372883+984188330+984910819
3105+985491865+986122403+987017813+988091703+988975527+989314537+988906546
3095+987720077+985922760+983711224+981080579+977986357+974685929+971735696
3085+969692459+968844733+969085898+970049954+971492857+973429341+975845744
3075+978554678+981423876+984410608+987255495+989442252+990598785+990733465
3065+990025843+988592181+986545864+984137766+981673747+979273551+976806049
3055+974085663+971018564+967575286+963880797+960443346+958060697+957300435
3046+958070877+959687772+961345319+962635862+963700376+964921201+966584307
3036+968762224+971221555+973403356+974717540+974884701+973953930+972154001
3026+969760770+966942672+963848517+961001353+959298466+959347088+960995527
3016+963610835+966628776+969809124+973082361+976220986+978777426+980398942
3006+981084397+981124713+980950654+981028408+981728663+983190921+985226456
2996+987335057+989006535+990119402+990897813+991466871+991666513+991283101
2986+990229570+988472503+986034134+983174112+980439192+978393143+977345037
2976+977350462+978292015+979874220+981729400+983611771+985374665+986864247
2966+988041407+989077659+990143177+991219076+992207309+993061197+993753817
2956+994268494+994680905+995155198+995789955+996464225+996913336+997023907
2946+996982652+997057861+997332780+997732734+998189413+998631560+998915587
2936+998931124+998708711+998259801+997404372+995941378+993913611+991557148
2927+989118042+986849781+985066193+984052980+983948839+984706087+986131712
2917+987969747+989952174+991820481+993397126+994661818+995732627+996780465
2907+997921460+999093195+1000083504+1000758846+1001207958+1001632826+1002172215
2897+1002773687+1003150335+1002971119+1002171947+1000968065+999548937+997926081
2887+996119522+994379801+993168619+992875685+993511246+994707761+996038620
2877+997284560+998450804+999668414+1001029143+1002398981+1003483050+1004170112
2867+1004651504+1005097401+1005441032+1005622726+1005802277+1006120526
2859+1006454446+1006628572+1006718984+1006930413+1007271366+1007569256
2850+1007786712+1008111458+1008641672+1009145031+1009316344+1009199612
2842+1009132574+1009316478+1009660310+1010033342+1010421174+1010819656
2833+1011173667+1011442157+1011613671+1011677160+1011654055+1011624587
2825+1011677897+1011864413+1012184068+1012576187+1012924908+1013108410
2816+1013085372+1012971319+1012973127+1013168216+1013408443+1013521692
2808+1013517071+1013473071+1013345557+1013049207+1012680060+1012511291
2799+1012737120+1013264052+1013788306+1014048892+1013979242+1013651014
2791+1013156362+1012564869+1011965741+1011518035+1011366077+1011434723
2782+1011447916+1011286046+1011167305+1011323751+1011666712+1011946185
2774+1012084347+1012204963+1012469166+1012959599+1013589400+1014067577
2765+1014120753+1013811612+1013487603+1013348704+1013288497+1013227017
2757+1013304436+1013588797+1013897001+1014088272+1014281485+1014626723
2748+1015066861+1015431923+1015627212+1015688290+1015712199+1015746288
2740+1015758811+1015743475+1015773612+1015900322+1016077998+1016219442
2731+1016271211+1016243418+1016194127+1016170151+1016176714+1016223795
2723+1016342871+1016544120+1016813882+1017138360+1017470338+1017716726
2714+1017817184+1017786578+1017662613+1017484000+1017322598+1017257100
2706+1017299292+1017386690+1017449376+1017468597+1017483397+1017547020
2697+1017644531+1017657523+1017485138+1017223614+1017117933+1017266677
2689+1017475629+1017503757+1017355080+1017226159+1017241496+1017351396
2680+1017462971+1017567380+1017667703+1017635624+1017320924+1016838595
2672+1016524766+1016530391+1016681278+1016796469+1016885006+1016965506
2663+1016939923+1016746977+1016492552+1016339321+1016337714+1016429264
2655+1016581022+1016810935+1017040648+1017058864+1016761912+1016377964
2646+1016297263+1016619062+1016993031+1017059601+1016945749+1017064021
2638+1017509181+1018022854+1018497012+1019055422+1019625149+1019869395
2629+1019645910+1019225931+1018994411+1019125273+1019551146+1020109957
2621+1020669638+1021121563+1021329175+1021253631+1021127724+1021279884
2612+1021741787+1022220835+1022435880+1022326382+1022048584+1021877337
2604+1021957301+1022129151+1022178777+1022130155+1022078051+1021931450
2595+1021571612+1021102409+1020791527+1020839210+1021234008+1021774603
2587+1022211258+1022381433+1022282850+1022063853+1021850147+1021570674
2578+1021151298+1020806662+1020828026+1021185989+1021649969+1022132834
2570+1022644631+1023075459+1023256751+1023131381+1022803220+1022503187
2561+1022451284+1022634585+1022826191+1022890819+1022929729+1023087313
2553+1023369733+1023672645+1023854875+1023831502+1023693138+1023629448
2544+1023712225+1023904233+1024213575+1024608171+1024908807+1024979663
2536+1024862998+1024616878+1024269764+1023989555+1023988952+1024210494
2527+1024380334+1024419512+1024566984+1024965733+1025338698+1025320749
2519+1024972564+1024641791+1024409534+1024038645+1023465971+1023019069
2510+1023077468+1023678405+1024505236+1025195446+1025615023+1025842860
2502+1025973522+1026007007+1025881369+1025594596+1025339836+1025443374
2493+1026016852+1026738337+1027156575+1027163607+1026997517+1026834308
2485+1026592942+1026190309+1025829935+1025899786+1026562135+1027520700
2476+1028278617+1028609457+1028688617+1028771662+1028837361+1028601688
2468+1027933513+1027223614+1027110432+1027734205+1028526747+1028888394
2459+1028781440+1028565792+1028577713+1028966349+1029648187+1030355206
2451+1030858765+1031092563+1031059412+1030829298+1030605412+1030538172
2442+1030525649+1030436175+1030415279+1030675464+1031051778+1031082785
2434+1030634946+1030192867+1030318438+1030951923+1031486624+1031472895
2425+1031012867+1030491560+1030166145+1030043319+1029986929+1029887878
2417+1029758623+1029637739+1029457050+1029126411+1028672209+1028098330
2408+1027261587+1026161846+1025195312+1024802054+1024984083+1025366022
2400+1025541823+1025272396+1024638577+1024085123+1024046414+1024483269
2391+1024967340+1025169527+1025122513+1025080187+1025258265+1025704631
2383+1026334298+1027056319+1027870894+1028804746+1029710068+1030271090
2374+1030409989+1030483590+1030727367+1030857024+1030700311+1030680487
2366+1031155316+1032032711+1033274900+1034744324+1035628818+1035144814
2357+1033661527+1032224383+1031197575+1030169427+1029061381+1028430978
2349+1028718152+1029793917+1030948909+1031210299+1030304374+1028998696
2340+1027941348+1027040915+1026098759+1025372451+1025311574+1026027166
2332+1027111905+1027803789+1027603677+1026906570+1026597161+1027026114
2323+1027671520+1027765481+1027222140+1026838795+1027392248+1028656806
2315+1029671359+1029909175+1029682677+1029359070+1028922147+1028488305
2306+1028495203+1029144761+1030091137+1030794741+1031000812+1030820659
2298+1030442403+1029961413+1029587510+1029676784+1030263589+1030853475
2289+1030946297+1030546142+1030018473+1029703907+1029735585+1030006016
2281+1030301160+1030566568+1030921853+1031339956+1031545961+1031413625
2272+1031265149+1031525133+1032215811+1033039897+1033774508+1034314701
2264+1034595982+1034714857+1034823819+1034830583+1034591495+1034272978
2255+1034121287+1034181227+1034544950+1035289406+1035941107+1035696191
2247+1034412949+1032911914+1032234161+1032853917+1034375779+1035774548
2238+1036212007+1035754323+1035081258+1034579842+1034126578+1033690325
2230+1033566963+1033762855+1033672711+1032850501+1031868496+1031870505
2221+1033151471+1034558143+1034733876+1033795336+1033145578+1033658446
2213+1034772318+1035437882+1035329656+1034917312+1034653310+1034355755
2204+1033572254+1032421548+1031608178+1031630881+1032424428+1033589801
2196+1034515281+1034574886+1033668425+1032478273+1031944978+1032410631
2187+1033373683+1034285301+1035232078+1036180731+1036240671+1034927023
2179+1033515998+1033710416+1035434868+1037091143+1037704737+1037726637
2170+1037600194+1036710342+1034600670+1032393085+1031684659+1032406211
2162+1033134327+1033324861+1034113853+1036514651+1039453098+1040633472
2153+1039205771+1036863841+1035968096+1037105877+1039096273+1040654635
2145+1041195967+1040702989+1039676582+1038842785+1038452877+1038172601
2136+1037800506+1037630398+1037918577+1038350946+1038271652+1037405173
2128+1036251788+1035546175+1035330861+1035026609+1034462173+1034102669
2119+1034101798+1033984531+1033534281+1033156762+1033155758+1033388015
2111+1033704791+1034061682+1034238755+1034061548+1033798082+1033789711
2102+1033812481+1033330888+1032362680+1031643472+1031811637+1032723188
2094+1033696017+1034217659+1034298561+1034249471+1034174061+1033781406
2085+1032814202+1031470819+1030218450+1029434145+1029283727+1029554426
2077+1029701362+1029538688+1029607066+1030430616+1031905331+1033636547
2068+1035220760+1036224396+1036608680+1036970527+1037749541+1038621578
2060+1039094063+1039190368+1039269261+1039412714+1039162374+1037999345
2051+1036158028+1034664628+1034398081+1035252638+1036419887+1037386890
2043+1038382556+1039730360+1041068185+1041929172+1042880436+1044738296
2034+1046635802+1046390552+1043380781+1039858611+1038626132+1039959671
2026+1041635434+1041979200+1041702071+1042221704+1043558189+1044663689
2017+1044813304+1044167832+1043354395+1042655747+1041834139+1040914351
2009+1040574470+1041345715+1042964620+1044740774+1046023347+1046380640
2000+1045854512+1044911953+1043860432+1042511892+1040614586+1038525273
1992+1037197427+1037139497+1037629193+1037548559+1036681210+1035814999
1983+1035853709+1037248995+1040221396+1044688134+1049344067+1051880550
1975+1051570739+1050471802+1050770093+1052193642+1052948814+1052313990
1966+1051409739+1051451262+1052136850+1052254050+1051197640+1049387130
1958+1047603274+1046467971+1046197942+1046307307+1045985106+1045067662
1949+1044137360+1043631657+1043423844+1043192859+1042679656+1041705554
1941+1040452917+1039453031+1038856648+1038084131+1036687103+1035211987
1932+1034458690+1034306397+1034130462+1033746715+1033201231+1032444988
1924+1031824295+1031996345+1032953570+1034105549+1035252170+1036555303
1915+1037810552+1038576640+1038791351+1038819077+1039044772+1039593336
1907+1040368064+1041105421+1041441284+1041307608+1041213513+1041727052
1898+1042762767+1043710416+1044136690+1044140306+1044077353+1044114991
1890+1044149080+1044069584+1043953322+1043925394+1044022704+1044182298
1881+1044223485+1044001809+1043667621+1043548880+1043753813+1044152763
1873+1044660207+1045218683+1045566935+1045370843+1044711172+1043975891
1864+1043334169+1042770871+1042268785+1041721426+1040997195+1040260775
1856+1039848364+1039704174+1039413785+1038867163+1038400773+1038228991
1847+1038109312+1037530008+1036121729+1034246725+1032811858+1032257333
1839+1032414315+1032919884+1033512850+1034158992+1034953141+1035908291
1830+1036843214+1037564163+1038160814+1038781238+1039322101+1039680332
1822+1040042917+1040579761+1041124709+1041414830+1041503098+1041673608
1813+1042008399+1042248693+1042066598+1041422197+1040553106+1039658500
1805+1038767107+1037845712+1036947958+1036253462+1035943518+1036037077
1796+1036400398+1036853662+1037255090+1037602404+1038073549+1038798450
1788+1039695133+1040571055+1041275529+1041838358+1042390405+1042939639
1779+1043352519+1043543790+1043549282+1043402413+1043078338+1042659497
1771+1042434473+1042565737+1042952632+1043440252+1043882734+1044111776
1762+1044034089+1043827549+1043745308+1043737740+1043661125+1043616120
1754+1043769819+1044024847+1044079295+1043828018+1043510104+1043224604
1745+1042847888+1042423355+1042160492+1042076911+1041994201+1041913634
1737+1041966944+1042042287+1041820142+1041330580+1040896470+1040548485
1728+1040291381+1040297476+1040645728+1041185653+1041709304+1042106044
1720+1042197125+1041514752+1039791170+1037873037+1036677727+1036187763
1711+1036113692+1036259222+1036441719+1036458194+1036269334+1036107397
1703+1036194996+1036628637+1037505161+1038704355+1039847694+1040723616
1694+1041414294+1042064254+1042670012+1043219715+1043873826+1044788859
1686+1045723448+1045934744+1045205222+1044473423+1044243108+1044421989
1677+1044788792+1045061501+1045101684+1045094518+1045204820+1045325168
1669+1045306014+1045240315+1045239511+1045214330+1045047504+1044849268
1660+1044856367+1045111261+1045539812+1046088376+1046562401+1046494827
1652+1046107530+1046101168+1046296189+1046212475+1045778767+1045534119
1643+1045713938+1046106124+1046504538+1046775706+1046743359+1046209997
1635+1045438484+1045004843+1044881280+1044684317+1044137427+1043295727
1626+1042470034+1041788665+1041122566+1040472138+1040000323+1039703370
1618+1039482029+1039439234+1039762707+1040361099+1041094639+1041953750
1609+1042915864+1043871884+1044706484+1045336888+1045728672+1045987115
1601+1046319294+1046812005+1047362980+1047836804+1048185123+1048452206
1592+1048712123+1048951413+1048939492+1048200862+1046094538+1041914438
1584+1035210112+1026673777+1018665178+1014032016+1014834067+1021628404
1575+1030980118+1037834126+1041641194+1043900950+1045294495+1046061454
1567+1046624886+1047242297+1047893328+1048518776+1049096339+1049530583
1558+1049690511+1049788290+1049990678+1050214631+1050370206+1050393445
1550+1050269615+1050117120+1050133662+1050452179+1051090486+1051934127
1541+1052739862+1053258892+1053564819+1053880657+1054218863+1054496126
1533+1054663488+1054777273+1054942625+1055225513+1055627343+1056070025
1524+1056445133+1056668685+1056763650+1056934428+1057280403+1057669441
1516+1058020239+1058375389+1058727526+1059026018+1059299061+1059603648
1507+1059839120+1059883790+1059952235+1060171768+1060479436+1060820790
1499+1061197974+1061616011+1062028087+1062415853+1062807235+1063144303
1490+1063218039+1062770133+1061674410+1059806639+1056738670+1051684993
1482+1044113116+1034868355+1026185822+1020331767+1018686274+1021473499
1473+1027532621+1034318184+1039638676+1043397792+1046422029+1049258410
1465+1051916045+1054062886+1055602162+1056687370+1057202046+1056344810
1456+1053312804+1048366750+1041069524+1029518731+1010656044+981010527+941172333
1446+900449110+870706350+857680440+861174750+876805856+898768859+923656178
1436+948654602+968838438+982711606+993026304+1001718817+1008715073+1013712762
1426+1017334385+1020384674+1023123277+1025339836+1026779793+1027330232
1418+1027060337+1026183946+1024752763+1022692315+1020160453+1017728178
1409+1016177384+1016071033+1017543806+1020311072+1023709814+1027156441
1401+1030536096+1033794667+1036595151+1038758535+1040565161+1042270459
1392+1043806520+1045071680+1046113893+1047041851+1047932507+1048805013
1384+1049646243+1050423047+1051112385+1051790607+1052604915+1053608149
1375+1054692219+1055681858+1056473998+1057106545+1057687725+1058303930
1367+1058943710+1059472049+1059722188+1059678857+1059566412+1059586637
1358+1059663119+1059604586+1059393424+1059288614+1059559045+1060140961
1350+1060746653+1061246931+1061739373+1062302336+1062892289+1063443666
1341+1063946355+1064448106+1064999751+1065575171+1066121794+1066658571
1333+1067208944+1067703194+1068047897+1068257585+1068436466+1068626063
1324+1068731476+1068635171+1068325360+1067833186+1067074331+1065777828
1316+1063539034+1060036553+1055413503+1050386346+1045730882+1041857780
1307+1039139403+1038303195+1040042247+1044220806+1049697878+1055038194
1299+1059364426+1062577991+1064975776+1066796801+1068072944+1068834479
1290+1069330068+1069884392+1070612575+1071431637+1072220362+1072817414
1282+1073079474+1073102445+1073177051+1073430070+1073687844+1073741823
1273+1073583569+1073319634+1072975735+1072488182+1071836883+1071065035
1265+1070210008+1069351232+1068686672+1068378469+1068296697+1068028475
1256+1067149741+1065390866+1062475860+1057774654+1050164804+1038471897
1248+1022407351+1003334775+984057802+967348185+954012130+942187623+928980889
1238+913345832+897405451+884539469+875909039+868951024+859372946+844633835
1228+825711343+805899200+788163444+773473491+761185340+750559892+741766655
1218+735688713+733067981+733824224+737001089+741315802+745879180+750515758
1208+755496436+761029698+766928155+772659049+777758803+782277578+786852542
1198+792399532+799678140+808932076+819768618+831402188+843059936+854198385
1188+864454082+873526591+881148161+887164220+891654265+894972239+897599602
1179+899877373+901837833+903331702+904358377+905202955+906168887+907285438
1169+908418731+909569504+910812564+911906411+912143692+910703802+907112986
1159+901420198+894160007+886214898+878446393+871211584+864292881+857416840
1149+850756179+844783852+839679477+835055891+830362856+825552018+821316398
1139+818631440+817943507+818701827+819700909+819910263+819015924+817349871
1129+815510898+814034710+813258978+813385085+814537800+816694018+819674991
1119+823350259+827769180+832939588+838537008+843978518+848713813+852231429
1109+853879399+853111570+850117069+845992287+842082887+839147923+837043341
1099+834910161+831515839+825605997+816358022+803898825+789477293+775052547
1089+762701711+754263489+750979871+753027796+759484462+768959136+780175071
1079+791878158+802299878+808831217+808715356+801181184+789456465+779739086
1069+777080046+782236056+792533543+804892081+817519845+829673316+841002635
1060+851300792+860481192+868599959+875839322+882382247+888257733+893329560
1050+897440411+900482998+902251651+902267456+899882463+894647762+886648606
1040+876587998+865656222+855350364+847245393+842535481+841387789+842652346
1030+844517372+845873815+847177350+849778460+854295561+859781875+864448791
1020+866921249+866824676+864495805+860277733+854104759+845804164+835659841
1010+824394949+812554235+800041328+786336191+771369377+756560749+745038820
1000+740136164+742580293+748705114+752131515+748278036+737494536+723724102
990+710665778+699569721+689847453+680724648+672311943+665654831+661996306
980+661984653+665518544+672129847+681317213+692565898+705178057+718104582
970+729932102+739097568+744191161+744239581+739120004+730053455+719574341
960+710696317+705912468+706610915+712658451+722099840+731791770+739138488
950+743369888+745086906+745050674+743864406+742387080+741552546+741530379
941+741655348+741729619+743189868+748353714+758294510+771738055+786149273
931+799606146+811544036+822193994+831835562+840571673+848445189+855530183
921+861952760+867862937+873326012+878292492+882800217+887103745+891404595
911+895567282+899335640+902735119+906050079+909505546+913132059+916834316
901+920461766+923878390+927015607+929828750+932248233+934179359+935430188
891+935738458+935219428+934797641+935713947+938397097+942097546+945754062
881+948948272+951874396+954674211+957194821+959373943+961451938+963605276
871+965684075+967487285+968949744+969964699+970409190+970300495+969341930
861+966299343+959651072+949520143+938796047+931684399+930735813+935327788
851+942923306+951205818+958820691+965027686+969610888+972972796+975757207
841+978358116+980865265+983204785+985215004+986818438+988141596+989276162
832+990085447+990533889+990956949+991653587+992493813+993267000+994094301
822+995146425+996228954+996972673+997305723+997544946+998030557+998695116
812+999039015+998664242+997817185+997166489+996973008+996749658+995916799
802+994571942+993436773+993223938+994161205+995960130+998161419+1000489084
792+1002832220+1005059830+1007105544+1009128087+1011372573+1013858894
783+1016232167+1017959030+1018803408+1019060512+1019113955+1018767779
775+1017141306+1013195741+1006180666+995332070+979190975+955493608+921787201
765+876988957+824532710+774400378+738934224+724839045+731160696+754677843
755+792724613+839749864+886243897+924261467+951871784+971319468+985253245
745+995359059+1002690240+1008080919+1012315801+1015993480+1019286943+1022073162
735+1024319859+1026230492+1028067590+1029920694+1031659009+1033126893
727+1034327560+1035272730+1035661031+1034859783+1032096401+1026330279
718+1015970241+999535945+977180153+950363182+918038800+874879485+818748640
708+760951006+723475035+722062001+753020362+797315784+834900852+853106815
698+845630038+811501308+758711676+704417997+664975538+645966920+645231907
688+662249861+697784124+745828282+793868220+832192051+859214759+878387391
679+892950902+904151702+912371261+918121042+922040220+924728393+926440991
669+926625230+925199739+924084461+924522322+926707337+930597584+935595005
659+940605151+944811771+948079718+950634818+952637671+954180027+955415787
649+956534146+957641455+958591782+959174703+959760035+961239839+963827488
639+966512447+968212990+968798790+968582405+967620291+965977745+963979781
629+961767174+959209729+956641837+954929172+954114194+952651267+948648575
619+941008990+928864961+911965547+893476696+880082308+876345627+879833642
609+884174742+886089728+886678074+887238090+886941607+883655377+874768580
599+857767503+831375868+796422584+755938851+714282445+675253001+640698264
589+610700008+584643633+562378320+545049718+535049250+534708867+543975661
579+559191007+575560810+590722512+604973132+619155307+633492052+647675232
569+660975391+672316765+680387714+683459500+679290384+666152966+644818826
560+619185109+594201285+573619102+560075501+555821264+561527680+574597691
550+590189953+604610012+617252108+629168098+640893219+652212290+662871290
540+672710558+681559449+689119338+694853782+698658438+701572038+704746559
530+707864958+709505762+708771419+706184507+703335267+701471313+700243589
520+697860941+692486670+683619763+671919556+658216630+643771591+631014371
510+622867208+621453772+627723051+641250579+659948382+680642675+700480401
500+718275962+734197122+748354317+760608379+771247823+780908410+789733527
490+796937461+801693182+804637455+807872987+812972607+819454320+825927059
480+831789552+837067249+841745953+845864372+849482044+852185688+853353672
470+853150547+852117176+849929347+845543511+838081802+827351210+814740657
460+803830916+798768130+800923611+807337951+814837029+823180687+832569905
450+841844200+849407170+853731928+853673596+849973013+845414188+842865115
441+843323603+845449215+847201728+848243672+850164551+853562356+857097117
431+860345173+864476317+869526043+873500740+874555074+872944407+870330506
421+867436930+863670782+860503762+861921082+868887602+878916064+888228734
411+893745922+894688346+892302081+888640877+885093458+881864289+879488672
401+880119343+886914684+901080116+917813173+930935589+940006960+946881261
391+952095938+955036728+954574155+949293779+939487730+930344163+927738432
381+930738358+934385364+933247315+918741065+882156954+833803991
##END=
