##TITLE=X9713
##JCAMP-DX=4.24
##DATA TYPE=INFRARED SPECTRUM
##DATE=19/11/2018
##SAMPLING PROCEDURE=Instrument type and / or accessory
##ORIGIN=Default
##XUNITS=1/CM
##YUNITS=TRANSMITTANCE
##RESOLUTION=4
##FIRSTX=3996.5625
##LASTX=399.65625
##DELTAX=-2.0390625
##MAXY=1.079564
##MINY=0.6635288
##XFACTOR=1
##YFACTOR=1.0054223e-009
##NPOINTS=1765
##FIRSTY=0.95062464
##XYDATA=(X++(Y..Y))
3997+945497870+945829441+946232566+946527560+946459443+946247802+946453871
3982+947302391+947688443+947067511+946654248+946839567+946600774+945680996
3968+944890573+944693338+945257832+946174113+946532065+946980780+948272798
3954+949572819+950291627+950650231+950362056+949457631+948972814+948402806
3939+947378392+947212873+947998791+949168448+949996219+949491423+948928707
3925+949366869+949507192+949665063+950680229+950833002+949156176+947525355
3911+946965781+947771262+951780881+957945206+961381023+960565464+956572800
3897+951637415+950297734+952977038+954121559+953402039+955623795+957611679
3882+957630175+957415333+954816832+953904642+957046117+960930708+962645534
3868+960329221+958482668+958725314+956952924+954804916+956593549+963679966
3854+972616077+969662529+958626963+952589029+952681926+956640917+961954825
3840+966857664+967771396+963658624+960124931+958264150+956775964+956481267
3825+957249399+960863244+966876160+968059986+966183140+962419902+955583482
3811+952235820+955165951+959865567+961262457+963111025+963904294+960329161
3797+957256751+954153572+951562659+950997987+950851439+951162438+951917113
3782+952742928+954510931+954370963+951440239+950694516+953898358+958014093
3768+958936006+957724495+956136950+955641936+957754729+959243330+959671889
3754+964098446+972888543+976062209+972077193+971419743+969698455+963398252
3740+961882559+967038181+972944269+971405930+963609063+957004263+954745692
3725+955538664+957233156+957877386+956465676+954653626+955541213+960695294
3711+965176037+962061950+956251189+954164361+955748112+956063676+953565838
3697+951902945+952867008+957687087+965272728+967635519+961030659+954677220
3683+953100406+955587929+961573753+969602950+971850139+969225672+968612506
3668+963878387+956505277+952870921+951824335+952289293+955253690+958081083
3654+958803627+963418646+972970117+975048348+965581771+956928144+953645100
3640+953303747+953388166+953954380+955927503+960700215+967372242+966451159
3625+958339499+954706565+957967378+963086956+963388886+961991462+962430928
3611+962415396+961444100+959113441+955367810+953402098+954239532+955601742
3597+956027099+955507896+954514903+955169508+958470870+960012352+956949130
3583+953908732+952564427+951654311+950867919+950253390+950380849+952929730
3568+957796168+960335860+957953921+955005234+953521376+952777550+952930915
3554+954005897+954329406+953496833+953412888+953885256+953174332+951612516
3540+950667127+950793697+951219409+951429272+952126917+953443003+954265083
3526+954107805+953044798+951663144+950778817+950409127+950430884+950604168
3511+950598003+949979916+949654867+951293513+953329358+952982847+951094322
3497+949873977+949306163+948475487+947735218+947391494+946907209+946640791
3483+947139125+947226094+946269678+945669850+945388848+944293532+943313106
3468+943182802+943121147+942988649+942105863+938611238+933493142+930870987
3454+932291768+934749530+935882966+936484987+936928306+936660169+935731260
3440+934344211+932943705+931727748+930703156+929979723+929327727+928441028
3426+927261292+926213047+925373301+923863002+921591922+919411427+917629256
3411+916350161+915445085+914604034+913869160+912929758+912002984+911849263
3397+912296080+913277158+914385813+914610852+914546530+914961334+915407203
3383+915725672+915528437+914401879+913155390+912539082+912210950+911622149
3369+910698220+909656081+908584300+907087815+905387454+904290181+903641564
3354+903448419+904245956+905554218+906578394+907280781+907839763+908399989
3340+908916464+909388655+909848514+910066380+910351888+910933990+911396517
3326+911717417+912165361+912529122+912817476+913297729+913772410+914309397
3311+914961334+915379162+915776597+916583856+916988819+916315659+915805290
3297+915806653+915376969+915408211+916338127+916425036+915403765+914456597
3283+913803948+913505280+913943382+914406858+913740515+912183798+910749441
3269+909746903+909080619+908848170+908054605+906015974+903974676+902593259
3254+901251799+899528437+897767548+896140047+894493812+893363222+892599536
3240+890862420+888335177+886534272+885815048+885434687+885002039+884650134
3226+884011239+883216785+883000342+882901754+882506157+882280703+882337911
3212+882672446+883109778+883134440+883113573+883540471+883795270+883344303
3197+882759771+882895114+883484626+883872812+884414898+885504345+886597468
3183+887258120+888098578+889524635+890796734+891370476+891329393+890960948
3169+890609814+890344284+890521185+891297380+891980323+892651764+893701373
3154+894569338+894948869+895064887+895647522+896644309+897064331+897570787
3140+898616780+899206588+899727510+901034763+902065046+902195765+902875862
3126+904495242+905792655+906246882+906344640+906709825+907110935+906716702
3112+906322646+907212546+908431587+909105400+910182279+911467479+911860467
3097+911830233+911938780+911935698+911292179+910102128+909364526+909286747
3083+909679557+910389533+910748552+910441168+909803103+909177962+908377698
3069+907127890+905729637+904236115+902282852+900729099+900875232+902223925
3055+903451324+903998034+903662254+902914100+902992413+903803229+904214951
3040+903862038+902593378+900482185+898166109+896026697+894320527+893768956
3026+894544677+895700047+896650831+897446352+897798790+898085958+899581199
3012+902473211+905238712+906509981+907093328+908286461+909969571+911829166
2997+913729548+915150388+915835346+916491315+917601274+918667126+919232392
2983+919542265+919805897+919451384+918276154+916004007+911319864+905934282
2969+904536859+906563395+907492185+907062382+906585923+905065961+902751723
2955+901621252+901845343+901732171+899977448+896469720+892290137+889027901
2940+887169610+885992364+885009923+884553739+884612607+883732430+880920628
2926+877545517+876460398+879521367+885615738+892028461+897150766+900601225
2912+902473981+903361332+903705175+903900809+904066684+903977107+903897193
2898+904058681+904920540+906761816+908681703+909809980+909953801+909503842
2883+909248094+909040307+908445637+908099957+908339105+908784381+909074394
2869+908650282+907327141+905671183+904100653+902978600+902715798+903010969
2855+903593426+904937850+907025330+909171382+911341265+913609262+915504724
2840+916923074+918126227+919118509+920063898+921264086+922534169+923452169
2826+923914815+924297133+924770094+925122592+925347750+925836777+926763254
2812+927490422+927643373+927754825+928272901+928823879+929075477+929378651
2798+929725813+929742057+929500478+929198904+929164520+929608848+930139077
2783+930606821+931010006+931251348+931395465+931485220+931711860+932036020
2769+932250685+932365516+932406125+932491730+932751509+932980164+933074365
2755+933116456+932996526+933011703+933495691+934122196+934363953+934096941
2741+933732824+933523080+933371315+933325607+933654570+934022896+933927747
2726+934002977+934448490+934593794+934454774+934401835+934659124+935166173
2712+935648797+936005741+936425644+936981365+937385676+937597139+937824787
2698+938097905+938230165+938069389+937901677+938076740+938229810+938108161
2683+938089901+938112547+938000087+938006134+938233782+938489529+938878842
2669+939578147+940063083+940161434+940308456+940354638+940364420+940761854
2655+941078723+940987604+940929033+941002781+941098701+941208731+941104155
2641+940532072+939957796+939993485+940227060+940421865+940892692+941330498
2626+941770617+942490493+942592816+941815316+941382905+941679676+942020496
2612+942129458+942376017+942898895+943566186+944381686+944612653+943719315
2598+942499859+942013797+942484031+942654233+942000991+941915446+942590563
2583+943249792+943849916+943814346+943338776+943580177+944121670+944155758
2569+943457342+942651032+942990546+944052071+944481874+944091020+944093392
2555+945316700+946515051+946298193+944954777+943929355+944380500+945952157
2541+947478047+948083447+947722709+946971650+946463712+946417174+946241459
2526+946008476+946192610+946317164+946211817+946395832+947076878+947927769
2512+948654581+948883355+948471278+947962509+947614873+947466843+947782229
2498+948156958+948230173+948784945+949597303+949403387+948414069+948183102
2484+949154339+949492431+948674145+948435234+948746233+948577691+948568561
2469+949178348+949892414+950669143+951209687+951103926+950950382+950715680
2455+949809655+949036721+949222277+949871428+950167963+950006297+949828270
2441+949831590+950109154+950665467+951187159+951207612+950431832+949456031
2426+948895923+948767279+949671229+951131611+951584712+951429153+951681640
2412+951952090+951846566+951842772+951900870+951450377+950840590+950813438
2398+951360859+951912430+951928911+951440654+951215319+951364001+950921689
2384+949477254+947467791+945163750+942596550+940211113+938578039+937606862
2369+937144986+937520960+937963035+936616121+933856963+932109828+932512538
2355+934640331+936988953+939016438+941007583+942044683+941498092+940711938
2341+940691722+940755333+940784322+940805072+940230677+939299338+939373264
2327+940520690+941082813+940438820+940128057+941292439+942911759+943823475
2312+944061142+944580344+945723205+946794808+947876193+948971094+949429116
2298+949646211+950617566+951614532+951674112+951825462+952626555+953501575
2284+954212559+954691982+954511464+953771788+952918525+951899210+951386173
2269+951665456+952351244+953747600+955491653+956329384+956326182+955527223
2255+953596132+952112926+951480493+950970479+951083769+952033901+954020362
2241+956504210+957046829+955461359+954854536+955370656+955648160+957046532
2227+959224419+959909140+959103244+957589092+955632747+954302610+954294844
2212+955214741+956304188+957154487+957954217+958608822+958718141+957810989
2198+956580092+957123660+958874945+959609523+960660377+962027032+959962258
2184+956086915+955066118+957244894+960405281+961140867+959088423+957874659
2170+958292547+957043746+954657716+955582475+957389248+956030656+954750494
2155+954786479+953315782+951612161+953821289+959497062+963780036+963802267
2141+961257773+959216238+958607992+959401735+960594631+960163168+958717903
2127+958717014+960155699+960674842+959552137+958679547+959483487+960928870
2112+961739094+961545771+960429350+959885604+960023971+959446257+958772681
2098+958952368+959298049+959108995+958751280+958423859+958227335+959030326
2084+960969894+962555245+963191472+963432874+963298479+963000403+962991273
2070+962669721+960606962+958054880+957975204+960384235+963242515+965219551
2055+965889391+965837815+965995390+965612124+964465113+963580726+963684946
2041+965058300+966505937+967283495+966591660+964892900+963570114+962760128
2027+964975007+968126561+965189138+958410342+955952995+958531043+960391468
2013+959763955+960351926+963232971+965835147+966796246+965844751+962993644
1998+960261638+960867690+964769591+967634392+966893826+965501146+965972625
1984+966371364+965979739+967139555+968744411+968362627+967652414+967885575
1970+968198116+967858008+966818833+966255346+966915643+966502617+963984563
1955+961997094+961868983+961729786+960696717+961221196+964145102+967093255
1941+967657335+965999302+964663118+964742024+964631461+963670006+963178727
1927+963666272+964752518+966040148+967360741+967986949+966551229+964737341
1913+965278537+966713902+966496392+965495158+964950642+964471812+963756441
1898+963630465+964535422+965401609+966540558+968218450+968138181+966471789
1884+965276285+964722757+964797513+965520887+966660251+968025661+970635485
1870+974476799+974807362+970952591+968677361+968822131+969089913+969428064
1856+970004001+970015027+969559555+970057889+972932887+977183492+977398156
1841+973507697+971693868+971828322+971676735+972654256+975810730+977533144
1827+976849550+976035591+973625255+970654456+969226146+968392209+967616963
1813+968164799+969216838+968766464+967882611+968524055+970886905+972814261
1798+972031664+970573712+972080454+974114164+970521128+964998543+962604095
1784+962304122+962477051+961811715+959633710+958703142+960554141+960060371
1770+952308205+942257806+934209223+929223270+924394713+918099964+912390341
1756+905882943+900269417+898369391+896931596+891920387+885585622+881181178
1741+879190033+877701373+878791294+887956891+899699232+901551476+898532479
1727+896450335+897689294+902015426+909718566+922942334+936113340+939410316
1713+939500486+943287259+951800444+963316382+972708856+980488886+990851884
1699+996458355+994536216+988240044+982584961+982286589+985949994+994540307
1684+1003900767+998803005+989457781+987210414+990536320+993152961+995008525
1670+997586396+993910838+988450915+988421095+988040557+983785268+982736489
1656+990163962+1001241323+994122597+983140267+976565820+955671992+923249836
1641+890225362+857507146+828092900+802574568+793721868+807571133+834770915
1627+861203809+875794885+874591732+857458119+834164685+803430736+770583163
1613+757450098+765808554+788325853+814514144+837497171+856521444+870696411
1599+877590869+874362010+858823292+835350704+816160735+810464094+816532025
1584+828774064+845359545+864539733+884426873+901076795+906339424+908766003
1570+913467101+912171645+905730704+900373282+901154219+909857644+904840626
1556+882902347+864043474+847976602+831335928+814683753+804282517+803404355
1542+810200521+810110648+799161812+792086363+783538201+767610526+753747566
1527+745365456+743008297+749439990+761816009+773845636+786170553+797692656
1513+807413499+818967379+833220778+839913435+825057838+810839772+805864252
1499+804403514+797952198+788036966+789237984+805254168+822116917+828828367
1484+833069428+837544005+838612999+837809001+841219918+851287094+862472765
1470+867060988+870605530+877401281+881375449+879594404+876817579+867902217
1456+846767936+834864345+838694869+851893027+867022632+875414109+874984068
1442+867850225+860016900+860782186+870438352+880061377+889043433+896325899
1427+900250684+904178373+908839811+914204762+919772877+920088737+917401312
1413+916915664+917937291+919288592+921224722+922641116+922693522+924183250
1399+927421950+929658646+928862413+924363234+919747207+916235033+910107641
1385+900818617+891775499+883955987+877515224+873151210+868711906+861175353
1370+851933281+841502640+832442804+832085623+840744882+850532715+856855208
1356+858835682+858827560+862132598+870478427+880266853+887222906+889823304
1342+889470924+888345670+886813377+884583559+882245252+880573999+880094161
1327+881442439+884779015+889024166+893179503+897448664+902515776+907696831
1313+910519659+909232562+904218093+896230098+885945175+876106477+871861208
1299+876076005+885539678+894801788+901088889+904089034+904385864+902446059
1285+898864406+894542364+889221698+882203398+875071215+871683595+874640166
1270+882793740+892665399+901737803+909480247+915641549+919816865+922508796
1256+924619396+926086596+926251581+925399385+924269922+922670995+919997263
1242+915983139+910779023+904351836+896725942+889264737+884322001+883546636
1228+886959807+893351424+899843112+900045268+889867114+877745835+873295387
1213+871784554+866201382+857694244+850692424+850654483+859714911+872060992
1199+879952948+882101312+884088307+891001498+900264615+906686586+911790098
1185+920001710+930468810+939420809+945692912+950141226+952987116+954098142
1170+953550187+951043338+947782229+946115304+945400053+943195073+941614228
1156+946077067+955509141+962578010+964562218+965338413+967947585+971362475
1142+973133560+971808818+967142816+960770465+956995608+959098561+965537783
1128+972130192+976110762+976977246+974573846+967919722+956858071+944715806
1113+937941693+939752439+945230147+947988060+947327823+944551710+938229987
1099+927373397+916297103+910862909+911859993+915437378+917343688+918352866
1085+921923256+924442614+920660524+913024493+905069340+895944293+884029439
1071+868698212+852392310+846014980+859045485+884492737+908038836+924048855
1056+934833890+941976685+944905394+945162920+946059341+947586950+945601378
1042+936010899+918622664+901556159+895706331+897979663+897040558+893990794
1028+895838354+904528618+918759727+931274646+934203947+929607899+927641772
1013+934142233+943992492+950556742+955277344+960796491+964726077+968228410
999+974152046+978390201+977014060+973189761+972406393+975697321+979859002
985+982956786+985813643+989025488+991887917+993743540+994759892+995097213
971+994093963+990878087+985140008+979451015+978776075+982508190+984991385
956+985528668+986148652+987352160+990865579+996180910+999899744+1001223182
942+1001971336+1003534634+1005792850+1007879974+1009445168+1010331215
930+1010137003+1008625756+1004624852+996305997+985090981+975929356+971265488
916+968251293+962036162+951806432+941505799+929085970+909520678+892625324
901+892371355+902673825+910307129+916685764+926742209+937977678+947948044
887+957597510+968282713+979063540+987984000+994497267+998295778+999972900
873+1001844470+1004973082+1008094579+1010202808+1011824677+1013337110
860+1013971322+1012836879+1009755931+1005574924+1001849569+999866427+999031601
846+997613429+995371457+992586451+988047078+980043313+968971584+960505707
832+963421313+977285755+991464576+999596333+1002503344+1002435998+1001226621
818+998721550+992533452+983390561+976250789+973274180+970868053+965644018
803+959595828+956622065+957510127+959388041+961131737+964741965+970200584
789+974045455+973574390+970789325+969958115+974075511+980205038+980033828
775+969444604+953217727+941300086+935688161+924587858+908053834+905519952
761+920007342+935452629+943860231+945308164+940701445+931970275+920769901
746+903798487+872852719+834179031+811613832+811156344+815480104+816962006
732+825004601+846880574+875922521+900792236+918226712+930515881+939086630
718+944599967+946075585+940717570+927662225+908019687+882352969+849292333
703+806656809+760045694+720160495+685615526+659950350+663790597+696519188
689+734047228+763491234+786109965+803624355+817076956+830003835+844141038
675+855647254+860204116+859001734+861320774+874522667+884044971+888323024
661+895009990+904918998+915253007+925344252+933732942+940434077+947208309
646+952987768+956533792+957066985+951226642+934437879+905293905+872295753
632+852709831+851011605+854155570+855723196+862440456+877401815+895501863
618+912160974+924989264+932347553+936031115+939653614+943978619+948409623
604+953346846+959215052+965201766+970231648+974792423+977733343+977947949
589+979434949+984847919+988995964+987546550+981664471+973418535+968051983
575+970817603+978837137+984626022+981394377+964768820+941594368+923733468
561+917065117+926017887+945617088+959820749+963730594+961931527+949102288
546+929994485+926944542+942635203+957580555+956262275+933709229+897364422
532+868819565+865596812+883132069+903517306+912130324+907511749+895765317
518+886945342+886971249+886263229+878835935+874118000+877392567+881936860
504+884970322+890783158+900432743+913428508+926461029+928102521+911391656
489+884386146+862277783+853689842+855571372+860867317+866859544+874279191
475+885154812+899124125+911260521+917767800+919695334+920677242+920984151
461+920112332+922699984+929030362+935347757+944116453+956584835+966122552
447+968872522+970161160+972484587+974518179+980051435+990739128+999560407
432+1003229800+1006281224+1009823040+1013339481+1018378197+1026893991
420+1039089374+1044361665+1039658729+1039728446+1048570416+1059374541
408+1065063119+1067011521+1068723264+1070522627+1073741823
##END=
