##TITLE=X7424
##JCAMP-DX=4.24
##DATA TYPE=INFRARED SPECTRUM
##DATE=29/10/2018
##SAMPLING PROCEDURE=Diamant-ATR
##ORIGIN=ComPlat
##XUNITS=1/CM
##YUNITS=TRANSMITTANCE
##RESOLUTION=4
##FIRSTX=3997.453
##LASTX=373.96442
##DELTAX=-1.4165319
##MAXY=0.87971109
##MINY=0.33494109
##XFACTOR=1
##YFACTOR=8.192948e-010
##NPOINTS=2559
##FIRSTY=0.87816447
##XYDATA=(X++(Y..Y))
3997+1071854076+1072475153+1073348530+1073741823+1073441943+1072700172
3989+1071866153+1071288072+1071228271+1071653501+1072261191+1072780053
3980+1073105250+1073176037+1072922281+1072408731+1071923699+1071754916
3972+1071859314+1071935703+1071855313+1071797185+1071870809+1071826285
3963+1071392106+1070816863+1070719522+1071261663+1071836907+1071711775
3955+1070766737+1069641059+1069235980+1069911256+1071090844+1071837561
3946+1071822866+1071447179+1071309606+1071729453+1072363771+1072568783
3938+1072243877+1071751861+1071267192+1070830467+1070736109+1071115215
3929+1071490466+1071414877+1070962656+1070450633+1070174470+1070190257
3921+1070180945+1069808604+1069175087+1068768190+1068961417+1069758042
3912+1070942140+1072171271+1072967460+1072888888+1071898309+1070591043
3904+1069865714+1069998194+1070400290+1070602320+1070697551+1070919005
3895+1071269302+1071469004+1071240929+1070881830+1071091644+1071746841
3887+1071862661+1070779323+1069074182+1067764661+1067144021+1067381262
3878+1068518144+1069743783+1070027367+1069088950+1067566341+1066319168
3870+1066102006+1067383590+1069393705+1070588715+1070121071+1068661464
3861+1067625560+1067485805+1067848470+1068297563+1068468455+1067810858
3853+1066457759+1066147766+1067380680+1069089750+1070392505+1070811261
3844+1070248967+1069108593+1068030130+1067215680+1066546370+1066450338
3836+1067467763+1068961490+1069651171+1069069889+1068053556+1067730249
3827+1068353800+1069368896+1070126818+1070275230+1069700278+1068753931
3819+1068056247+1067596169+1067231176+1067389337+1068221174+1069064069
3810+1069307713+1068943011+1068559249+1068794235+1069233288+1068676087
3802+1066775681+1065120447+1065448409+1067256858+1069128890+1070121362
3793+1070104265+1069574928+1069077819+1068876226+1068966437+1069159591
3785+1069152971+1068749639+1067978258+1066963525+1066021834+1065654877
3776+1065984367+1066710642+1067627597+1068604573+1069282032+1069228996
3768+1068469183+1067555792+1067250528+1067979277+1069195021+1069715628
3759+1068876880+1067408398+1066642183+1066826898+1067082982+1066218917
3751+1063904775+1061924853+1061800375+1062524177+1062500605+1061510025
3742+1061057950+1061679099+1062323020+1062124773+1061235681+1060579538
3734+1060719511+1061664985+1063470233+1065703984+1067390792+1067878152
3725+1067396904+1066641601+1065931259+1065226737+1064600858+1064272969
3717+1064423855+1064987531+1065451538+1065037002+1063710748+1062999314
3708+1063958175+1065603879+1066509630+1066157588+1065070685+1064236812
3700+1064096547+1064337645+1064736758+1065476419+1066835774+1068848507
3691+1070968913+1071862661+1070399999+1067546043+1065149548+1063828314
3683+1063359942+1063389552+1063676846+1064055443+1064193525+1063865126
3674+1063674882+1064005608+1063880258+1062536326+1061307195+1062059078
3666+1064143690+1065757311+1065930968+1064998589+1063977745+1063442878
3657+1063389697+1063958029+1065318258+1066913472+1067777174+1067130271
3649+1064835772+1062172061+1060889458+1061337169+1062716967+1064051805
3640+1064893609+1065334408+1065344375+1064645237+1063354340+1062077412
3632+1061069881+1059945221+1058791242+1058842168+1060190028+1061465138
3623+1062086506+1062355321+1062598455+1062888660+1063345101+1063920562
3615+1064156422+1063879967+1063687686+1064110661+1064826605+1065243106
3606+1065231902+1065016777+1064807399+1064681903+1064556480+1064324040
3598+1063967996+1063324003+1062137504+1060680808+1059636756+1059123860
3589+1058680078+1058237969+1058581282+1060078501+1061728424+1062364706
3581+1061843589+1061082976+1060890258+1060982434+1060812196+1060699359
3572+1061200979+1062012954+1062352484+1061960064+1061281296+1060751958
3564+1060381291+1060130445+1059979559+1059912265+1060110220+1060680589
3555+1061062824+1060425960+1058999092+1058186171+1058647340+1059399660
3547+1059229495+1058067804+1056928740+1056864646+1058159253+1060123898
3538+1061526758+1061649417+1060939584+1060309486+1060065915+1059857119
3530+1059289951+1058369649+1057466880+1056946927+1057018587+1057826125
3521+1059110547+1059947549+1059585685+1058487506+1057845040+1058013023
3513+1058133280+1057428467+1056239495+1055490231+1055469060+1055681930
3504+1055776870+1055944271+1056269760+1056316757+1055837472+1055260628
3496+1055085443+1055245933+1055396964+1055439742+1055518167+1055819066
3488+1056417153+1057071041+1057315194+1056937033+1056159323+1055285946
3479+1054411841+1053662067+1053456036+1054131312+1055283254+1055958166
3471+1055690297+1054837289+1053849329+1052886758+1052188274+1052057395
3462+1052358512+1052620052+1052683055+1052821355+1053278232+1053914659
3454+1054297185+1054140188+1053636895+1053196387+1052931354+1052614378
3445+1052111303+1051655590+1051602846+1051908546+1051927170+1051058594
3437+1049588803+1048488514+1048364110+1048956886+1049612592+1049904397
3428+1049859000+1049813895+1050003702+1050217809+1050052227+1049486878
3420+1048914618+1048653295+1048759003+1049154769+1049565522+1049550972
3411+1048958123+1048163753+1047687888+1047769151+1048345995+1049144147
3403+1049689054+1049495172+1048482694+1047186850+1046371019+1046295503
3394+1046510701+1046465668+1046100821+1045754671+1045704909+1045871000
3386+1045879294+1045529361+1045235446+1045647218+1046688505+1047434204
3377+1047226572+1046501680+1046113625+1046252871+1046422163+1046162660
3369+1045519248+1044992675+1045010281+1045269857+1045068191+1044553840
3360+1044796393+1046138797+1047460395+1047634997+1046833134+1045865398
3352+1045111333+1044569991+1044274185+1044247849+1044369998+1044442604
3343+1044339370+1044155455+1044118498+1044177280+1043921487+1043205325
3335+1042537688+1042513534+1043126463+1043879946+1044365197+1044595309
3326+1044838588+1045170407+1045312926+1044995367+1044269747+1043399934
3318+1042719056+1042591378+1043145305+1043992493+1044441731+1044004205
3309+1042701596+1041115403+1040137991+1040336019+1041407426+1042387529
3301+1042533832+1041928397+1041123769+1040417210+1039781510+1039353297
3292+1039509784+1040332236+1041329582+1041935526+1042057385+1041888311
3284+1041511314+1041098306+1041103399+1041660454+1042115294+1041743682
3275+1040610073+1039278872+1038158868+1037516403+1037572567+1038135297
3267+1038526043+1038260574+1037629458+1037333143+1037613307+1038010165
3258+1037976481+1037446125+1036681001+1035841016+1034926680+1033994446
3250+1033281703+1033106519+1033560049+1034268646+1034715629+1034968803
3241+1035629529+1036727562+1037268394+1036479481+1035006633+1034159301
3233+1034396469+1035109503+1035477333+1035142896+1034379809+1033832866
3224+1033889685+1034270683+1034410365+1034135875+1033743892+1033464891
3216+1033196803+1032868841+1032740580+1033096624+1033849599+1034638294
3207+1035158902+1035268683+1034914239+1034140022+1033213099+1032598716
3199+1032599370+1033068397+1033632655+1033999175+1033913402+1033250566
3190+1032316296+1031575543+1031077562+1030636981+1030343502+1030344521
3182+1030481148+1030587146+1030766841+1031073924+1031255729+1030988150
3173+1030150057+1028916125+1027788918+1027381803+1027896444+1028882805
3165+1029685250+1029999026+1029826678+1029190324+1028230372+1027306214
3156+1026630574+1026109167+1025766218+1025858321+1026335859+1026694377
3148+1026560078+1026065516+1025579393+1025319817+1025237390+1025234407
3139+1025473758+1026217130+1027256525+1027879639+1027593945+1026641123
3131+1025730497+1025440002+1025812124+1026339570+1026422797+1025887276
3122+1025018481+1024243754+1023847770+1023808993+1023885528+1023908808
3114+1023818233+1023422903+1022510313+1021274270+1020323922+1020108579
3105+1020396018+1020427447+1019727072+1018655520+1017869371+1017492447
3097+1017286634+1017267573+1017529550+1017792255+1017726633+1017506997
3088+1017612996+1018202644+1018899382+1019146081+1018700189+1017817208
3080+1016992792+1016521292+1016292198+1016048046+1015839177+1016026875
3071+1016718884+1017475278+1017782433+1017595463+1017311806+1017395324
3063+1017972968+1018649409+1018893416+1018620017+1018081950+1017329339
3054+1016318753+1015412564+1015146149+1015485170+1015781267+1015563959
3046+1015053974+1014723756+1014659371+1014687817+1014853108+1015247419
3037+1015569052+1015453887+1015108246+1015029311+1015257313+1015375316
3029+1015076163+1014367930+1013377205+1012179866+1010830405+1009545111
3020+1008654564+1008087905+1007198231+1005599888+1003881870+1002934577
3012+1002842619+1002959530+1002806898+1002471443+1002338017+1002739022
3003+1003705957+1004898130+1005850589+1006331983+1006451731+1006484979
2995+1006603054+1006741863+1006694356+1006256176+1005270471+1003682168
2986+1001550486+998877899+995580744+991731844+987492198+982737546+977261494
2976+971343623+965429682+959231065+951837874+942742088+932187059+920585578
2966+908137200+895070001+881910117+869296157+857549755+846603907+836441298
2956+827429976+820079854+814534906+810337528+806558469+802142110+796263307
2946+788416877+778247720+765504627+750265224+733070561+714760332+696269606
2936+678532729+662280047+647814207+635179223+624622957+616722036+612022166
2927+610664702+612305386+616342712+622292883+629937793+639062098+649186003
2917+659761548+670608018+681976405+694090927+706702341+719207755+731166663
2907+742512133+753257334+763277642+772482191+780904956+788466202+794906644
2897+800166625+804654353+808951837+813362448+817849085+822276357+826576023
2887+830757978+834822512+838575308+841548648+843234292+843330323+841637258
2877+837903887+832075210+824677436+816775205+809430758+803021308+796910938
2867+789841490+780828495+769833758+757789585+746141252+736228907+728830769
2857+724190337+722438125+723821997+728434275+735916004+745707146+757549288
2847+771458800+787165630+803813132+820255548+835502663+849022738+860879212
2837+871504591+881240879+890227756+898616256+906508010+913732419+920032305
2827+925441717+930239511+934570896+938322892+941391826+943909962+946100427
2817+948053650+949826305+951596413+953489398+955394824+957151764+958786410
2808+960421492+962041151+963461836+964519347+965208373+965611269+965824866
2798+966074257+966697298+967801297+969057273+970017006+970586720+971102744
2788+971924687+972988818+973862414+974239629+974202307+973997804+973792064
2778+973671442+973683519+973820873+974044583+974360905+974855176+975601094
2768+976569848+977718225+979059975+980448213+981459599+981798765+981709572
2758+981724195+982103738+982665377+983066090+983161903+983120290+983206063
2748+983515547+983970460+984467496+984887488+985016476+984659268+983931247
2738+983316281+983245786+983647590+984056888+984136769+983904038+983506235
2728+983074093+982793128+982818154+983064853+983332287+983605467+983979408
2718+984400419+984765848+985118182+985507692+985882069+986299734+986983813
2708+988012441+989158854+990093634+990617515+990728606+990543527+990152417
2698+989618350+989141248+989015171+989283695+989635956+989802193+989882801
2689+990086795+990321345+990305121+990003640+989670949+989471248+989293807
2679+988970065+988471792+987848897+987159143+986542213+986173801+986037466
2669+985922228+985738677+985648538+985819358+986225527+986694336+987041432
2659+987239897+987501583+988072752+988989999+990118878+991245357+992076248
2649+992449971+992585215+992837371+993259473+993645272+993853050+993877421
2639+993744432+993489803+993162787+992846683+992739230+993083124+993860543
2629+994690052+995222590+995509957+995697219+995544223+994748034+993691397
2619+993240485+993676992+994418981+994952320+995407815+995996444+996549862
2609+996928314+997285086+997637274+997748292+997645422+997679251+997877280
2599+997785977+997180906+996499446+996324116+996756621+997522836+998356346
2589+998995829+999123289+998674414+998007359+997537459+997426368+997649132
2580+998055666+998430916+998718574+998993792+999201933+999292872+999414948
2570+999537680+999356384+999072945+999558268+1001100302+1002645100+1002914061
2560+1001824831+1000296620+999060359+998198331+997599516+997301818+997335502
2550+997525674+997536004+997078982+996276682+995800744+996250637+997390138
2540+998427206+998932245+999043045+998994156+998922641+998939592+999102773
2530+999406218+999782997+1000045410+1000071819+1000021038+999964365+999560451
2520+998704170+998130527+998615049+999824465+1000625673+1000438630+999871898
2510+1000025040+1001314627+1003033518+1004123913+1004228529+1003719125
2502+1002939015+1001944361+1000886268+1000119689+999867606+1000018419
2493+1000223796+1000117361+999621780+999087059+998954506+999367442+1000307314
2483+1001812026+1003605852+1004822251+1004784711+1003958258+1003433140
2475+1003502108+1003445872+1002781144+1002030571+1001985974+1002679948
2466+1003443762+1003806499+1003994125+1004411862+1004895511+1004861682
2458+1004118820+1003078478+1002177674+1001611815+1001603522+1002287673
2449+1003239622+1003704939+1003435396+1002859061+1002431139+1002260610
2441+1002305716+1002486139+1002555689+1002173672+1001259918+1000232308
2432+999764591+1000171633+1001054469+1001675545+1001674527+1001317900
2424+1001060507+1000992994+1000895216+1000737419+1000679582+1000539245
2415+999903327+998946795+998447795+998791253+999508725+999901799+999737309
2405+999384829+999392323+999773248+999865569+999202297+998182398+997526765
2395+997456124+997713153+998011288+998225467+998386102+998532841+998467146
2385+997903980+997036713+996534803+996725556+997183889+997397413+997443610
2376+997687909+998136347+998391558+998063377+997133763+995942390+994744179
2366+993577177+992860506+993290174+994533928+995183959+994728319+994242850
2356+994511739+994886771+994548987+993724571+993139797+993120155+993510246
2346+993926819+994044967+993926237+993884842+993906740+993648619+993159877
2336+993076213+993757091+994698345+995148384+994859198+993972580+992732973
2326+991570191+990959372+991023321+991549675+992345355+993239394+993880040
2316+993922891+993387952+992698271+992342081+992433456+992688013+992933984
2306+993352813+994003572+994531018+994680667+994717261+995013722+995554699
2296+996027436+996101497+995612100+994818530+994357943+994569430+995075560
2286+995385771+995548879+995786703+995961233+995913435+995899176+996214334
2276+996698566+996902487+996538804+995707549+994845230+994379477+994362817
2266+994635052+995255401+996294069+997215390+997189345+996233831+995303126
2257+994964178+994836500+994584272+994372347+994155913+993821621+994061918
2247+995626214+997746037+998844579+998840142+999226596+1000629675+1001656848
2237+1000852730+998853673+997623960+998113212+999515709+1000387122+999911402
2227+998570453+997802419+998538443+1000299239+1002010855+1002918862+1002499307
2217+1000624145+998155480+996575980+996890920+999002013+1001858878+1004240896
2207+1005520662+1005472428+1003834727+1000871063+997729741+995492570+994534437
2197+994892082+996178831+997262533+997085820+995591439+993315491+990759016
2187+988586812+987632899+988233969+989963700+992116189+994290066+996496245
2177+998541716+999290617+997357036+993218223+989672768+989110402+991043546
2167+993155439+994111171+994443207+995529891+998482715+1002803916+1005704213
2157+1004924830+1001966404+1000121871+1001018602+1003719198+1005791733
2149+1005536013+1003459840+1001018966+998663065+996247436+993995860+991791864
2139+989093160+986601651+986363464+989294971+993889062+997783940+999590861
2129+999318117+997933880+996406615+995052353+994166825+994539530+996240161
2119+997674523+997274755+995618429+994548114+994643637+994801288+994133214
2109+993125538+992625810+992570229+992328476+991832823+991610204+991861705
2099+992210983+992349938+992364561+992366744+992253688+992005170+991907466
2089+992175263+992485473+992292974+991572155+990770729+990147761+989796154
2079+990092979+991237355+992491512+992899646+992649818+992611697+992769057
2070+992402101+991617698+991395225+992088689+992845883+992701690+991668842
2060+990545855+990060168+990497766+991762836+992978144+992380639+989109529
2050+985128076+983815791+986222399+990205234+993415961+995462378+997023036
2040+998045262+997578273+995638363+994196508+994810528+996241616+996526291
2030+996118594+996594022+997928351+999233580+1000546447+1001854804+1001625420
2020+998402034+993390061+989903899+990314215+994252090+999111285+1001714103
2010+1000869826+998611703+997358491+996635490+994653458+991687539+989690665
2000+989855737+991721732+993727845+994469834+994067229+993939987+994855415
1990+995891537+995662953+993605041+990023065+986003491+983130184+982481316
1980+984104831+987757521+993022304+998172941+1001037227+1001624256+1001440486
1970+1000461765+997492426+993282462+990503150+990302793+991408538+992608641
1960+993944571+995501591+996374750+995263549+991836388+987521517+984861589
1951+985594266+989024919+992497987+993955774+993672481+992929328+992043219
1941+991029796+990938275+992619772+995114264+996500319+995933806+994119828
1931+992324475+991460046+991553822+991842717+991739629+991494821+991516574
1921+991463611+990776985+989773456+989355500+989562259+989569971+989207234
1911+989306393+990281041+991227970+991268783+990840715+990774221+990999022
1901+990907574+990417522+989988363+989931471+990203051+990578447+990705616
1891+990223058+989230077+988642539+989476049+991602129+993566337+993850794
1881+992524905+991090761+990650835+990976833+991323346+991423307+991534398
1871+991887968+992171989+991666732+990380346+989346770+989278821+989931471
1861+990556695+990584195+990069917+989620969+989857047+990840570+991977161
1851+992538509+992364852+991991057+992029396+992517702+992909976+992751452
1841+992292246+992061552+992260745+992596201+992501770+991748868+990646324
1832+989607001+988941183+988970065+989842497+991271329+992610824+993259255
1822+993125174+992590890+992197161+992273913+992642834+992880149+992773059
1812+992319019+991636249+991055768+990923724+991216839+991583141+991736864
1802+991707982+991713365+991842571+991997095+992075521+992018775+991763200
1792+991337387+990959809+990837660+990948096+991004842+990647779+989959117
1782+989484997+989480996+989661928+989808158+990015062+990290717+990390167
1772+990144778+989867669+990042344+990702634+991433855+991838352+991847228
1762+991625555+991421415+991337969+991201561+990874254+990543891+990382529
1752+990127681+989293225+987888619+986599250+985828233+985348439+984894690
1742+984500743+984241021+984030698+983849693+983688767+983209555+982098427
1732+980988463+980614740+980816261+981212391+981500994+981545082+981485207
1723+981499467+981540789+981567562+981829830+982672797+983974825+985305735
1713+986518715+987693864+988773200+989453278+989627081+989725076+990080247
1703+990390458+990236371+989483251+988332765+987110109+986096321+985478228
1693+985100140+984580260+983730454+982801203+981973222+980646605+978075143
1683+975059971+972584758+970242607+967640953+964566126+960852397+957002624
1673+953677387+950330907+945657736+939202162+931907040+923951555+913775560
1663+899784567+882935762+865739644+848951587+832333768+814120152+785340521
1653+734571563+682001722+646896088+615154176+572072141+520964780+480006243
1643+453297583+434804930+422010002+415151605+414677086+420266812+427572592
1633+430604424+428691141+423601252+417057067+411296158+408816325+411649474
1623+420819357+434413347+449084491+465450409+488275394+518945354+549267927
1613+573773463+595426717+617312193+639254379+659483202+677002699+692240065
1604+706303591+719935485+733035859+745211274+756445799+766996244+776858610
1594+785542188+792489850+797623827+801286775+803734851+804862203+804341596
1584+801800034+797019046+790210848+781468341+769349890+751667794+731187106
1574+714269334+701289509+689376434+678265878+670549890+667316756+667471352
1564+669691353+672875308+677731157+689008532+708475941+724866340+735229379
1554+743767309+751691511+758646012+764446607+768855327+771801458+773810263
1544+775429340+776707069+778155035+781234883+785112810+787735344+789248786
1534+790845602+793275999+796004241+798371636+800646055+803316023+806167723
1524+808591937+810728202+813220729+815899063+818201201+820343650+822601554
1514+824643170+826103650+826889580+826952365+826613199+827507892+830902389
1504+834594146+837237996+839369532+841737073+845035611+849624099+854621740
1494+858502795+860851057+862182404+863150721+864086010+864640010+864204667
1485+862361735+858844871+853694162+847276710+839653989+830237225+818180321
1475+802213916+780974434+756901076+735786725+719095064+704694918+691614551
1465+681388503+675515520+672666803+670325234+666402055+659853505+653109255
1455+649575877+648956328+650292403+653571516+659512230+669094867+682253005
1445+697855654+715128962+733086639+749839848+764490113+778141794+791337763
1435+802137891+809686696+815532106+820944938+825613234+828362864+828521098
1425+825950145+820692419+812366994+798150618+772352548+733268226+688103071
1415+643284138+602688301+573923221+565978650+581092193+612964875+652857754
1405+692957537+725631319+746330260+755217105+753451434+742045580+723965754
1395+705060856+693289501+693803488+705259103+723977830+746957011+770011780
1385+788011289+798870491+803779375+804794617+804164592+804147860+806118179
1375+809949255+814159947+816888843+817317711+815739229+812699685+808621547
1366+803629871+797640269+791179311+785732068+782050860+778976323+774622748
1356+767785231+758436998+747311964+735161502+722544705+710136122+699040480
1346+690787297+686803371+687748627+693415433+702755299+713774117+724463735
1336+733957107+741887419+747286428+748698092+745220805+737316828+726414048
1326+713674884+699301511+682817190+663704370+642169954+619916248+599902441
1316+584840733+576231434+574462526+578799550+587475853+598408278+609911109
1306+621122754+632098866+643253947+654577955+665466621+675259727+683847783
1296+691794610+700037753+709539708+720942579+734170195+748334627+762158802
1286+774529627+784797943+792801153+798737065+803080600+806588079+810139936
1276+814324874+819170028+824345327+829518443+834355377+838281393+840635839
1266+841318536+841082022+840883702+841021638+841169032+841211664+841700988
1256+843277070+845839802+848515007+850367034+850985346+850447933+848856938
1247+845786621+840010834+829784494+813408136+789541101+757262431+716281776
1237+667506491+613747605+559911603+512062112+475710723+454414423+449198674
1227+458565094+478854119+505003104+531751885+554938152+572080544+581947965
1217+583902207+577943523+565404388+549542344+535370855+528409079+532723732
1207+549336604+575950469+608131179+641162715+671438254+696934334+717024639
1197+731959578+742364521+749003719+752648989+753897326+753251514+751604137
1187+750531057+751777575+756225727+763300195+771427372+779177698+786027656
1177+792138753+797737464+802944046+807955000+812984288+817986949+822654226
1167+826761757+830406881+833788791+836832699+839172304+840493392+840809860
1157+840463346+839969511+839826919+840335013+841491465+843037573+844627477
1147+845913571+846393875+845384598+842577422+838771081+835757001+835160514
1137+837243234+840781632+844121056+846293478+847057947+846139173+842750860
1128+835617464+822959854+802411217+771361532+728077576+673432945+612147443
1118+552078741+501660370+467267842+451870169+454877120+472553032+498905538
1108+527448618+553505900+575654917+595194423+614090045+633141899+651811738
1098+669420137+686052798+702175400+717759862+732141529+744595363+754837926
1088+763072920+769687455+774923065+778890768+781869564+784418910+787203169
1078+790804715+795510769+800998826+806353456+810718380+813988763+816676555
1068+819081344+820890738+821762370+821945484+821918494+821701041+821057775
1058+820198802+819726501+819962724+820767134+822000121+823826538+826433431
1048+829539905+832367233+834304160+835572067+836968962+838940300+841169541
1038+843078168+844384924+845130042+845473500+845574478+845520351+845397038
1028+845468334+846082936+847340585+849040052+850867125+852342810+852813437
1018+851995786+850496603+849426870+849502677+850665895+852462121+854546297
1009+856744982+858791618+860309570+861155666+861579515+861921227+862252099
999+862283164+861510256+859568600+856611120+853271624+850169296+847483978
989+844994652+842514055+840369279+839447812+840599754+843935031+848722421
979+853886225+858536479+862169890+864607127+865847025+865914538+864776637
969+862461186+859313680+856018998+853281809+851570556+851126774+851951045
959+853673719+855591731+856943302+857218447+856424513+855191890+854498790
949+855148822+857427533+861063927+865327363+869244795+871999226+873242398
939+872983404+871305108+868450425+865173567+862676966+861964587+863136317
929+865120968+866045854+864210633+859025440+850990220+840945395+829845896
919+819319459+811790150+809348913+812257358+818638653+825738221+831569662
909+835649765+838698621+841882503+846007639+851049367+856364202+861324304
899+865639757+869196779+871887408+873708369+874825827+875411547+875599827
890+875690184+876095262+876920406+877846892+878486156+878609469+878137023
880+877177290+875935282+874474948+872756420+870714077+867861723+863035702
870+854990079+843300786+828864847+813961700+801578143+793814795+790624875
860+790224525+790664669+791046540+791734693+793752156+797789481+803562213
850+810047615+816150855+820990262+823729052+823453179+819390755+811353862
840+800054952+787030531+774175110+763079031+754507563+748451320+744736573
830+743379182+744187520+746485656+749821078+754750260+762201434+771745731
820+780681683+785039113+781851303+771332213+757701047+747532036+745880658
810+753073273+765107406+776840858+784717262+787504359+785808239+781233209
800+775332218+768624561+760572754+750845124+740390564+730768860+722749136
790+716122670+710471433+705518825+701037208+696857654+692915414+689282658
781+686182004+683815554+682252350+681575982+681870261+683058724+685091100
771+688078845+691876382+695896320+699770319+703934086+709275476+716338231
761+724980851+734678143+744950461+755407276+765545077+774774289+782746433
751+789617562+795887111+801865001+807358732+812010586+815659275+817984184
741+818010665+814312942+805492010+790453546+769168376+744010735+719998924
731+702808117+695991479+699798256+711974981+729093474+747655058+764994860
721+779680263+791388107+800627868+808211739+814609403+819960396+824614142
711+829017552+833017847+836017304+837953576+839408745+840576183+840732525
701+838912582+834642453+827795842+818105678+805305549+790013838+774343820
691+761119042+752094479+747194616+745789355+748028635+754131948+762886532
681+771904838+779520429+785812604+791811373+798386404+805630892+812663310
671+818572086+823924243+830654235+838690837+844903203+848315378+850292318
662+852396936+855582855+859526914+862979538+865185644+866408082+867034760
652+867187174+867312597+868047456+869292592+870234647+870390262+870085507
642+869827532+869584179+868997805+868220604+867992311+868640233+869511937
632+869784245+869368617+868713420+868218276+868111186+868434129+868858559
622+868914359+868740338+869276369+871245233+874145167+876792145+878514529
612+879047795+877800331+874325663+869418088+864973647+862699009+863141991
602+865753758+869564100+873670757+877319664+879962932+881385217+881674039
592+881204576+880756574+881141282+882352516+883453532+883530430+882536795
582+881049543+879561273+878336070+877602521+877494485+878046666+879493469
572+882099488+885256961+887357941+887346811+885797575+883560768+880321450
562+875450396+869327076+862864737+856521054+850757707+846686916+844958203
552+844118655+840995593+833249632+821764189+810505365+804074017+805145060
543+813338804+825751825+838572689+849208035+857479405+864363047+869965832
533+873591167+875217738+875630600+874879663+871380696+863298261+850619044
523+834275933+813636575+787077164+755727308+725972813+706326072+701551631
513+710917615+730471962+755521568+781817328+805808623+825406766+840381937
503+850630466+855603589+856818752+857736871+859928573+861998198+862424010
493+861795804+861855751+863785039+867812470+873105190+877607759+879530790
483+879835472+881543669+885982072+891181160+894060215+893405018+890262386
473+886269657+882633918+879844056+877411185+874295835+869972306+864823052
463+859623527+855567577+854697546+858963456+867720731+877266701+885211637
453+891969055+897204156+899206413+898210959+897357879+899373668+903601965
443+907236177+908631035+908129706+906666099+905485129+906368546+910053029
433+914724453+917424976+916723364+914159686+912822447+913930083+915570768
424+915392454+913333597+910476295+907774390+907017196+909166701+912720595
414+915790694+917147867+916242479+913029642+907844158+901825164+896921809
404+894758407+895521349+898041885+900828910+904102421+910060595+917691755
394+922658913+923286319+920943295+916147102+908645803+901530740+901264180
384+910005522+920832349+926201094+924858617+919799429+915686660+916834237
374+922041037
##END=
