##TITLE=A. Wandler AWaK131
##JCAMP-DX=4.24
##DATA TYPE=INFRARED SPECTRUM
##DATE=6/12/2017
##SAMPLING PROCEDURE=ATR platinum Diamond 1 Refl
##ORIGIN=Angelika Moesle
##XUNITS=1/CM
##YUNITS=TRANSMITTANCE
##RESOLUTION=4
##FIRSTX=3997.453
##LASTX=373.96442
##DELTAX=-1.4165319
##MAXY=0.89440244
##MINY=0.75696909
##XFACTOR=1
##YFACTOR=8.3297719e-010
##NPOINTS=2559
##FIRSTY=0.86046398
##XYDATA=(X++(Y..Y))
3997+1032998249+1033563829+1033843256+1033675528+1033518462+1033738140
3989+1034119677+1034221645+1033980572+1033776923+1033916529+1034261072
3980+1034494274+1034518603+1034431662+1034340929+1034306296+1034304507
3972+1034271305+1034250840+1034374131+1034682967+1035083109+1035425076
3963+1035586865+1035559387+1035428225+1035285041+1035254200+1035467795
3955+1035820853+1035939637+1035576561+1034878029+1034217924+1033899284
3946+1033969982+1034261001+1034566116+1034765829+1034892627+1035067367
3938+1035241392+1035155882+1034789443+1034646903+1035164469+1035936059
3929+1036202105+1035921676+1035622142+1035589154+1035592732+1035319459
3921+1034860928+1034646903+1034965471+1035535559+1035768617+1035572840
3912+1035417491+1035552947+1035623573+1035274951+1034799389+1034795525
3904+1035371481+1036048688+1036495485+1036721244+1036662568+1036188580
3895+1035378279+1034636957+1034586438+1035399173+1036246612+1036480386
3887+1036609760+1037301565+1038089398+1038134550+1037654480+1037263425
3878+1036863856+1036198598+1035655916+1035750156+1036409116+1037220420
3870+1037840812+1037795803+1036909437+1035834020+1035564396+1036403678
3861+1037505500+1037901134+1037339919+1036161318+1035128476+1035412625
3853+1037319812+1038700201+1038469290+1037727467+1037253694+1036972836
3844+1036594518+1036221425+1036243106+1036815699+1037655410+1038241026
3836+1038397805+1038456982+1038622205+1038676230+1038343709+1037708218
3827+1037139490+1036879026+1036819849+1036906217+1037488326+1038527393
3819+1039065997+1038861918+1038806462+1039376049+1039852112+1039592149
3810+1038760452+1037957663+1037757163+1037992511+1037851975+1037289329
3802+1037172549+1037813978+1038486034+1039012830+1039749930+1040401592
3793+1040368963+1039787640+1039323098+1039381416+1039857765+1040447030
3785+1040894757+1041010535+1040775044+1040433506+1040211253+1040040734
3776+1039847891+1039724742+1039611111+1039400021+1039358947+1039780699
3768+1040302129+1040543130+1040772253+1041192932+1041514577+1041539407
3759+1041429711+1041312502+1041109855+1040800589+1040504848+1040419982
3751+1040715581+1041191286+1041488959+1041774111+1042494753+1043473569
3742+1043706771+1042908705+1041647027+1040370394+1039307713+1038908144
3734+1039696621+1041085025+1041674791+1041016188+1039926459+1039554653
3725+1040400233+1041908064+1043161513+1043733104+1043675143+1043236862
3717+1042712140+1042341193+1042324735+1042832856+1043734535+1044477574
3708+1044696536+1044351707+1043419401+1042152643+1041312860+1041579907
3700+1042601515+1043405520+1043492603+1042927739+1042014039+1041147136
3691+1040818979+1041513575+1043035073+1044245231+1044504050+1044155571
3683+1043695894+1043364518+1043160010+1043075932+1043451888+1044710274
3674+1046086013+1046260610+1045463403+1044719935+1044467198+1044416966
3666+1044454747+1044691455+1044990274+1045088234+1045015390+1045138753
3657+1045767374+1046550985+1046548695+1045450881+1043896538+1042770816
3649+1042597364+1043096111+1043678578+1044115500+1044426340+1044693745
3640+1044901401+1044836571+1044377968+1043835357+1043626199+1043611673
3632+1043228275+1042416041+1042034289+1042769314+1043844302+1044310132
3623+1043925804+1042856541+1041714648+1041320803+1041729603+1042203090
3615+1042430853+1042619618+1042820691+1042866415+1042724019+1042504556
3606+1042243090+1041882805+1041426348+1040982413+1040624490+1040219052
3598+1039588714+1038879307+1038525104+1038746713+1039278375+1039786710
3589+1040282236+1040900911+1041389496+1041266062+1040551145+1039680664
3581+1038989145+1038468574+1037865356+1036979848+1035855200+1034750302
3572+1033969481+1033633525+1033652201+1033944866+1034500141+1035064075
3564+1035247259+1035093127+1035004541+1035158816+1035237456+1034923682
3555+1034455562+1034361537+1034697064+1034855346+1034422503+1033812057
3547+1033637317+1033798605+1033709374+1033274599+1032828232+1032369199
3538+1031613280+1030647987+1029997900+1029917471+1030058365+1030010422
3530+1029773356+1029558044+1029422588+1029307597+1029186167+1029010282
3521+1028787814+1028729066+1028973716+1029233107+1029033466+1028256795
3513+1027209356+1026333008+1025995120+1026224887+1026542668+1026427605
3504+1025948895+1025644065+1025806498+1026169788+1026300879+1025965782
3496+1025228109+1024428469+1023907469+1023704321+1023663820+1023714411
3488+1023856950+1024025036+1024101744+1023970224+1023585609+1023165432
3479+1023088294+1023348687+1023422175+1022954341+1022280425+1021893092
3471+1021745972+1021530302+1021294167+1021332449+1021661393+1021921643
3462+1021705758+1020927871+1019965011+1019351990+1019295389+1019616461
3454+1020023329+1020173812+1019716210+1018682439+1017659472+1017236861
3445+1017389705+1017692602+1017939185+1018225266+1018523226+1018523298
3437+1018071707+1017486664+1017152926+1017066200+1017033212+1016987273
3428+1016855825+1016499547+1016011104+1015761445+1016017974+1016673070
3420+1017325877+1017545054+1017175538+1016505200+1016012535+1015857473
3411+1015780765+1015623699+1015663985+1016186345+1016948705+1017387344
3403+1017228632+1016696254+1016207669+1015972965+1015859191+1015636508
3394+1015300122+1015007529+1014837369+1014843022+1015163736+1015795649
3386+1016427490+1016780404+1016916576+1016934608+1016613893+1015763663
3377+1014760517+1014292325+1014549928+1015037297+1015251679+1015275865
3369+1015546633+1016197794+1016848669+1017062479+1016797363+1016275146
3360+1015671499+1015162949+1015013254+1015344559+1015969315+1016577614
3352+1016943767+1016969027+1016746272+1016575539+1016714859+1017100189
3343+1017404446+1017326306+1016796576+1016071068+1015658547+1015940192
3335+1016756075+1017559293+1017994712+1018123370+1018138540+1018138039
3326+1018134605+1018078004+1017905553+1017671279+1017517576+1017480868
3318+1017487236+1017570027+1017869632+1018324944+1018559577+1018269488
3309+1017650957+1017255824+1017423193+1018006805+1018631992+1019041722
3301+1019180899+1019139468+1019089021+1019129092+1019158359+1019074709
3292+1019031275+1019244942+1019658393+1020055816+1020359071+1020594491
3284+1020793131+1021061681+1021505186+1022027546+1022381820+1022367294
3275+1021947832+1021375383+1021154704+1021613379+1022537598+1023387256
3267+1023797273+1023796557+1023626039+1023458454+1023340029+1023295163
3258+1023321639+1023375878+1023485860+1023724858+1024006789+1024160062
3250+1024216305+1024368362+1024698952+1025142743+1025545103+1025657089
3241+1025315336+1024711474+1024271761+1024256663+1024622100+1025214728
3233+1025909109+1026540020+1026874974+1026796835+1026504099+1026414367
3224+1026783454+1027440196+1027990964+1028277046+1028476616+1028716186
3216+1028855291+1028782447+1028644701+1028610283+1028639549+1028649281
3207+1028726848+1029007133+1029394538+1029553607+1029266524+1028760408
3199+1028522698+1028781731+1029319476+1029802337+1030077184+1030119545
3190+1029968848+1029817936+1029902730+1030190314+1030421655+1030504016
3182+1030553247+1030577218+1030514750+1030542943+1030899364+1031426876
3173+1031690346+1031533566+1031241188+1031181510+1031481831+1032034030
3165+1032650272+1033147229+1033384652+1033364116+1033298928+1033424438
3156+1033715385+1033945510+1034049194+1034215920+1034560535+1034889622
3148+1034905149+1034515598+1033864007+1033164760+1032617141+1032394673
3139+1032587660+1033124975+1033806977+1034425151+1034847189+1035050909
3131+1035152447+1035326257+1035593233+1035766542+1035707007+1035516453
3122+1035384146+1035393878+1035577348+1035952159+1036377775+1036579921
3114+1036473231+1036242963+1035994019+1035646256+1035340282+1035490049
3105+1036148795+1036763176+1036870153+1036616486+1036345074+1036096488
3097+1035751229+1035320676+1034888548+1034447476+1033924043+1033325690
3088+1032745441+1032191239+1031566339+1030904659+1030384160+1029988025
3080+1029458867+1028711034+1027976438+1027462737+1027133149+1026834330
3071+1026464385+1026036551+1025672473+1025475050+1025361705+1025091580
3063+1024494444+1023635627+1022757275+1022102751+1021750409+1021557923
3054+1021333666+1021127799+1021211877+1021680069+1022249012+1022555916
3046+1022495094+1022203574+1021892448+1021731017+1021788477+1022052519
3037+1022503466+1023130369+1023902460+1024766429+1025656946+1026527498
3029+1027380733+1028231393+1029043698+1029735718+1030264017+1030716180
3020+1031253710+1031887054+1032438108+1032835101+1033239966+1033774634
3012+1034369838+1034967403+1035590085+1036175629+1036564536+1036687041
3003+1036648615+1036639885+1036752514+1036849044+1036662783+1036064073
2995+1035200104+1034365401+1033732272+1033207766+1032577213+1031739863
2986+1030696359+1029384663+1027676904+1025507536+1022890799+1019868840
2978+1016513929+1012935120+1009209906+1005318969+1001160984+996652803+991819185
2968+986789145+981707728+976695147+971941100+967787479+964592068+962466564
2958+961238302+960674869+960677374+961307497+962708424+964929312+967747980
2948+970750477+973620522+976243771+978509239+980179288+981034026+981080395
2938+980548375+979664728+978441404+976763340+974721342+972709040+971056236
2928+969714988+968436708+967101614+965778540+964651817+963969171+963882588
2918+964322587+965141047+966252171+967531809+968769015+969851731+970884573
2908+972059668+973473689+975084275+976776650+978413855+979797679+980706585
2898+981117604+981299786+981539141+981908586+982387940+982951087+983400961
2888+983453412+983169262+982954522+982942286+982762322+982135920+981278892
2878+980428733+979369559+977800976+975937654+974373293+973451292+973033261
2868+972855086+972900596+973353332+974298088+975589748+977016864+978477039
2859+979929342+981282612+982449407+983448474+984373695+985352798+986539199
2849+987988569+989562948+991106986+992604227+994019894+995215168+996187545
2839+997162998+998327575+999683063+1001180948+1002752178+1004221942+1005428593
2829+1006424726+1007395815+1008415061+1009402178+1010273517+1011012978
2820+1011642243+1012239165+1012933975+1013736406+1014442665+1014895830
2812+1015271786+1015871140+1016672355+1017332675+1017616610+1017618470
2803+1017573962+1017644374+1017886090+1018269273+1018706338+1019148842
2795+1019621756+1020122077+1020592058+1021056743+1021638280+1022326865
2786+1022916273+1023323070+1023778024+1024475697+1025213512+1025647786
2778+1025773510+1025890219+1026170719+1026503669+1026744241+1026937586
2769+1027207424+1027519982+1027725062+1027832110+1028038263+1028409782
2761+1028739227+1028829316+1028776078+1028848779+1029170782+1029612999
2752+1029972855+1030158400+1030194751+1030180726+1030255144+1030481977
2744+1030759615+1030931350+1030954033+1030890849+1030814355+1030752960
2735+1030688273+1030591100+1030451637+1030273033+1030129706+1030215001
2727+1030662871+1031316680+1031836535+1032025157+1031975783+1031970631
2718+1032243475+1032765406+1033301433+1033701861+1034029517+1034382861
2710+1034723897+1034911375+1034880963+1034765829+1034763468+1034889550
2701+1035011553+1035107438+1035297420+1035628725+1035989082+1036242248
2693+1036351728+1036373124+1036398097+1036521961+1036792228+1037128900
2684+1037348148+1037325894+1037111011+1036861280+1036744786+1036879097
2676+1037252692+1037676948+1037881456+1037731188+1037379919+1037137415
2667+1037124606+1037172835+1037136771+1037132835+1037351726+1037778701
2659+1038211759+1038478020+1038593368+1038750935+1039117374+1039603169
2650+1039907855+1039889536+1039802739+1040023990+1040568175+1041055329
2642+1041189712+1041093755+1041085884+1041290463+1041595077+1041868064
2633+1042054539+1042109065+1042015470+1041898905+1041975112+1042326381
2625+1042810029+1043208454+1043422478+1043549276+1043807665+1044298254
2616+1044808163+1044969737+1044683512+1044271421+1044126162+1044319936
2608+1044666339+1044983476+1045108413+1044871848+1044344050+1043928523
2599+1043957575+1044335392+1044717502+1044877787+1044815963+1044679291
2591+1044696321+1045099182+1045936461+1046890519+1047464399+1047493880
2582+1047286368+1047147048+1047047155+1046854455+1046620538+1046541253
2574+1046751700+1047156565+1047458675+1047443004+1047167155+1046807872
2565+1046499608+1046388839+1046651593+1047346403+1048262751+1048945469
2557+1049041926+1048729798+1048572017+1048805075+1049070692+1048988045
2548+1048632768+1048297098+1048128941+1048191481+1048537455+1049013232
2540+1049268330+1049187185+1049089869+1049314627+1049778740+1050105251
2531+1050070188+1049821173+1049709617+1049948614+1050430617+1050847789
2523+1050915982+1050507897+1049735520+1048942535+1048473484+1048432554
2514+1048794199+1049604715+1050772512+1051766069+1052018662+1051651722
2506+1051345534+1051484782+1051864817+1052109539+1051945747+1051305677
2497+1050585106+1050433050+1050946250+1051505963+1051610935+1051371365
2489+1051079345+1050804641+1050521708+1050269114+1050107898+1050076127
2480+1050182460+1050414588+1050789614+1051288146+1051684781+1051651937
2472+1051202064+1050834408+1051006715+1051569361+1051973367+1051975657
2463+1051878055+1052028537+1052316765+1052333152+1051961704+1051588968
2455+1051633833+1052056086+1052509037+1052811147+1053045279+1053295439
2446+1053488855+1053498515+1053343381+1053257657+1053462451+1053858729
2438+1054102664+1053996904+1053627316+1053156763+1052761916+1052715691
2429+1053150251+1053737083+1054022163+1054083630+1054403772+1055093788
2421+1055709171+1055862087+1055626667+1055313537+1055107598+1054973431
2412+1054786812+1054496938+1054165061+1053920911+1053961054+1054436545
2404+1055189888+1055760262+1055839976+1055608277+1055462589+1055557544
2395+1055749099+1055878759+1055958616+1056110673+1056382228+1056632389
2387+1056659151+1056465663+1056260726+1056157399+1056084054+1056055074
2378+1056244984+1056645626+1056877111+1056550171+1055786165+1055236829
2370+1055456077+1056260082+1056898935+1056855000+1056247416+1055615790
2361+1055594681+1056454500+1057695284+1058475961+1058524548+1058229379
2353+1057924979+1057542154+1056957468+1056287989+1055798187+1055665450
2344+1055831031+1056087345+1056288633+1056421942+1056596539+1056879615
2336+1057095357+1057043908+1056844696+1056754392+1056783944+1056761404
2327+1056618077+1056417148+1056290851+1056428310+1056901368+1057430383
2319+1057579148+1057263872+1056826950+1056569133+1056491494+1056578578
2310+1057041260+1058072098+1059468588+1060607333+1060843039+1060095850
2302+1059045334+1058503081+1058598752+1058833170+1058878250+1058953169
2293+1059341791+1059854419+1059974562+1059450055+1058629020+1058175998
2285+1058405979+1058948590+1059245118+1059277176+1059487479+1060093703
2276+1060910731+1061726257+1062476809+1063155877+1063709006+1063934193
2268+1063639525+1063058274+1062730833+1062800243+1062785145+1062130334
2259+1060838889+1059693847+1059724545+1061056563+1062588294+1063247970
2251+1063066933+1062638383+1062251479+1061949726+1061826650+1061873448
2242+1061872589+1061709155+1061634522+1062031587+1062935985+1063941635
2234+1064632868+1064995371+1065308286+1065735548+1066150001+1066276942
2225+1065888320+1064897554+1063498917+1062312301+1062175701+1063521815
2217+1065893544+1068179835+1069457255+1069582264+1068901622+1067659836
2208+1066027139+1064490185+1063656412+1063504713+1063225644+1062188939
2200+1060885758+1060384865+1060902287+1061500926+1061220641+1060018712
2191+1058668233+1058065587+1058459217+1059111881+1058914601+1057388880
2183+1055009280+1052815082+1051898734+1052849716+1055184736+1057331707
2174+1057727770+1056311960+1054502019+1053565993+1053564490+1053712110
2166+1053025601+1050976805+1048491874+1047819819+1050387611+1054901517
2157+1058351668+1058814494+1056527201+1053006424+1049844214+1047854309
2149+1046977317+1046653525+1046201576+1045276427+1044113711+1043198293
2140+1042926451+1043482800+1044522726+1045108556+1044601438+1043535466
2132+1043157935+1044225768+1046389197+1048532160+1049748329+1050095376
2123+1050227683+1050489650+1050790759+1051127359+1051726642+1052769930
2115+1054227959+1055746380+1056711315+1056823300+1056472103+1056127560
2106+1055748670+1055328564+1055462088+1056614500+1058229093+1059277104
2098+1059445189+1059171129+1058751524+1058142510+1057598254+1057730776
2089+1058684548+1059725976+1060010626+1059547157+1059122686+1059284904
2081+1059597962+1059123974+1057617502+1055957185+1055294002+1056028455
2072+1057669380+1059393025+1060649909+1061452483+1062274806+1063541636
2064+1064985210+1065630933+1064848323+1063393014+1062714519+1063037308
2055+1063038453+1061878385+1060480750+1060127406+1060871518+1061918671
2047+1062653338+1062809831+1062533696+1062436094+1062698132+1062589009
2038+1061890120+1061796739+1063107290+1064688109+1065198662+1065341417
2030+1066721091+1069193213+1070923870+1070903119+1070081797+1069750707
2021+1069867200+1069406880+1067744272+1065500057+1064204819+1064809182
2013+1066645814+1068333752+1069411173+1070454390+1071725084+1072443365
2004+1071842866+1070556215+1070121439+1070966160+1071785120+1071387769
1996+1070170956+1069104984+1068415111+1067995792+1068126454+1068856899
1987+1069350279+1068730459+1067403307+1066770035+1067406599+1068303126
1979+1068538259+1068776899+1069911780+1071326731+1072014958+1072009091
1970+1071665406+1071021473+1070493674+1070809595+1071747768+1072207158
1962+1071562509+1069992209+1067918154+1065915082+1064762814+1064953153
1953+1066320663+1068157008+1069410028+1069238293+1067946991+1066978550
1945+1067456831+1068927883+1069659616+1068381122+1065635799+1063064428
1936+1061786578+1061651695+1061869154+1062039315+1062402820+1063364105
1928+1064865067+1066131325+1066251682+1065128823+1063586430+1062331550
1919+1061333771+1060484328+1060156529+1060636099+1061523180+1062169762
1911+1062395521+1062547507+1062919742+1063410474+1063758952+1063836519
1902+1063788219+1063985928+1064608896+1065327821+1065670790+1065569752
1894+1065324172+1065220201+1065365531+1065654833+1065831075+1065784278
1885+1065683240+1065715226+1065896263+1066121951+1066317729+1066537192
1877+1066860625+1067177118+1067259622+1067127816+1067130607+1067597582
1868+1068409888+1069046093+1069244733+1069223624+1069249027+1069333248
1860+1069295467+1068994931+1068522088+1068207885+1068334467+1068791783
1851+1069186558+1069284232+1069172963+1069092032+1069207095+1069372962
1843+1069199725+1068690817+1068356221+1068608027+1069357148+1070058041
1834+1070223478+1069890313+1069506987+1069480225+1069821834+1070240509
1826+1070401725+1070051243+1069351638+1068911139+1069157936+1069974678
1817+1070890883+1071443869+1071433207+1070978253+1070400580+1069999007
1809+1069863837+1069886735+1069923300+1069930384+1069986699+1070190205
1800+1070543978+1070923298+1071127805+1071043655+1070856893+1071017609
1792+1071670415+1072245011+1072336746+1072256890+1072350628+1072506478
1783+1072461898+1072337605+1072462900+1072794276+1072920287+1072619894
1775+1072124797+1071915996+1072261469+1072830698+1073160787+1073201431
1766+1073136029+1073154490+1073361287+1073649873+1073741322+1073597494
1758+1073488586+1073545688+1073591913+1073457030+1073190626+1072958283
1749+1072891020+1072984186+1073147764+1073329731+1073521502+1073663612
1741+1073599140+1073238139+1072738463+1072336245+1072149555+1072182257
1732+1072295959+1072370378+1072465977+1072662470+1072936530+1073224544
1724+1073464042+1073543684+1073370947+1073043506+1072907979+1073232987
1715+1073670195+1073741823+1073443148+1072974240+1072486800+1072048590
1707+1071705335+1071518359+1071483439+1071496319+1071402295+1071062975
1698+1070592565+1070261403+1070035000+1069672639+1069192068+1068796720
1690+1068525952+1068250604+1067975041+1067926812+1068164665+1068249173
1681+1067956508+1067509139+1067063487+1066693399+1066440233+1066220341
1673+1065925816+1065664636+1065627713+1065658053+1065330755+1064621633
1664+1063881600+1063446323+1063332406+1063255912+1063031155+1062661281
1656+1062213053+1061817992+1061628225+1061460926+1061107797+1060668084
1647+1060134204+1059241183+1057944657+1056618292+1055536506+1054728422
1639+1054134578+1053806350+1053902664+1054276831+1054473468+1054379085
1630+1054168138+1054058156+1054172574+1054449997+1054787957+1055046275
1622+1054889567+1054021591+1052173796+1048519423+1042032643+1033099716
1613+1022555344+1009983142+994785044+977428240+959462636+942644364+928282614
1604+917348977+910702197+908751290+911111785+916968370+925552962+936081520
1594+947493080+958658918+968866332+977891781+985734336+992448807+998154337
1584+1003048707+1007263794+1010734697+1013470074+1015964307+1018937465
1575+1022067617+1024210366+1025367787+1026321130+1027475474+1028499514
1567+1029071462+1029321694+1029346596+1029101516+1028702662+1028583735
1558+1028887706+1028756543+1027887136+1026588249+1025105319+1023557846
1550+1022016168+1020608587+1019479503+1018713279+1018340830+1018363942
1541+1018904692+1019864117+1020317354+1019835924+1018843655+1017869203
1533+1017290671+1017096253+1017146915+1017613962+1018761294+1020429697
1524+1022231624+1024272763+1026818874+1029408420+1031479255+1033081612
1516+1034266010+1034902573+1035013271+1034651340+1033658212+1031690775
1507+1028549889+1025000704+1021881070+1018825909+1015396437+1011580776
1499+1007715957+1004336288+1001877404+1000303169+999268610+998524569+997925143
1489+997224394+996135953+994655456+993027410+991482728+990046381+988445169
1479+986210971+982982357+978742441+973747964+968442719+963714002+960331471
1469+958162962+956931194+956814987+957925539+959563674+960897266+961898909
1459+963241231+965791420+968978818+970979456+971599920+971540743+971210583
1449+970735092+970157634+969566652+969127154+969005651+969249658+969776025
1439+970579744+971836127+973391185+974398195+974396549+973753832+972919344
1429+971996842+970809439+969201787+967156354+964828060+962616689+961170252
1419+961309501+963221481+965831492+968323721+970847865+973643921+976555899
1409+979285337+981813559+984392085+987090396+989509781+991300903+992658109
1400+993905762+994900321+995031555+993624117+990236363+984973121+978366771
1390+971004215+963823125+958406396+955854059+955648908+956467367+957227508
1380+957366256+956867008+956217565+956222431+957560745+960267858+963902195
1370+968054527+972175160+975470464+977517614+978548666+979138289+980009986
1360+981807405+984747075+988522593+992466911+995927939+998665320+1000842273
1350+1002664021+1004121691+1005069524+1005470740+1005502367+1005415140
1341+1005389810+1005570990+1006092491+1006946442+1007946153+1008853342
1333+1009440317+1009507580+1008956741+1007846762+1006363546+1004761189
1324+1003312892+1002260086+1001776295+1001965561+1002826668+1004174214
1316+1005701508+1007204903+1008678101+1010177703+1011690544+1013150647
1307+1014479087+1015604164+1016534108+1017379258+1018230132+1019072420
1299+1019860754+1020602648+1021321859+1022007653+1022629047+1023155342
1290+1023547184+1023737809+1023618525+1023028187+1021819532+1019999430
1282+1017787772+1015492036+1013404385+1011878021+1011339274+1012049612
1273+1013895475+1016455540+1019212097+1021725221+1023756915+1025345032
1265+1026717909+1028044631+1029260442+1030213498+1030919543+1031537788
1256+1032139289+1032619717+1032794815+1032570844+1032094567+1031669595
1248+1031442046+1031304014+1031163478+1031114247+1031249488+1031473531
1239+1031579434+1031425660+1030978648+1030233176+1029179655+1027879193
1231+1026465530+1024993334+1023371513+1021515919+1019462115+1017233641
1222+1014662199+1011428863+1007299500+1002314326+996783965+991174464+986035802
1213+981964543+979484764+978839113+979828377+981837173+984053625+985768182
1203+986623135+986787642+986952508+987995081+990417543+994015601+998087218
1193+1001969354+1005414210+1008508799+1011313514+1013684384+1015485667
1184+1016860834+1018176036+1019716926+1021498460+1023356558+1025157913
1176+1026873185+1028458083+1029772283+1030677254+1031121260+1031085195
1167+1030552889+1029546452+1028069390+1026072114+1023646862+1021216815
1159+1019367875+1018522296+1018804800+1020091952+1022108762+1024526859
1150+1026982094+1029066811+1030470671+1031170419+1031391098+1031405624
1142+1031427162+1031605981+1032002402+1032596605+1033383293+1034435025
1133+1035799243+1037323890+1038665425+1039546281+1039948713+1039990860
1125+1039672506+1038842670+1037406681+1035494128+1033406048+1031414211
1116+1029674537+1028357045+1027719552+1027928424+1028865094+1030203194
1108+1031615212+1032863294+1033798605+1034366618+1034570195+1034390160
1099+1033753238+1032537070+1030563694+1027623237+1023629402+1018863046
1091+1014066780+1010184358+1007873667+1007235457+1007971627+1009686113
1082+1011974908+1014400232+1016604233+1018472779+1020059608+1021355276
1074+1022223610+1022513555+1022056240+1020541181+1017544982+1012768251
1065+1006237034+998304963+989548636+980734850+972858664+967049449+964261121
1055+964966593+969017458+975626242+983517955+991349132+998151761+1003455718
1045+1007091486+1008967045+1009043538+1007473525+1004623014+1000862666
1037+996455236+991726877+987156729+983164611+979959110+977669384+976469316
1027+976476901+977622587+979712527+982590087+986115014+989951498+993558572
1017+996548331+998956267+1001044490+1002910031+1004331709+1004922190+1004415930
1007+1002882482+1000717407+998498880+996888652+996503823+997624893+999965567
997+1002850997+1005637036+1007924615+1009520889+1010431942+1010899276
989+1011275947+1011811617+1012611114+1013727676+1015158727+1016732176
980+1018104623+1019007447+1019532526+1020070485+1020873917+1021771947
972+1022429190+1022774306+1022992409+1023157918+1023121496+1022797562
963+1022338243+1021961428+1021805936+1022001213+1022632124+1023567720
955+1024532870+1025401705+1026248786+1027134866+1028037404+1028960622
946+1029928276+1030881189+1031730489+1032474029+1033122614+1033568337
938+1033685475+1033527550+1033274671+1033015637+1032694207+1032237178
929+1031655784+1031045482+1030573569+1030471745+1030957539+1032066874
921+1033579214+1035167760+1036595449+1037710437+1038370041+1038507429
912+1038202672+1037571188+1036657989+1035524682+1034315169+1033113025
904+1031846553+1030461655+1029074968+1027815866+1026611075+1025262886
895+1023645931+1021694523+1019302974+1016428849+1013267284+1010130190
887+1007092345+1003906594+1000369931+996652803+993132025+989944413+986805245
877+983293627+979308163+975173434+971237846+967485584+963705129+959960381
867+956692984+954392954+953342081+953685622+955536207+958844176+963271213
857+968353417+973683349+978789024+983060926+986088395+987908068+988667136
847+988231645+986399665+983336775+979504871+975192468+970307043+964650171
837+958335627+951954678+946350901+942182469+939705696+938967093+940020972
827+942800070+946923994+951867594+957331336+963322447+969848297+976633895
817+983185505+989000302+993616675+996539172+997150905+994665402+988449820
807+978935070+968355134+960180273+957245111+959956374+966194067+973102241
798+979033531+983912444+988277513+992404657+996113055+999006356+1000924061
788+1002237618+1003592390+1005306876+1007104295+1008471876+1009232947
779+1009642034+1009935987+1010043607+1009830728+1009392303+1008986937
771+1008758029+1008470302+1007612344+1006064870+1004589239+1004271816
762+1005523763+1007864221+1010515234+1012945639+1014991501+1016708777
754+1018127163+1019098752+1019421113+1019091382+1018322869+1017307201
745+1016105845+1014792646+1013511862+1012349003+1011287897+1010266862
737+1009165756+1007892128+1006663294+1006075317+1006669019+1008416062
728+1010730260+1012971256+1014841090+1016362373+1017694177+1019006445
720+1020359643+1021664184+1022761927+1023471191+1023650439+1023374877
711+1022837633+1022004934+1020718641+1019153636+1017750205+1016672283
703+1015590139+1013956441+1011495124+1008574702+1005999611+1004293855
694+1003338295+1002756615+1002432895+1002571141+1003366989+1004764552
686+1006591953+1008703146+1010779491+1012292188+1012909932+1012668573
677+1011660347+1009825218+1007130270+1003847560+1000428893+997042355+993633276
667+990870779+989836578+990616898+992788198+995852161+999329289+1002944449
657+1006377499+1009136132+1011073658+1012639307+1014389499+1016454681
649+1018421545+1019608232+1019640862+1018817250+1017642942+1016042088
640+1013476299+1009957811+1006493134+1004357827+1004175287+1005666231
632+1008043255+1010535198+1012644387+1014180197+1015239013+1016086238
623+1016900261+1017623622+1018083084+1018188343+1018012029+1017721439
615+1017383551+1016822122+1015736042+1014003883+1011910149+1010052051
606+1008903431+1008391232+1008045616+1007663005+1007540144+1007786654
598+1007827227+1007111451+1005864227+1004585089+1003376219+1002337510
589+1001869318+1001859944+1001295223+999347822+996474771+993914564+992261688
579+990891531+988827923+985850614+982486688+979252421+976374361+974022811
569+972251939+970802140+969320427+967748338+966298754+965178900+964538615
560+964488526+964676003+963981551+961506209+957877524+954569340+952061798
550+949753182+947441131+945779883+945284070+945562639+945618095+944755199
540+943259961+942135671+942084008+942827548+943430050+943185901+942087299
530+940365873+938003947+935271647+933286751+932915303+933515373+933856266
520+933562814+933075517+932645250+931871728+930403825+928732846+927778501
510+927765120+928129341+928482542+928787872+928740931+927972204+926616787
500+925062873+923742162+923381018+924490496+926605624+928820073+930660211
490+931897273+932383497+932574839+933455409+935556083+938239439+940186482
480+940631919+940093029+940034210+941802434+945484714+949308174+950808420
470+949756688+948336656+947916478+947649860+946240347+943710193+941197999
460+939945838+940462259+941688445+941337319+938386272+934285031+931640458
450+932076092+934715226+936991571+936848244+934443671+931952729+931337776
441+932291977+932999882+932677665+932858845+935931037+941792345+947161775
431+949202700+948696512+948335869+949068675+949927564+950320193+951038688
421+953682473+959191295+965178327+968447871+969586115+969747116+968446941
411+965848164+963918724+962961303+960042027+953906802+948351325+947745459
401+952043837+957466720+960193296+960136910+959659845+958229080+952923119
391+942938961+932103928+926183944+927612205+933384497+938107274+939394283
381+938113500+934916728+930196741+926261868+928023295+937320443
##END=
