##TITLE=CZ-PHOS38
##JCAMP-DX=4.24
##DATA TYPE=INFRARED SPECTRUM
##DATE=16/11/2021
##SAMPLING PROCEDURE=Diamant ATR
##ORIGIN=Angelika Moesle
##XUNITS=1/CM
##YUNITS=TRANSMITTANCE
##RESOLUTION=4
##FIRSTX=3997.453
##LASTX=373.96442
##DELTAX=-1.4165319
##MAXY=1.0007132
##MINY=0.39479893
##XFACTOR=1
##YFACTOR=9.3198682e-010
##NPOINTS=2559
##FIRSTY=0.99916977
##XYDATA=(X++(Y..Y))
3997+1072085724+1071629601+1071162734+1070870207+1070654937+1070379101
3989+1070131790+1070063423+1070126418+1070130767+1069960712+1069627126
3980+1069178614+1068717311+1068493918+1068803649+1069713080+1070964796
3972+1072149295+1072888352+1072976545+1072516713+1071868855+1071424244
3963+1071434157+1071862076+1072310652+1072373071+1072104015+1071836238
3955+1071609200+1071137153+1070318345+1069458158+1068929064+1068763614
3946+1068770521+1069021861+1069869449+1071277341+1072457939+1072664320
3938+1071964339+1070952580+1070131022+1069733802+1069848536+1070310606
3929+1070624430+1070446445+1070000811+1069799867+1070022108+1070307217
3921+1070316234+1070236739+1070615988+1071619561+1072500149+1072440351
3912+1071659724+1071034378+1070878074+1070671693+1070083952+1069606085
3904+1069828646+1070459556+1070898603+1071259753+1071647381+1071426291
3895+1070079027+1068081348+1066781987+1067194493+1068416597+1068930023
3887+1068905976+1069481885+1070610872+1071246387+1071590461+1072469259
3878+1073147431+1072380106+1070542377+1068980035+1068385963+1068535232
3870+1069152137+1069787971+1069927072+1069987125+1070855370+1072302018
3861+1072976545+1072318966+1070799857+1068963535+1067417310+1067464316
3853+1069930397+1072258017+1072352734+1071230974+1070094376+1069437821
3844+1069359988+1069654562+1069880065+1069898932+1070142534+1070803439
3836+1071184735+1070747287+1069949648+1069575706+1069712377+1069673045
3827+1069035740+1068180669+1067614545+1067451270+1067815874+1068715328
3819+1069518851+1070019102+1070780671+1071682108+1071762115+1070778305
3810+1069293284+1068125541+1068181437+1069453873+1070425149+1070224588
3802+1069776459+1070055364+1070519673+1070649373+1070856265+1071316801
3793+1071711015+1071928460+1072014607+1071794988+1071162607+1070407433
3785+1069856914+1069407442+1068865365+1068600146+1069266615+1070691774
3776+1071767807+1071734487+1070728228+1069548078+1069249795+1070179692
3768+1071387342+1071971694+1072031491+1071734359+1070883190+1069647847
3759+1068805824+1068824626+1069076287+1068675357+1067463613+1066294974
3751+1066817290+1069130136+1070664210+1070164343+1069060810+1069523328
3742+1071292690+1072176859+1071525931+1070142982+1069312470+1069925025
3734+1071365918+1072220668+1071922640+1070589000+1068722875+1067453828
3725+1067927602+1069873862+1071820505+1072869101+1072976545+1072280785
3717+1070772741+1068943325+1067706448+1067978318+1069659103+1071199764
3708+1071754760+1071887785+1071901663+1071719777+1071557589+1071627427
3700+1071563665+1071092193+1070618483+1070468957+1070258803+1069414158
3691+1068106674+1067473142+1068438725+1070108510+1070977906+1070748886
3683+1069903856+1068903930+1067764838+1066255003+1064790064+1064615852
3674+1065574912+1065550162+1064442152+1064224579+1065559179+1066469250
3666+1065821904+1064467414+1063273641+1062260476+1061092477+1059769772
3657+1058626907+1057759622+1056580047+1054408220+1051351520+1048600714
3649+1047916594+1048928481+1049114012+1047759011+1045858670+1044453528
3640+1043736088+1042858058+1041005683+1038601702+1036809508+1036028689
3632+1035559712+1034785672+1033829873+1032699991+1030817430+1028229836
3623+1025663986+1023664324+1022182756+1020830313+1019364670+1017778346
3615+1016184155+1014824229+1013768150+1012563441+1010746369+1008571345
3606+1006641905+1004949863+1003096210+1001174316+999724215+998802952+997658168
3597+995662472+993055883+990630988+988840201+987465182+986239624+985374449
3587+985002746+984278079+982315063+979332039+976259926+973881015+972273329
3577+970930991+969306421+967208782+964796102+962270863+959750741+957560687
3567+956268552+955752568+954992535+953370332+951051857+948505897+946144062
3557+944171516+942585192+941217911+939699762+937576988+934810961+931974008
3547+929644086+927788385+926026506+924236998+922382065+920252128+917872770
3537+915714437+914076885+912546840+910531637+908102906+905858618+904046087
3527+902276597+900270220+898244017+896312531+894207920+891794729+889305369
3517+886988237+884898144+883000745+881213668+879361613+877324857+875273712
3507+873508252+872033527+870574664+868928350+867065871+865031545+862958784
3497+861032094+859321442+857783723+856387343+855075063+853733364+852268361
3488+850605547+848730276+846787662+844928891+843084511+841108576+839046751
3478+837095566+835400903+833882242+832221155+830268116+828345967+826797055
3468+825484903+824116471+822707045+821393230+820131601+818787664+817187078
3458+815102165+812599118+810281091+808722267+807798574+807009632+806200929
3448+805476390+804665193+803470972+801987486+800511803+799050189+797403939
3438+795580280+793860291+792550761+791706179+791004024+789997126+788569728
3428+786964985+785389277+783879058+782500265+781398075+780653135+780171942
3418+779640929+778684555+777266238+775803602+774713755+773999448+773402178
3408+772720361+771921570+771185327+770793607+770704326+770350915+769223271
3398+767554765+766102680+765330303+765128208+765193953+765303826+765347507
3388+765352687+765330048+765114713+764650212+764247108+764168892+764208671
3378+764012971+763548406+763036771+762672807+762516822+762538503+762753006
3369+763269437+764058634+764769423+764996078+764717748+764349691+764365040
3359+764890489+765645215+766247729+766542431+766641560+766764417+767083677
3349+767655877+768421794+769255312+770024236+770614598+770937184+770994679
3339+771011691+771407441+772437746+773850562+775099208+775910597+776456640
3329+776980362+777457270+777680087+777619970+777658215+778335172+779741145
3319+781261725+782133743+782177615+781847803+781691498+781904210+782306483
3309+782638982+782877724+783201973+783668136+784125090+784501398+784924584
3299+785394521+785563552+785133907+784376879+783959512+784249418+785011434
3289+785757398+786210067+786487118+786959293+787805154+788688556+789115003
3279+789068956+788955373+788980443+788960490+788743812+788515431+788580665
3269+789010182+789595493+790097407+790468150+790808580+791184631+791564201
3259+791893310+792138639+792283815+792379747+792592651+793082734+793826523
3250+794680954+795622490+796743738+797960279+798953618+799549545+799990958
3240+800676421+801725018+802890330+803824448+804380532+804707147+805101361
3230+805796865+806871299+808259493+809762101+811112178+812148943+812928483
3220+813655069+814535721+815647568+816860974+817947687+818871252+819891261
3210+821274914+822970025+824614996+825807745+826409940+826727665+827359087
3200+828704047+830643336+832755110+834732324+836486337+837991375+839216422
3190+840204581+841168118+842460444+844290499+846307044+847718965+848188071
3180+848394004+849313988+851085844+852951393+854223382+854936090+855639588
3170+856810593+858414569+859998207+861272690+862446253+863829267+865374789
3160+866862751+868254655+869594563+870848197+872071069+873444169+874933347
3150+876203929+877023632+877540064+878134840+879132528+880529740+881905590
3140+882803446+883226888+883525811+883885426+884191384+884279129+884074987
3131+883563416+882766289+881729588+880503710+879137197+877641751+875935193
3121+873914682+871665086+869517626+867801474+866595166+865787486+865233194
3111+864786920+864387845+864149167+864167266+864306942+864402042+864538329
3101+864924358+865605856+866404710+867032934+867319002+867436870+867764636
3091+868455280+869337083+870249008+871241644+872393719+873609619+874721594
3081+875732585+876820002+878055153+879250460+880167758+880767458+881168644
3071+881459189+881641906+881720762+881754914+881818740+881945818+882108901
3061+882225874+882217240+882117088+882050319+881997365+881694413+880988548
3051+880208817+879943278+880486315+881671581+883109660+884385166+885216765
3041+885659585+886027387+886505318+886947179+887056477+886671535+885957740
3031+885343139+885136502+885275155+885534170+885749185+885767412+885482367
3021+884971436+884372503+883734558+883195231+883072246+883516921+884246513
3012+884830288+885139252+885399802+885917833+886836410+888063950+889377573
3002+890643039+891924621+893341338+894917430+896614332+898372118+900091787
2992+901735287+903429247+905314878+907340378+909313626+911096483+912664708
2982+914046507+915254861+916237072+916886849+917146631+917128980+917046479
2972+916903093+916319829+914820930+912275226+908964563+905324088+901730427
2962+898463956+895749157+893724681+892360917+891551511+891395334+892231410
2952+894253903+897209747+900578864+904013215+907568503+911477970+915719425
2942+919935810+923815027+927354071+930666141+933679352+936109554+937721781
2932+938648544+939432369+940623455+942321700+944163394+945705526+946726686
2922+947219007+947311357+947286543+947464528+947933697+948563584+949326048
2912+950329364+951493462+952538669+953343791+953992672+954499190+954850108
2902+955272911+956066393+957186362+958323087+959321991+960239928+961134906
2893+962110018+963361669+964858330+966176878+966968121+967371609+967735958
2883+968175580+968604906+969016260+969500651+970068566+970590370+970951328
2873+971171907+971310240+971347398+971249803+971009079+970508188+969490546
2863+967807395+965610561+963197626+960763842+958408978+956267849+954451353
2853+952908709+951571039+950642165+950567722+951675221+953881967+956680291
2843+959441649+961906899+964347207+967106966+970138852+973117399+975786216
2833+978020270+979760533+981055993+982027460+982735116+983240675+983768107
2823+984557880+985549812+986436668+987045449+987486415+987922648+988378515
2813+988812253+989264539+989856373+990629006+991427732+992025641+992390629
2803+992737837+993275886+993974396+994645341+995185883+995634715+996023494
2793+996324975+996569217+996852023+997190534+997498986+997729541+997939503
2783+998215531+998582437+998973006+999284784+999503380+999730418+1000044882
2774+1000392794+1000658460+1000792892+1000826660+1000828579+1000922464
2765+1001265579+1001840529+1002313216+1002332147+1001973362+1001686655
2757+1001808680+1002305733+1002929672+1003431267+1003707741+1003890651
2748+1004214068+1004724616+1005218984+1005495139+1005560756+1005608849
2740+1005851301+1006310621+1006752418+1006933281+1006885379+1006831465
2731+1006907699+1007151046+1007601284+1008203031+1008752208+1009125957
2723+1009403391+1009641110+1009749576+1009718111+1009749065+1010035324
2714+1010549198+1011133421+1011674283+1012127592+1012482795+1012748845
2706+1012917621+1012948255+1012856864+1012782293+1012871637+1013085629
2697+1013216607+1013187252+1013228823+1013592275+1014153667+1014578900
2689+1014804787+1015016028+1015235200+1015350062+1015455459+1015739864
2680+1016118090+1016340779+1016367448+1016348582+1016347750+1016354721
2672+1016493886+1016968747+1017747392+1018456710+1018689696+1018361546
2663+1017732363+1017173657+1016956020+1017128377+1017515813+1017902098
2655+1018236515+1018550723+1018723847+1018589543+1018301173+1018274824
2646+1018676329+1019246802+1019708553+1020062669+1020408214+1020718905
2638+1020862994+1020772242+1020595537+1020609095+1020868622+1021119579
2629+1021191719+1021268784+1021620150+1022269287+1023030536+1023700074
2621+1024135540+1024259036+1024106185+1023881513+1023866420+1024174872
2612+1024672948+1025176461+1025610967+1025979153+1026311907+1026688663
2604+1027232979+1028025757+1028961985+1029725089+1030059059+1030031495
2595+1029872376+1029688571+1029540069+1029607797+1029990756+1030433192
2587+1030539356+1030312702+1030256166+1030764604+1031567935+1032026424
2578+1031870759+1031378118+1030958002+1030892448+1031340001+1032195775
2570+1032990728+1033237016+1032877209+1032293625+1032011714+1032405865
2561+1033379059+1034276787+1034463533+1034029795+1033606673+1033592986
2553+1033924974+1034435713+1035002541+1035405965+1035360430+1034794242
2544+1034100592+1034006963+1034923813+1036401415+1037494460+1037678584
2536+1037195665+1036656593+1036585156+1037149937+1037991002+1038501869
2527+1038541585+1038566335+1038834048+1038960102+1038643528+1038293826
2519+1038413996+1038821257+1039002248+1038901776+1038914823+1039340951
2510+1040139677+1041041882+1041735915+1042067006+1042159740+1042276009
2502+1042516158+1042708277+1042720748+1042835354+1043495747+1044553041
2493+1045151910+1044678520+1043544673+1042715696+1042691457+1043232255
2485+1043862078+1044335341+1044662595+1044880935+1044940541+1044882918
2476+1044984030+1045438106+1045950637+1046007492+1045558916+1045085589
2468+1044954611+1045018437+1044880488+1044367893+1043759367+1043626534
2459+1044297671+1045443031+1046362247+1046670827+1046504993+1046179018
2451+1045941043+1045964898+1046231716+1046411876+1046121331+1045374791
2442+1044679735+1044571268+1045040374+1045538131+1045622039+1045394617
2434+1045175126+1045044211+1044955506+1045006222+1045293633+1045641993
2425+1045688424+1045283400+1044726933+1044477383+1044588088+1044679671
2417+1044575106+1044648014+1045305848+1046352910+1047133985+1047260550
2408+1046981709+1046748148+1046617873+1046343380+1045881374+1045459915
2400+1045235626+1045165596+1045119293+1044995798+1044860790+1044921546
2391+1045174550+1045267668+1044954611+1044462290+1044165861+1044134716
2383+1044179995+1044161001+1044072616+1043988836+1044054901+1044420976
2374+1045061031+1045803861+1046601436+1047464821+1048020776+1047633212
2366+1046255315+1044724439+1043931533+1044034691+1044605292+1045180050
2357+1045474496+1045389309+1045055979+1044593972+1043781624+1042415238
2349+1040869397+1039968087+1040288499+1041420811+1042265009+1042379615
2340+1042251835+1042343609+1042559391+1042528565+1042161211+1041740775
2332+1041443643+1041070917+1040382896+1039378428+1038192714+1037091163
2323+1036538789+1036895335+1037965612+1039135785+1039977169+1040463862
2315+1040656556+1040505048+1040114287+1039927732+1040295150+1040973259
2306+1041342467+1041062603+1040320412+1039515546+1038883165+1038434461
2298+1038157411+1038153829+1038499055+1039031028+1039398126+1039343957
2289+1038912520+1038415851+1038193225+1038313524+1038486648+1038347419
2281+1037869232+1037456599+1037565449+1038198853+1038877217+1039233507
2272+1039451912+1039835062+1040200306+1040212073+1040084996+1040318621
2264+1040877263+1041244105+1041189169+1040963729+1040799175+1040680667
2255+1040658859+1041029986+1041913644+1042736993+1042579217+1041235919
2247+1039615699+1038795804+1038915846+1039259984+1039136680+1038401461
2238+1037368150+1036607668+1036705199+1037829709+1039477238+1040818873
2230+1041330636+1041006131+1040197684+1039484656+1039361800+1039636164
2221+1039453510+1038514660+1037892959+1038737349+1040420501+1041144209
2213+1040435850+1039770596+1040362046+1041663326+1042674381+1043436526
2204+1044351201+1045062886+1045003408+1044444255+1044291532+1045018182
2196+1046032882+1046034864+1044085023+1040532293+1036953406+1035106723
2187+1035614904+1037555344+1039685729+1041642861+1043179557+1043439084
2179+1042465570+1042002540+1043356135+1045799512+1047830831+1048524353
2170+1047559089+1045601062+1044389574+1045136177+1047307621+1049717358
2162+1052043571+1054625090+1057312069+1059011913+1058568837+1056170228
2153+1053536394+1052546124+1053678181+1055726640+1056803056+1055667546
2145+1052597096+1049276329+1047584863+1048041753+1049367272+1049857162
2136+1049143623+1048219802+1047918769+1048080062+1048229395+1048264570
2128+1048218523+1047937188+1047357633+1046714060+1046100290+1045278156
2119+1044284945+1043692599+1043862270+1044448732+1044925576+1045091345
2111+1044974245+1044862836+1045299261+1046360776+1047275196+1047404320
2102+1047002942+1046497191+1045908171+1045422373+1045486967+1046067993
2094+1046823614+1047877518+1049342329+1050501822+1050555672+1049767370
2085+1048971778+1048524481+1048555179+1049546664+1051645583+1053746484
2077+1054272253+1052961188+1051099156+1049822563+1049066110+1048602057
2068+1049029976+1050698098+1052530072+1053251222+1053194686+1053645181
2060+1055020520+1056682118+1057781366+1057650260+1056211670+1054529094
2051+1054275259+1056255607+1059467908+1061780498+1062003379+1061024429
2043+1060452549+1060740088+1061249613+1061479721+1061600658+1062526526
2034+1065440160+1069893752+1072976545+1072395711+1069579927+1067701011
2026+1067708174+1068369910+1069061705+1070134092+1071021395+1070487888
2017+1068831085+1067588388+1066782882+1064818076+1061544954+1059321644
2009+1060268425+1063776642+1067429525+1069350523+1068981186+1066790173
2000+1064154549+1062694278+1062971137+1064197782+1065348577+1065998034
1992+1066038070+1065260256+1063611320+1061733620+1060935981+1061938977
1983+1063501383+1063527924+1062137619+1062097264+1065134650+1069406611
1975+1072173086+1072976545+1072932544+1072520742+1071714917+1070310095
1966+1068285746+1066144618+1064783284+1064749389+1065594546+1066287811
1958+1066449360+1066549193+1066817929+1066836092+1066322539+1065572290
1949+1065000538+1064664265+1064242550+1063454888+1062629173+1062443066
1941+1062818030+1062997422+1062754907+1062460909+1062277040+1062054415
1932+1061747754+1061481575+1061473901+1061988478+1063059522+1064286743
1924+1065008596+1064842826+1064302603+1064499519+1065773234+1066969373
1915+1066954600+1066109698+1065431590+1065275925+1065377421+1065423020
1907+1065237936+1064821401+1064473234+1064528746+1064757831+1064502397
1898+1063710642+1063258612+1063693630+1064300557+1064273120+1063993000
1890+1064165101+1064456733+1064082472+1063130703+1062325390+1062117858
1881+1062441083+1063038993+1063772166+1064600503+1065290507+1065379339
1873+1064715813+1063801265+1063294043+1063240065+1063171506+1063068540
1864+1063340410+1064017303+1064630689+1064791535+1064535397+1064045635
1856+1063409288+1062704255+1062094386+1061813115+1062019368+1062556585
1847+1063084592+1063566488+1064125897+1064327610+1063655065+1062474147
1839+1061546937+1061206508+1061173187+1061029034+1060713291+1060489067
1830+1060556347+1060773664+1060922550+1060970964+1060872474+1060587109
1822+1060248343+1059948205+1059665271+1059537554+1059768941+1060248279
1813+1060663151+1060852712+1060870235+1060875991+1060962713+1061013173
1805+1060885776+1060741303+1060950946+1061558193+1062061897+1062010862
1796+1061527942+1061129698+1061309154+1062059851+1062666330+1062556649
1788+1061950105+1061435017+1061376626+1061627519+1061832749+1061801219
1779+1061466930+1060930544+1060564533+1060784728+1061588123+1062185393
1771+1061721340+1060526800+1059403761+1058511917+1057655440+1056927000
1762+1056526901+1056213269+1055621371+1054856668+1054097722+1053217006
1754+1052145898+1051111691+1050268773+1049288672+1047781651+1045960294
1745+1044199501+1042477977+1040597527+1038611359+1036705071+1034840289
1737+1032925686+1031121277+1029580296+1027821551+1025228840+1021917282
1728+1018431000+1015207316+1012283961+1009534498+1006965002+1004685924
1720+1002876143+1001739673+1001010657+999855065+997980626+995637913+993052045
1710+990460614+988095580+985951318+983682728+980897834+977465786+973403723
1700+969013638+964809085+960486216+955321580+949585127+944031009+938672910
1690+933265503+927981208+923001272+917985265+912618917+907402285+902692812
1680+898247599+894030958+890126415+886460358+882910122+879426079+875881023
1670+872158942+868519682+865319468+862471004+859919288+858028412+857025288
1660+856393163+855548773+854448246+853596629+854474787+858586414+862654041
1650+863829267+864286669+866474356+870680764+874642675+877433132+879869603
1640+882400469+885031489+888371954+893616214+899725968+903807601+905909782
1630+907778337+910549992+914206840+918071923+922007165+926277015+930243594
1621+932968819+934905165+937511626+941314226+944768914+946984486+948836733
1611+951218906+954224378+957309154+959965116+962163612+964121064+965962247
1601+967769853+969704474+971897853+974379859+977085257+979831587+982429861
1591+984856866+987243388+989743621+992379821+994939403+997129329+998768224
1581+999779151+1000320206+1001035407+1002607342+1004276232+1004564538
1572+1003715416+1002868852+1002696623+1002929672+1003173211+1003572158
1564+1004044717+1004174608+1004202748+1005553465+1008439854+1009845700
1555+1009583039+1009096922+1008861442+1008979501+1009543899+1010322799
1547+1010974175+1011584619+1012489126+1013922152+1016265121+1019235866
1538+1020883139+1020844575+1020515721+1021054345+1022411074+1023246318
1530+1022896296+1021905450+1020942489+1020217566+1019712263+1019761188
1521+1020730480+1022065208+1022961785+1023382029+1023484356+1023266975
1513+1022777340+1022095651+1021324553+1020930913+1021629295+1022460766
1504+1021720558+1019935016+1017994192+1016251435+1014853648+1013894460
1496+1013121060+1011983631+1010263578+1008154810+1006036385+1004149538
1487+1002219779+999835687+996856052+993204641+988785840+983586477+977582567
1477+970678819+962875872+954053237+943661992+932037771+920993935+911218060
1468+901892871+892276114+882705084+874418706+867963534+862835608+858486262
1458+854907438+852380537+850652489+849466455+849009117+849695220+852171789
1448+856856576+863054460+869641697+876411781+883457891+890327935+896901359
1438+904073971+912117067+919102229+923770387+927113858+930387364+933898907
1428+937224215+940241711+943286388+946370396+949153435+951864270+955321772
1418+959464929+963111608+965968066+968643534+971465138+974197717+976409004
1408+977872600+978498585+977982537+975961835+972432384+967436907+960888361
1398+953183521+945303573+938295515+933313469+931172276+931856140+935415266
1388+942351311+952175792+962592874+971652908+979103274+985346437+990628174
1378+995094621+999011251+1002714977+1006288749+1009432107+1011994311+1014270064
1368+1016518636+1018639811+1020546995+1022521651+1024870248+1027361079
1360+1029450725+1030994008+1032268683+1033587550+1035031065+1036426805
1351+1037570246+1038490485+1039458307+1040653615+1041895097+1042874686
1343+1043551707+1044137785+1044815446+1045633743+1046608152+1047769627
1334+1049128850+1050660813+1052300028+1053940650+1055503439+1057016856
1326+1058550674+1060039276+1061311776+1062355256+1063406283+1064688440
1317+1066151653+1067552509+1068738927+1069783814+1070843730+1071882413
1309+1072645133+1072976545+1073268049+1073538576+1073741823+1073527576
1300+1072599214+1070935249+1068619141+1065647116+1062021286+1057852676
1292+1053215215+1048025381+1042173810+1035690690+1028712499+1021319308
1283+1013442430+1004934131+995727385+985909811+975611365+964786765+953099805
1273+940077476+925454242+909343493+892027011+873667562+854315796+834063809
1264+813062979+791530561+769849768+748504992+727819649+707877265+688691461
1254+670343587+653028896+637038317+622629970+609900744+598863177+589667048
1244+582624455+577873219+575066453+573568514+572855102+572518127+572104342
1234+571309389+570259386+569447677+569546934+571303441+575327195+581792472
1224+590327377+600137020+610241110+619718318+627841549+634104218+638291823
1214+640639780+641865786+642957999+644893451+648458332+654080882+661675657
1204+670707359+680444287+690066991+698647176+705281292+709301273+710327677
1194+708317015+703759817+697756611+691718230+686895302+684089495+683632860
1184+685499561+689399883+694848029+701274742+708117669+714782164+720606042
1174+725004697+727699671+728788622+728695121+728177090+728258952+729843550
1164+733297662+738491270+745112851+752742609+760734094+768252699+774468873
1154+778788097+781145647+782179534+783032941+784893247+788524449+793948868
1145+800481297+807096546+812778382+816737350+818663337+818868630+818129190
1135+817504483+818283320+821717798+828524144+838682978+851612572+866265545
1125+881244366+895318744+907921659+918948994+928303218+935940907+942113912
1115+947208902+951485660+955091152+958074369+960256364+961220541+960455134
1105+957464116+951837153+943275579+931529269+916370033+897704242+875740260
1095+851073053+824520855+796681319+767671162+737502215+706648637+676072876
1085+646860496+620064184+596792654+578191456+565193175+558273439+557510974
1075+562759263+573435680+588115834+604690189+621072616+635623326+647017440
1065+654170162+656518567+654161592+647603134+637500324+624619463+609730754
1055+593470223+576389925+558991902+541573605+524281011+507475749+491786939
1045+477693503+465290061+454469011+445126810+437258886+431031008+426679935
1035+424266808+423609997+424491448+426844809+430694800+435965600+442406414
1026+449611228+456892978+463092045+466760724+466912584+464031023+460713933
1016+461194422+469430244+486793093+511211261+538515499+564815908+588079828
1006+608103946+625513161+640904104+654633576+666927016+677899158+687578207
996+696083564+703741526+710931406+717850375+724429043+730472541+735947868
986+741133225+746401212+751895022+757516293+763117801+768574454+773800742
976+778832161+783794638+788700835+793370848+797627908+801521067+805276085
966+809051312+812820272+816450643+819813428+822859576+825678877+828422904
956+831149087+833843166+836568326+839425616+842371355+845242204+847992498
946+850801631+853861848+857113865+860327956+863428017+866536968+869694396
936+872739008+875471779+877806370+879843509+881886660+884241716+886948841
926+889805108+892593072+895219359+897717161+900141736+902437762+904504256
916+906397050+908307752+910336193+912415862+914441489+916380458+918296915
907+920308280+922480747+924753878+926989275+929085508+930983866+932557528
897+933605996+934025985+933863412+933150385+931803378+929610766+926131583
887+920717141+912818518+902216864+889082679+874226971+859312169+846449599
877+837452304+833385380+834422081+839830448+848201053+857879718+867422288
867+875975548+883321093+889456749+894239322+897512315+899324463+899894104
857+899536855+898582144+897089960+894670758+890778430+885195340+878181974
847+870160815+861324429+851734725+841858889+832714947+825329174+820267185
837+817750516+817973397+821168110+827374564+836153070+846621060+857763961
827+868565537+878046775+885561799+890956223+894280508+895610120+895050007
817+892479553+887533768+880195450+870968687+860326165+848554146+836105744
807+823579958+811558836+800804586+792156610+785892534+781479425+777982336
798+774432739+769938601+763766043+755395309+744625711+731797932+717768898
788+703438319+689311562+675551137+662357539+650224049+639813042+631625602
778+625876678+622659197+622103753+624353093+629393849+636962595+646807605
768+658976782+673388391+689064442+704352099+718110158+730322056+741482033
758+751803439+761178321+769500385+776756586+782956900+787995802+791407768
748+792306135+789814728+783777306+775317420+766821080+760896793+758718955
738+759410110+761320875+763708100+767022856+772007013+778846743+786980910
728+795489785+803631434+810972758+817160217+821961336+825623876+828796717
718+831807306+834312911+835921236+836837958+837616922+838509278+839388075
708+840167359+841014051+842172905+843627739+844908938+845447817+845217901
698+844723534+844321580+844001297+843824015+844023745+844599462+845191488
688+845500324+845744246+846515727+847911468+848986669+848716590+847450741
679+846603601+846857500+847511753+847765268+847762454+848022621+848631083
669+849330872+849885484+850086685+849757128+849056315+848610298+849089124
659+850618849+852734716+854649254+855650716+855556319+854762582+853945117
649+853761695+854472229+855678536+856672132+857014352+856718371+856142334
639+855722473+855534575+855244926+854655394+853917105+853051098+851692195
629+849485513+846455163+842862525+838982285+835428531+833551726+834647904
619+838486254+843273816+847377897+850505906+852921591+854411344+854647272
609+854024484+853388394+852922550+851874657+849583172+846333841+842989027
599+840044503+837153253+833508493+828730908+823313652+818123242+813613115
589+809454417+804564081+797739636+788889564+779388629+770646064+762561078
579+753541847+741981772+728042338+713824831+701147217+689911710+679581350
569+670830727+664470080+659944540+656120387+652537662+649256866+646582614
560+645292142+646114148+648841802+652896191+658729854+667673235+680160713
550+694562665+708118501+719166173+728193910+736586708+744798771+752116880
540+757728046+761496430+763661094+763920557+761061476+753855224+742465331
530+728885705+716427454+709346425+711407227+722606599+738909212+756160587
520+772280802+786415041+797942691+806784577+813844566+820356401+826991477
510+833659745+839726458+844400244+847477154+849756616+852361030+855696316
500+859072020+861281260+861699522+860960017+860140506+859177673+857058160
490+853463988+848986349+844263318+840216284+838166099+838463167+840043927
480+842071090+844582131+847373292+849757895+851368778+851827331+850058417
470+845468666+839162956+833192558+829187351+827271981+826196396+824872604
460+823572603+823420584+824756783+826243402+826372846+825333651+824777504
450+825917363+828458526+832592154+840203302+851639945+863188764+871257825
441+877602931+886478329+898738449+911081006+919271004+921573746+919451803
431+915881933+913026178+910807537+908031405+904841424+903573784+906634897
421+913510313+918899749+916749794+910228558+906141041+906315508+908952987
411+911352556+912581695+914550275+919903769+929433292+941909130+955454861
401+968632662+980669389+990354002+994718057+992499352+988280025+988702508
391+995343019+1003500082+1009014037+1013963147+1023354273+1035955142+1043887148
381+1044618595+1043353705+1045691110+1053382328+1063877499+1072976545
##END=
