##TITLE=S. Graessle SG-V2472 18-30
##JCAMP-DX=4.24
##DATA TYPE=INFRARED SPECTRUM
##DATE=8/8/2016
##SAMPLING PROCEDURE=ATR platinum Diamond 1 Refl
##ORIGIN=Angelika Moesle
##XUNITS=1/CM
##YUNITS=TRANSMITTANCE
##RESOLUTION=4
##FIRSTX=3997.4121
##LASTX=373.82813
##DELTAX=-1.4160156
##MAXY=1.0000081
##MINY=0.57548004
##XFACTOR=1
##YFACTOR=9.3133012e-010
##NPOINTS=2560
##FIRSTY=0.99817896
##XYDATA=(X++(Y..Y))
3997+1071777807+1071824079+1071717519+1071411922+1070999509+1070766935
3989+1071056149+1071920718+1072874566+1073175172+1072616328+1071878862
3980+1071745871+1072199436+1072758151+1073245571+1073650496+1073733119
3972+1073396482+1073014213+1072936902+1073036485+1073011653+1072849542
3963+1072681352+1072359178+1071644816+1070871574+1070749783+1071321427
3955+1071843918+1071882446+1071800399+1071918414+1071792655+1070801367
3946+1069311267+1068466282+1068620841+1068981734+1068870310+1068524777
3938+1068330667+1068281707+1068522217+1069309155+1070236123+1070337435
3929+1069468002+1068719208+1068778855+1069118180+1069031525+1068652328
3921+1068524393+1068594729+1068383594+1067687472+1066818423+1066362875
3912+1066608185+1067226804+1067748592+1068301291+1069402530+1070944406
3904+1071959117+1071652624+1070325595+1068478698+1066251772+1064570057
3895+1064646281+1066280507+1067893998+1067785391+1066101757+1065311491
3887+1066534713+1068098733+1068129772+1067176820+1066742072+1066086653
3878+1064212620+1062714776+1063150421+1064875783+1066810359+1068445866
3870+1068895654+1067242612+1065013574+1064509770+1065208196+1065158341
3861+1063843535+1062448027+1061862431+1062404891+1064343499+1067016566
3853+1067256756+1062052382+1056889608+1056789832+1059629297+1062763608
3844+1064881671+1065516162+1064978566+1064237324+1063836047+1063278804
3836+1062295324+1061705057+1061905951+1062388571+1062847383+1063465362
3827+1064066253+1063949134+1063203988+1063071190+1063875151+1063961230
3819+1062430683+1061324644+1061255524+1060537834+1059225397+1059191797
3810+1060745960+1062831703+1064290892+1064138893+1062905495+1062735256
3802+1063836303+1063782672+1061393251+1059009270+1058035902+1057787264
3794+1058018302+1058913655+1059990894+1060627689+1060902887+1061169637
3785+1061152549+1060418731+1059584562+1059610674+1060149165+1060068910
3777+1059424755+1059331060+1060043182+1060868135+1060960551+1059750768
3768+1057774144+1056646538+1056953991+1057832064+1058770616+1060001390
3760+1061278628+1061736032+1061433571+1061739232+1063188757+1064653833
3751+1064018638+1060058926+1056063374+1055982223+1058490235+1059914671
3743+1058175869+1055874384+1055851728+1057576578+1059441779+1059993582
3734+1058540986+1056236749+1055040535+1055383828+1056601418+1058021502
3726+1059065334+1059337396+1058976247+1058474043+1058229373+1058472059
3717+1059166901+1060128045+1061399523+1063006486+1064048462+1062812376
3709+1059573618+1057001543+1056457611+1057452483+1058696569+1058793912
3700+1057567810+1056570186+1056852616+1057944383+1059158325+1060167085
3692+1060609577+1059916079+1057776640+1055070102+1053416356+1053243685
3683+1054021919+1055137366+1056155278+1057137286+1058352572+1059026422
3675+1057396484+1054616026+1054360092+1056238541+1057004871+1055200789
3666+1053177190+1052775081+1053528291+1054424732+1054879512+1055024343
3658+1055205397+1055283669+1055141654+1055559698+1057147142+1059188213
3649+1059909551+1057704321+1054054047+1051802865+1051243381+1051516659
3641+1051982127+1052484779+1053194278+1054086622+1054810456+1055269781
3632+1055995215+1057303108+1057985023+1055762257+1051641202+1050012671
3624+1051418100+1053778209+1055410068+1055250325+1053245861+1051118006
3615+1050344061+1050210622+1049650370+1049049351+1049347717+1050280701
3607+1050836665+1050897272+1051180726+1051839089+1052271085+1052043567
3598+1051603314+1051600691+1051754289+1051290869+1050413052+1050308605
3590+1051359860+1052449580+1052081711+1050390972+1049093575+1048643722
3581+1048439052+1048388045+1048688074+1049151430+1049538307+1050004031
3573+1050722362+1051582195+1052358380+1052607594+1051471028+1048652810
3564+1045854497+1044853865+1045467748+1046674906+1047685586+1048298829
3556+1048728266+1049021959+1048929864+1048429900+1047961680+1047791889
3547+1047632339+1047177750+1046608475+1046263710+1046053023+1045704802
3539+1045245350+1044908777+1044832809+1044982504+1045248678+1045505828
3530+1045667939+1045815649+1046136863+1046489244+1046227742+1044937449
3522+1043197431+1042069888+1041954945+1042483836+1043172279+1043645683
3513+1043618611+1043119031+1042587452+1042580732+1043383477+1044758826
3505+1046010336+1046447836+1045984544+1045238246+1044801194+1044618667
3496+1044176367+1043055800+1041522820+1040548364+1040899081+1042279422
3488+1043603315+1044075184+1043815666+1043373941+1043010296+1042702203
3479+1042472893+1042347838+1042209791+1041951233+1041570436+1041053704
3471+1040448397+1040014160+1039979537+1040239119+1040517324+1040655691
3462+1040578700+1040245071+1039748307+1039289494+1039034456+1039027992
3454+1039081944+1038838490+1038198943+1037486117+1036979689+1036630316
3445+1036387118+1036370670+1036585964+1036878634+1037143144+1037309670
3437+1037331558+1037315750+1037330086+1037091112+1036294895+1035166328
3428+1034233023+1033744835+1033681284+1033992257+1034490237+1034820923
3420+1034782139+1034462461+1033997697+1033478661+1033084937+1032997641
3411+1033158024+1033361094+1033527493+1033667908+1033692228+1033487045
3403+1033056969+1032425230+1031595861+1030690780+1029870499+1029121897
3394+1028404015+1027885107+1027677428+1027460278+1026741628+1025351175
3386+1023283672+1020142450+1015174490+1007986708+999006173+989220268+979817080
3376+972107767+967369565+966444901+969362317+975221278+982432611+989336107
3366+994917566+999107868+1002369090+1005034476+1007172379+1008939596+1010671102
3356+1012489328+1014143778+1015421912+1016454543+1017421000+1018242945
3347+1018813436+1019298936+1019934451+1020640941+1021135721+1021380648
3339+1021606118+1021910563+1022135713+1022151585+1022041954+1022038498
3330+1022369887+1022998362+1023500246+1023466455+1022994074+1022501406
3322+1022164769+1021849892+1021523110+1021456615+1021916067+1022725341
3313+1023334296+1023441303+1023340440+1023456599+1023772628+1024004370
3305+1024085586+1024121553+1024051538+1023730132+1023224665+1022775132
3296+1022582814+1022763484+1023286552+1023893971+1024289616+1024389775
3288+1024226960+1023840596+1023449751+1023416471+1023804692+1024243536
3279+1024370703+1024167761+1023814420+1023475031+1023289944+1023317080
3271+1023383639+1023228313+1022889563+1022743068+1023045146+1023628053
3263+1024129809+1024379279+1024483598+1024600653+1024679437+1024531598
3254+1024145361+1023684181+1023180121+1022605662+1022222497+1022391519
3246+1023015002+1023597910+1023893523+1024107345+1024418191+1024674573
3237+1024672333+1024399247+1023954899+1023556886+1023632469+1024434767
3229+1025547846+1026278464+1026511358+1026619133+1026661245+1026358143
3220+1025790468+1025470918+1025635589+1025945794+1025981890+1025707332
3212+1025362055+1025123145+1024985418+1024859723+1024714188+1024642573
3203+1024768844+1025067594+1025340935+1025422087+1025312904+1025105417
3195+1024880203+1024704781+1024616653+1024572366+1024479950+1024282768
3186+1024021458+1023843988+1023943251+1024390991+1024984650+1025312712
3178+1025073034+1024386511+1023702805+1023335192+1023231512+1023179929
3169+1023012826+1022640797+1022125217+1021692133+1021547302+1021775588
3161+1022388255+1023224281+1023890451+1024086418+1023871379+1023462999
3152+1023000602+1022596830+1022406815+1022578718+1023150105+1023858643
3144+1024140625+1023620181+1022568286+1021664549+1021351400+1021550310
3135+1021905251+1022138849+1022135137+1021880867+1021562278+1021565286
3127+1022039010+1022550814+1022481375+1021684709+1020549870+1019584502
3118+1019119226+1019255545+1019875252+1020658413+1021195561+1021241065
3110+1020911915+1020565742+1020504559+1020839596+1021478503+1022109986
3101+1022360800+1022123745+1021682725+1021445863+1021580966+1021924899
3093+1022227105+1022401439+1022448159+1022287520+1021904483+1021529766
3084+1021382311+1021332200+1021094762+1020675757+1020339504+1020189105
3076+1020025842+1019622326+1018960059+1018154562+1017252489+1016234193
3067+1015237977+1014584415+1014416672+1014495647+1014526047+1014462560
3059+1014283105+1013731814+1012532463+1010735934+1008731726+1007017948
3050+1005978340+1005718822+1005993380+1006360097+1006541984+1006643871
3042+1006939485+1007483992+1008039316+1008344721+1008339601+1008153299
3033+1007898901+1007465112+1006639199+1005533672+1004638703+1004267442
3025+1004215027+1004126579+1003964405+1003988980+1004455537+1005399913
3016+1006582751+1007640919+1008400273+1008999308+1009649287+1010346817
3008+1010895741+1011150906+1011167802+1011169850+1011430584+1012081395
2999+1012918508+1013518823+1013685734+1013693286+1013957220+1014562079
2991+1015222489+1015601686+1015537239+1014978075+1013672358+1010851581
2982+1005375145+996557617+985094990+973209838+963705467+958447654+957252463
2972+958064553+958332455+956344759+951545310+944324760+936165978+929634703
2962+927224867+929726415+935857117+943466463+950859171+957168368+962162568
2952+966090088+969431053+972487476+975188254+977265869+978578371+979331068
2942+979913720+980377460+980269365+979198205+977287117+974881248+972216374
2933+969551628+967188639+965208687+963482365+961955209+960678740+959623196
2923+958663844+957703212+956666100+955405758+953795851+951986586+950410343
2913+949429359+949103281+949299312+949788396+950254504+950468390+950456166
2903+950417959+950620069+951303264+952434710+953647565+954671812+955637756
2893+956762163+957980841+959069217+959939610+960693332+961446221+962180743
2883+962819650+963402110+963997625+964415093+964253815+963349374+962012041
2873+960754387+959899482+959459038+959235807+958994337+958630628+958244903
2863+958039657+958153704+958577253+959149408+959621148+959848410+959966425
2853+960261335+960854738+961667916+962681219+964034296+965784554+967685723
2843+969318542+970449284+971222846+971971896+972834161+973616683+974074023
2833+974246374+974422116+974833249+975548699+976561107+977749513+978830080
2824+979564347+979995447+980370996+980906608+981625834+982350820+982910175
2814+983349788+983771928+984062742+984039766+983767384+983490267+983399963
2804+983579098+983990551+984469331+984841296+985012494+984933391+984653521
2794+984390611+984336852+984423571+984438035+984309396+984162389+984136725
2784+984245525+984389587+984450643+984357652+984145365+983980055+984033430
2774+984314644+984722129+985207885+985739464+986181637+986417795+986541954
2764+986737024+986981694+987051966+986828352+986443267+986118469+985990150
2754+986110917+986468291+986925567+987203005+987064958+986589570+986150149
2744+986009862+986043782+985965191+985671625+985279308+984989007+984918607
2734+984907599+984599506+983856792+982910623+982068774+981516523+981355372
2724+981539243+981860200+982198053+982627746+983134046+983462235+983420635
2715+983150493+982945183+982914655+982973343+983074206+983276700+983592474
2705+983913751+984124054+984190741+984155157+984084246+984018902+983982807
2695+984062934+984388307+984923855+985404683+985602378+985550858+985393227
2685+985172429+984927055+984810512+984904463+985047054+985022478+984826320
2675+984621394+984512658+984471699+984457939+984543442+984836496+985251020
2665+985485515+985345612+984982287+984686801+984562002+984528466+984515282
2655+984496083+984451667+984437843+984566994+984797968+984913359+984820752
2645+984664593+984547986+984418899+984323540+984465043+984872463+985272204
2635+985423307+985392267+985374219+985383307+985267596+984995598+984780304
2625+984860432+985256588+985794312+986275268+986562498+986594306+986433667
2615+986297860+986449347+986997310+987796024+988534258+988920111+988828463
2605+988373875+987857143+987554234+987473914+987343995+986885055+986109893
2596+985298316+984626321+983938455+983009631+981937895+981109038+980826672
2586+981060334+981488043+981778985+981898408+982068710+982392100+982720161
2576+982958687+983261789+983810648+984549522+985191693+985398667+985041294
2566+984402963+984008342+984100438+984399699+984499731+984331732+984101078
2556+983963287+983979735+984264532+984921423+985786952+986383235+986306308
2546+985658441+984942927+984525458+984376148+984309588+984284372+984399571
2536+984613010+984540882+983865560+983000479+982818592+983500251+984244949
2526+984364756+984093526+984070102+984471123+984897103+984965199+984859600
2516+985154189+986048582+987035390+987473530+987239420+986674945+986138309
2506+985782152+985588170+985435339+985182349+984766352+984257172+983875352
2496+983940951+984564114+985323084+985613257+985400843+985153805+985011854
2487+984689809+984206037+983961303+984075414+984286164+984410643+984420499
2477+984310356+984248533+984504594+984988047+985260556+985143373+984942991
2467+985016206+985416139+985929415+986210437+985951559+985171213+984311188
2457+983835608+983736153+983641881+983423835+983399835+983828824+984516050
2447+985113102+985511690+985712457+985593354+985088334+984455827+984115094
2437+984177173+984326420+984261780+984057686+983910231+983775640+983548698
2427+983348828+983300316+983237597+982921631+982400932+981962215+981823208
2417+982012903+982453667+982997855+983414683+983538586+983448219+983313756
2407+983117918+982786208+982495139+982515491+982825568+983143325+983216221
2397+982950047+982437475+981941031+981674089+981601194+981580522+981604842
2387+981765417+982091686+982514531+982909407+983158557+983267420+983388892
2377+983620698+983786456+983550554+982786784+981783721+981060910+980954927
2368+981352108+981911591+982484131+983050846+983347996+982994079+982005863
2358+980924847+980436275+980809008+981574634+982032167+982093158+982173029
2348+982460771+982746145+982763937+982525795+982267877+982062502+981734633
2338+981214829+980724337+980496243+980483059+980425204+980080054+979406588
2328+978615298+977920584+977293901+976638546+976012439+975480412+975061791
2318+974976928+975463260+976313301+977061967+977473931+977532043+977300941
2308+977060047+977182862+977690058+978225605+978563907+978897728+979507387
2298+980279861+980776113+980775025+980452851+980005495+979470843+978957695
2288+978627074+978436548+978283589+978367236+979057599+980375796+981802792
2278+982648546+982556386+981662634+980389236+979261885+978813761+979239677
2268+979997367+980164854+979498939+978871616+979332092+980886960+982483555
2259+983143325+982869856+982412387+982422307+982969375+983615898+983764248
2249+983167325+982271781+981821352+982037670+982480483+982706529+982735841
2239+982822112+983076894+983400411+983510171+983038686+982073830+981610922
2229+982617890+984445651+985167245+983858072+981614890+980073206+979894200
2219+980706289+981525227+981310444+979975223+978665730+978416260+978816257
2209+978625026+977458764+976231958+976104663+977456460+979654010+981464875
2199+982034086+981538603+980554418+979324092+978317189+978522563+980174390
2189+982056550+982812704+982235493+981054766+980143990+979994295+980472563
2179+981027503+981159214+980680945+979806521+978852544+977713034+976341269
2169+975646874+976781969+979508859+982189221+983320732+982647714+981367660
2159+981689769+984969551+989653353+992613649+992269076+989290732+985760264
2150+984040918+984958735+986830400+987181757+985463627+983353820+982600162
2140+983241693+983961815+983827480+983171229+982592930+981997543+981202093
2130+980499955+980025015+979524475+979089086+979161470+979657466+979959607
2120+979819704+979499259+979081470+978395652+977689354+977699530+978730177
2110+980069302+980673842+980197813+979134078+978243781+977997575+978292741
2100+978645570+978794753+978945152+979341180+979938551+980592818+981242669
2090+981739625+981728553+980978223+979831160+979032383+979013055+979575354
2080+980276021+980726769+980571250+979661690+978351236+977304717+976985615
2070+977418124+978375812+979612858+980820848+981581162+981785193+981910823
2060+982287332+982447011+981886760+980957103+980250997+979733305+979203197
2050+978984895+979566010+980943727+982514659+983292700+982536738+980664690
2040+979069503+978538755+978519875+978327365+978115270+978131782+977876936
2031+976780945+975341469+974837729+976007575+978356932+980641714+981770281
2021+981622122+981159790+981295724+981827880+982035238+981672937+980679473
2011+979114494+978084231+979332476+982908831+986426627+987671609+986893631
2001+985868295+985737096+986214853+986364675+985780552+984952207+984448531
1991+983920343+982502115+980260789+978267589+977344205+977579595+978768129
1981+980537843+982314724+983695129+984443219+984129622+982640418+980757873
1971+979438460+979064063+979677178+981075438+982514275+983175453+983049182
1961+982810144+982953887+983286620+983262621+982684321+981858280+981165870
1951+980718129+980396660+980129718+980066870+980297973+980450099+980034935
1941+979303549+979126078+979880248+981233133+982690529+983820760+984275668
1931+983891799+982853152+981753129+981232749+981294380+981280685+980793265
1922+980247029+980100342+980149302+980118966+980272309+980879280+981585578
1912+981796968+981360876+980669042+980124726+979780729+979481787+978950271
1902+977850952+976165718+974353829+972899633+971979832+971651067+971954552
1892+972745970+973726570+974596707+975163422+975504155+975891608+976461268
1882+977082127+977561291+977778249+977547787+976589139+974840481+972770610
1872+971229630+970931840+971976824+973621227+974946016+975818841+976414932
1862+976675026+976691730+976901456+977591755+978586370+979533627+980172278
1852+980397748+980327028+980191669+980091894+979990903+979896568+979899320
1842+980053943+980296373+980507955+980571314+980452595+980347252+980587250
1832+981237677+981865896+981861736+981234477+980640498+980436787+980535411
1822+980760305+980962799+981085486+981170285+981233645+981279149+981416619
1813+981693993+981873768+981706025+981386860+981319596+981578090+981897640
1803+982012903+981942951+981998183+982374244+982900703+983345820+983556122
1793+983291804+982555170+982114918+982571106+983574682+984450131+984795984
1783+984676241+984385747+984163541+984167573+984486483+985140877+986019590
1773+986634945+986231108+984823376+983253725+982039526+981337004+981133806
1763+981227885+981510123+982147046+983101086+983909143+984278868+984485395
1753+984882767+985378251+985547018+985087182+984226645+983427419+982956767
1743+982878752+983140574+983681753+984560402+985882951+987536442+988969390
1733+989368427+989055406+989244460+990029286+990924254+991671768+992214356
1723+992610129+993099149+993893830+994957886+996099444+996986733+997293355
1713+997150508+996912942+996832879+997075181+997711975+998642208+999627672
1703+1000539344+1001374666+1001970949+1002081668+1001896133+1001773318
1695+1001783110+1001980613+1002350146+1002730687+1003014972+1003297594
1686+1003715255+1004062772+1003761270+1002960573+1002644287+1003035900
1678+1003965749+1005295786+1006804958+1008285394+1009856773+1011676534
1669+1013337897+1014078947+1014034467+1013971492+1014214690+1014730973
1661+1015518871+1016831500+1018853116+1021407975+1024256336+1027441782
1652+1030621853+1032561101+1033641284+1034805627+1036344238+1038033952
1644+1039452565+1040659147+1041921409+1043389365+1045302374+1048382989
1635+1053401380+1059087734+1063435603+1066736120+1069675296+1072177292
1627+1073710591+1073733119+1071751951+1066047485+1056749449+1045300006
1619+1029028074+998815134+949681709+895956832+850440529+811284367+776721447
1609+749869825+733718660+727393655+727894771+732625036+739824594+748251726
1599+757174341+766334075+775659952+785058851+794419928+803817419+813597116
1589+824000808+834797904+845513977+855791270+865357336+873910675+881247384
1579+887272807+891087816+889906833+882983690+875920899+873491862+877750516
1569+889104984+903064103+914619081+923525889+930546056+935404513+936720598
1559+930181451+916351035+910499690+914647433+922768903+931454209+939188610
1549+945622414+950819300+955114049+958999649+962599108+965370414+965977449
1539+963612732+961047633+960005977+959137952+956659892+951851867+945569806
1529+937904204+927867870+916501946+908323260+907045126+912733976+922871238
1519+932820789+940479159+947372415+954581893+961905034+969340109+976995855
1509+984667281+992930766+1003159547+1012351729+1017040267+1019240377+1020358256
1500+1020097458+1017266825+1010404608+1000121044+989397099+979124094+966974305
1490+949583278+925885870+898211854+868143106+835538058+800988642+768699752
1480+746588187+740110096+747954640+765019462+786902612+811429262+835121934
1470+853521400+866984715+878327279+888958105+897761874+902433260+902410860
1460+897625619+884234623+854432945+814588852+784888741+766812599+754901784
1450+747816593+745635171+747327701+751118967+755733841+760519786+765123973
1440+769560481+774270715+779958093+787017556+794773909+802497622+810285335
1430+818163671+825601307+832175141+838112373+843764231+849068188+853617016
1420+856929949+858482320+858410257+858109075+858614159+860065859+862451376
1410+865656534+869268153+872893339+876648701+880980506+885922610+891077384
1400+896338077+901810417+907253189+912209117+916535289+920402906+923997117
1391+927142948+928783702+926471849+917676656+903619554+889486549+880490526
1381+879471142+885583924+895008808+904371740+912683481+920115932+926479401
1371+931154179+932901301+929510992+919486690+904388508+889540884+883300167
1361+890496269+905842896+921195028+933142003+941804525+948168569+953178000
1351+957675436+962326214+967430429+972754610+977584203+981023791+982116518
1341+979511739+971370813+956557173+935951068+911687393+886216431+862568559
1331+843951878+832208101+826770385+825536539+826913936+830752241+837368443
1321+846261299+855816102+863578919+866593998+862057203+849066844+831466603
1311+817848922+815333806+823661674+836971327+849921046+861209722+872319200
1301+884538941+897566099+910101934+921102292+930374089+938250185+945041874
1291+950681701+953993034+951985562+941783341+925476721+911639777+908979319
1281+918659304+934428776+949481646+961180048+969894473+976303765+980574770
1272+982553442+981802344+977304141+966821026+946944643+915325827+874194769
1262+831547435+797539902+778239899+772782407+776921253+787538639+802703060
1252+819652683+835047950+847169260+856949213+866588622+877331383+888651356
1242+899257606+908280828+915129285+918166060+913793424+898163662+871817508
1232+842804815+822935216+819258382+829625594+846447666+863133930+876831419
1222+887446373+896035744+903863392+911851679+920340315+929168019+937914444
1212+946180233+953825547+961042449+968249046+975883288+984151061+992881359
1202+1001672903+1010230210+1018438911+1025919427+1031405398+1032481166
1194+1025679813+1006834205+972381621+922315211+863246698+807839467+768792487
1184+751434804+751607859+760181549+769267427+775374514+778972309+782419321
1174+787905868+796176905+806483766+817544540+828459460+838811056+848277091
1164+856488544+863250857+868675966+873016282+876442751+879016106+880800667
1154+881977362+882920266+884200064+886396974+889782162+894151535+898909768
1144+903218149+906191309+907353028+907214981+907266245+908998199+912778840
1134+917714224+922418506+925625904+926166059+922723911+914115469+900490044
1124+884284287+868736957+855007212+842310035+831516971+826499859+830438515
1114+842187156+857427609+872265952+884880186+894918825+902693034+908862392
1104+914166733+919094309+923714623+927828766+931324930+934380713+937269073
1095+940052283+942585190+944752597+946593542+948264120+949941739+951690460
1085+953414543+955020097+956561269+958165288+959885210+961667148+963410301
1075+965009009+966301286+967082016+967260958+966751970+965115824+961979401
1065+958220584+955958266+956668148+959786075+963556604+966684067+968829010
1055+970144903+970908801+971403453+971766394+971908857+971662523+970994240
1045+970071623+969158223+968465108+968102935+968134167+968599507+969519564
1035+970920961+972769010+974852449+976896144+978786113+980533299+982096102
1025+983383004+984387091+985264524+986226245+987328636+988511730+989825767
1015+991276572+992426578+992067157+987858487+977375820+961875594+948470327
1005+945120658+952809491+965126128+975463004+982090150+986607937+990512674
995+994174148+997498217+1000461457+1003154171+1005597543+1007580375+1008630543
986+1007935189+1004075572+995360634+981647402+966282086+955110273+952352727
976+957451630+966084712+973212846+974206822+964979057+945037010+920735831
966+901001271+888347934+878661165+871013675+871582694+885093816+907534466
956+930299274+947952891+959870682+967064928+969632651+967174623+961251407
946+956280823+956433206+961822538+968927057+974431652+977654794+979805433
936+982315300+985974983+990691104+995654712+999944597+1002987773+1004542768
926+1004644847+1003670583+1002257795+1001160971+1001086156+1002294018
918+1004375921+1006702239+1008949324+1011017404+1012782829+1014185250
909+1015349848+1016471951+1017673542+1018993019+1020436399+1021996643
901+1023635413+1025260104+1026684669+1027558005+1027398583+1025919555
892+1023442263+1020838380+1018827068+1017255241+1015040539+1010738110
884+1003641719+995182524+988968494+988136757+992526225+999354650+1006260706
874+1012545327+1018055106+1022495070+1025933315+1028888299+1031656468
865+1034132800+1036361646+1038700891+1041240070+1043424885+1044541804
857+1044552044+1044385069+1045267878+1047652435+1050969592+1054435612
848+1057667905+1060520490+1062907543+1064863431+1066364027+1067160948
840+1066808119+1063712848+1052705386+1024255376+969945096+892732730+811860938
830+754419676+739121816+765844351+818061080+874109265+917865007+941413488
820+940593270+911759392+854720111+777808158+699017501+640587767+617911982
810+629908685+661011601+694245124+722280672+747012568+772081421+797947643
800+822589939+844286403+862806893+878680428+892246654+903648162+913238420
790+921502929+928742935+935187490+941172594+946863236+952053978+956541749
780+960461973+964104824+967655451+971181246+974709346+978273605+981814184
770+985031438+987630969+989807911+992096597+994651968+997093740+999139804
760+1000976333+1002906749+1005006764+1007289242+1009864581+1012652846
752+1015195290+1017087370+1018454079+1019739637+1021123242+1022349920
743+1023120793+1023419031+1023313432+1022723997+1021753252+1020965739
735+1020879980+1021435879+1021961443+1020759981+1015264857+1005133803+995541881
725+994166852+1003464185+1018367552+1032264143+1042761018+1051215734+1059063350
715+1065135301+1064650057+1051656050+1025584581+995225404+973452716+967351262
705+974539555+988147509+1002971325+1017066954+1030313247+1041836930+1046025184
695+1032647372+997506025+953218512+922070669+916084605+928844630+946830212
685+962238855+973902440+982731105+989676329+995539449+1000890446+1006093347
675+1011171642+1015736021+1019392632+1022067618+1023900563+1025278408
667+1026874683+1028885675+1031007129+1033004489+1034599100+1035577588
658+1036203631+1037074344+1038512797+1040306318+1041983104+1043154295
650+1043567796+1043135287+1042080704+1040657995+1038517405+1034911034
641+1029949410+1025275400+1022969371+1023888403+1027459190+1032399374
633+1036453229+1036212335+1029039593+1014690718+994208132+970136711+949795564
623+943359328+954338311+975312733+995534905+1009715590+1018364224+1023471831
613+1026549950+1028931370+1031511701+1034236223+1036639276+1038742619
605+1040883785+1042999352+1044810154+1046390109+1047942480+1049408196
596+1050635002+1051532787+1052162478+1052977191+1054534043+1056807496
588+1059236981+1061346595+1063146453+1065126469+1067655024+1070396122
579+1072633288+1073733119+1072916550+1065641857+1042632571+993242700+919167460
569+845557305+807527853+818003416+858183763+901446644+934589543+956895346
559+971350973+981078702+988770800+995550009+1000918477+1004477297+1006991772
549+1009638855+1012938348+1016532111+1019457655+1020836780+1020886188
541+1020843372+1021622182+1023299416+1025909123+1029331111+1032008209
532+1031382678+1026600061+1019420407+1010723646+997121452+974391524+944897172
523+916727736+896415069+886996969+889680147+903122854+922218251+941218737
513+957935466+973638251+989953958+1006501280+1021126186+1031727508+1037056488
503+1036301871+1030145824+1021756964+1014147106+1008013268+1003213499
494+1000144276+999137756+1000040597+1002770814+1006988380+1011248378+1013760805
484+1013772005+1011092603+1005189419+996390770+986862847+979190910+974527075
474+972432756+971839801+972049847+973129071+974859169+976190486+976771089
464+977720329+979720569+981891048+983544602+985593162+989095789+993206604
455+996340851+998018789+998324706+997381546+995542585+993059341+989656489
445+985211917+980102198+973209326+961577036+945195153+929798862+922539273
435+924917110+932813558+943614942+957635692+973795625+988894127+1000525393
425+1007997140+1011772789+1013305001+1014012771+1014278945+1014687582
416+1016646158+1020001395+1023276056+1025555526+1027434166+1029794659
408+1032473422+1035624308+1041099016+1050538683+1062407003+1071856078
399+1073733119+1073741823+1066758200+1048761802+1016141586+976273493+943952667
389+930429257+936070619+953963914+977986887+1003726455+1024960138+1037173415
379+1041665347+1042860921+1045248358+1054418396+1073733119
##END=
