##TITLE=CHS- 268
##JCAMP-DX=5.0
##DATA TYPE=LINK
##BLOCKS=1


$$ === CHEMSPECTRA SPECTRUM ORIG ===
##TITLE=CHS- 268
##JCAMP-DX=5.00
##DATA TYPE=INFRARED SPECTRUM
##DATA CLASS=XYDATA
##ORIGIN=Fabienne
##OWNER=
##XUNITS=1/CM
##YUNITS=TRANSMITTANCE
##XFACTOR=1
##YFACTOR=8.4131696e-010
##FIRSTX=3997.453
##LASTX=373.96442
##MAXX=3997.453
##MAXY=0.9033572063512182
##MINX=373.96442
##MINY=0.6837580189094442
##NPOINTS=2559
##XYDATA= (X++(Y..Y))
2559A037408944A037573946A037665268A037568775A037257049A036813051A036416309
2552A036237775A036289139A036438980A036664840A037149148A037926055A038578271
2545A038558930A037803915A036896296A036559491A036965585A037662647A038188047
2538A038469663A038525844A038247700A037718261A037276390A037006392A036622048
2531A036046630A035658672A035846842A036594631A037521236A038193077A038445929
2524A038424675A038288437A038057405A037802427A037724779A037975081A038507566
2517A039081851A039365238A039197473A038752342A038319680A038025241A037883618
2510A037975931A038403634A039123083A039810439A040038424A039735554A039295525
2503A039172960A039353406A039401724A039143629A038835587A038666192A038516139
2496A038295380A038273276A038850111A039991524A041057485A041540094A041554618
2489A041354121A040976649A040459538A040000238A039802292A039765168A039524643
2482A039045435A038731655A038855424A039009233A038668034A038189747A038312100
2475A038892831A039196905A039023685A038576004A038089853A038063781A039080150
2468A040745405A042000952A042583314A042727487A042414486A041705946A040941084
2461A040176718A039130806A037746671A036800653A037526337A039186986A040082845
2454A040156314A039848555A039295949A038603918A038184363A038401154A039067185
2447A039758579A040323512A040772894A041093476A041348099A041575801A041607186
2440A041296593A040784017A040287097A039862370A039656135A040065771A040908424
2433A041118697A040557094A040186353A040472078A040836656A040840269A040628861
2426A040493757A040676188A040998257A040726772A039644020A038759710A039206683
2419A040357873A041023904A041216820A041390324A041524720A041347603A040821069
2412A040176647A039725069A039667400A039978559A040424752A040802012A041112604
2405A041409382A041603714A041612358A041490430A041356742A041431202A041956815
2398A042729046A043074495A042748387A042136908A041566237A041092342A040795635
2391A040796131A041020858A041249835A041311259A041117351A040859043A041065704
2384A041737757A042077751A041897658A041748100A042088449A042515655A042309207
2377A041247637A039513379A037984858A038350074A041127907A043983035A044652325
2370A043342863A041543778A040524505A040658901A041351571A041867052A042118771
2363A042364397A042600742A042565389A042136624A041559152A041361418A041934853
2356A042907650A043525364A043526852A043088097A042586927A042416965A042618383
2349A042840204A042918490A042933368A042806481A042374174A041723091A041305449
2342A041824473A043413143A044741308A044659551A043594652A042612572A042339388
2335A042560855A042704603A042765461A043440135A044764334A045658137A045886547
2328A046049141A046239931A045875779A044906877A044002872A043758592A044029227
2321A044079953A043555970A042894969A042564114A042320684A041853024A041522949
2314A042053734A043579916A044867203A044995507A044450624A044003013A044079032
2307A044510914A044675633A044212791A043409459A042748032A042347394A042078813
2300A042105098A042792949A043634468A043617465A042931455A042285544A042038076
2293A042226033A042737122A043286681A043641765A043940739A044379423A044786154
2286A044861677A044630362A044192883A043455651A042580551A042155045A042598687
2279A043606484A044294619A044123098A043428587A042904675A042769074A042568011
2272A041937827A041218237A041237153A042290290A043438506A043796495A043471520
2265A042971909A042588486A042343072A042270242A042452034A042777151A042947679
2258A042792170A042465920A042390185A042832836A043276621A042939532A041836234
2251A040690640A040321883A040902260A041690502A041858976A041474773A041338393
2244A041824757A042392169A042481507A042243107A042200457A042489371A042705808
2237A042518701A042044027A041627518A041517636A041723516A042015193A042064289
2230A041725642A041209523A040930315A041145690A041714306A042216540A042340733
2223A042114591A041695461A041097726A040351355A039722164A039471083A039496800
2216A039506505A039491699A039720039A040213558A040624611A040741934A040729039
2209A040742925A040638922A040259963A039701619A039129175A038590882A038149152
2202A038003703A038309407A038927475A039444303A039479089A038983090A038255493
2195A037700196A037511247A037570758A037646281A037607740A037494669A037467605
2188A037633812A037928960A038234876A038444087A038352907A037809654A037034731
2181A036465619A036290910A036416309A036700972A036968702A037049395A036948511
2174A036736395A036362749A035826651A035334620A035103517A035154952A035371106
2167A035603696A035760197A035848047A035856265A035698914A035365862A034962390
2160A034561822A034216444A034056755A034159200A034414107A034673477A034880208
2153A034936815A034681979A034189239A033862989A033959837A034212406A034199228
2146A033924908A033758490A033943400A034421971A034987045A035412764A035543760
2139A035341916A034877303A034402559A034298697A034634865A034939082A034789453
2132A034374999A034116975A034065399A034016869A033914849A033845419A033838618
2125A033858384A033890903A033952044A034005250A033935748A033693949A033428131
2118A033359268A033546446A033866461A034165080A034332420A034309394A034110882
2111A033819914A033524696A033271914A033084808A032979813A032898693A032684169
2104A032274957A031918598A031963586A032406803A032840244A032895080A032556786
2097A032006235A031386325A030848385A030599501A030669781A030734676A030405097
2090A029682672A028900310A028232791A027518513A026604518A025632075A024849217
2083A024304405A023860549A023378578A022740744A021853671A020840703A020120616
2076A020047785A020487319A020947398A021155546A021316865A021722746A022297810
2069A022734864A022947901A023122538A023346556A023480952A023476843A023566393
2062A023986444A024649783A025236324A025553860A025688469A025833988A026081031
2055A026398141A026754855A027181424A027636615A027928150A027932116A027789644
2048A027674518A027536578A027315325A027173206A027304343A027724323A028357835
2041A029085858A029681396A029980795A030140130A030465317A030965495A031303364
2034A031247749A030958340A030723624A030617283A030557630A030548562A030734676
2027A031231667A031881261A032280908A032264897A032204606A032510594A033035711
2020A033362244A033437341A033521012A033725617A033928592A033987680A033841593
2013A033515555A033141627A032876589A032797949A032984843A033584845A034549212
2006A035411984A035697568A035499055A035315137A035414606A035672842A035912446
1999A036119673A036361970A036644365A036856410A036864699A036666115A036412625
1992A036280000A036307488A036374864A036374935A036350067A036371109A036429062
1985A036554106A036834305A037230694A037581669A037784432A037828216A037743766
1978A037624814A037574938A037631545A037824744A038214614A038774304A039305514
1971A039529603A039283551A038706079A038191731A038036860A038132220A038103243
1964A037771113A037351558A037121730A037064203A037024813A037043729A037255702
1957A037640897A038094954A038539943A038832540A038834453A038651031A038547099
1950A038620000A038778484A038981602A039254504A039525918A039654789A039580470
1943A039285393A038725137A037987905A037394846A037248759A037574726A038145114
1936A038621063A038738314A038509054A038141358A037745111A037337247A037043587
1929A036931578A036763741A036299199A035755450A035657256A036239830A037165514
1922A037845998A038021486A037932077A037871220A037804836A037604340A037383298
1915A037271005A037043800A036384924A035471496A034932139A035135469A035760834
1908A036185561A036120807A035761897A035411772A035144183A034873974A034540285
1901A034039044A033178821A031931846A030563439A029340411A028303071A027415856
1894A026729209A026354429A026420742A026974692A027797792A028511715A029018553
1887A029606157A030496631A031520934A032391855A033079636A033711873A034233802
1880A034438478A034305498A034040886A033766212A033381727A032767980A031960610
1873A031136236A030523836A030272826A030351962A030640308A031095924A031767411
1866A032695717A033868018A035194981A036494241A037583794A038442529A039195135
1859A039883837A040343704A040409662A040171758A039892763A039750928A039777496
1852A039922307A040061875A040076398A039988902A039900131A039806259A039653868
1845A039494817A039361412A039039130A038190668A036734766A034951126A033147790
1838A031317179A029159114A026341110A022700787A018301482A013339086A007971800
1831A002347695I96857845I92118829I88497776I85810556I83677429I82033994
1824I81126376I81131547I81941964I83214799I84529716I85640098I86627845I87630186
1816I88430118I88559980I87735748I85920794I83102436I79312555I74720759I69460452
1808I63488347I56798989I49684408I42672838I36195171I30340813I25008809I20323779
1800I16745872I14648522I13930986I14239665I15474171I17819627I21291122I25497582
1792I29889235I34060768I37843210I41274747I44436783I47272640I49706442I51862027
1784I53949742I56080248I58375048I60985895I63826216I66576632I69058113I71345757
1776I73540947I75674995I77795157I79935653I81998075I83742183I84944949I85548919
1768I85610272I85169109I84289616I83181430I82160314I81497401I81276288I81279051
1760I81039447I80090241I78140819I75101206I71124786I66569830I61744665I56754852
1752I51725080I47081212I43548364I41923917I42756863I46039976I51145553I57123609
1744I63125541I68655349I73573536I77971849I82018266I85814027I89343050I92555741
1736I95448701I98002871A000140249A001863599A003349965A004790352A006220821
1729A007591920A008885300A010091254A011169402A012101037A012926120A013677167
1722A014319180A014807032A015193148A015601296A016087942A016613060A017151071
1715A017744626A018430210A019173394A019876619A020434255A020809105A021089305
1708A021435179A021935287A022525795A023077479A023533095A023894060A024134868
1701A024258000A024386233A024653751A025035403A025378089A025566116A025610678
1694A025634271A025788788A026140967A026617908A027046390A027267361A027290741
1687A027320355A027511854A027763147A027889609A027928929A028087626A028421315
1680A028744943A028880827A028862265A028855110A029004809A029389437A029948276
1673A030420258A030576900A030522773A030492380A030411615A030026491A029414303
1666A028995528A029048592A029449019A029856388A030022736A029978670A029948276
1659A030055113A030199428A030269709A030316893A030432231A030545444A030460145
1652A030106123A029718733A029638180A029888057A030125676A030093583A029927943
1645A029902368A030054618A030214377A030291388A030373287A030565494A030828690
1638A031016291A031025573A030874315A030659083A030500952A030521498A030791211
1631A031269003A031810556A032264401A032548072A032652288A032622744A032554094
1624A032551968A032672621A032914066A033258878A033672624A034060864A034288354
1617A034287290A034139008A034037343A034144605A034459874A034829978A035103801
1610A035251445A035323426A035353819A035365438A035425941A035621195A035957929
1603A036329380A036585775A036649395A036571464A036488148A036519462A036703097
1596A036987689A037276886A037474407A037506713A037386061A037285387A037408093
1589A037702321A037885531A037813762A037599451A037341073A037025663A036712307
1582A036547092A036585279A036789389A037154037A037663922A038124214A038189180
1575A037738028A037167498A037068738A037584219A038328465A038920816A039329956
1568A039727123A040237292A040790251A041137826A041143989A041045300A041239208
1561A041866556A042745199A043547043A043928057A043716863A043123592A042592665
1554A042378212A042383951A042371057A042225608A042081506A042201591A042645446
1547A043164045A043537621A043792527A043957388A043928553A043719343A043516367
1540A043360008A043059050A042535067A042001307A041697020A041625039A041640626
1533A041649482A041610728A041507434A041437720A041567016A041876971A042158304
1526A042355045A042688946A043305668A043978642A044331814A044285409A044109709
1519A044069751A044206769A044442406A044629370A044542654A044158381A043863303
1512A044012224A044421010A044691857A044811801A044993169A045192603A045285766
1505A045461325A045919845A046401179A046487187A046201816A045933731A045924025
1498A046072095A046103764A045852824A045449422A045149740A044996357A044886403
1491A044857072A044983534A045133304A045106595A044892850A044672729A044707231
1484A045186439A046016197A046826118A047269194A047296329A047159948A047147621
1477A047296754A047475854A047695125A048081807A048593179A049016135A049169094
1470A048957404A048429949A047842274A047449074A047292432A047335294A047582621
1463A047893142A047966044A047709578A047394097A047280105A047282301A047177518
1456A047017971A047106601A047546489A048036891A048250494A048269693A048436254
1449A048823503A049124956A049141889A049125806A049481528A050294921A051250716
1442A051889471A051936371A051519225A051028257A050695631A050451209A050224216
1435A050136649A050262756A050406363A050335729A050110082A049945008A049820885
1428A049536435A049153791A049033706A049343235A049825277A050158612A050338421
1421A050605726A051096624A051615648A051747919A051251212A050389997A049807353
1414A049893432A050310295A050431797A050210684A050038030A049850995A049402818
1407A049301648A050323897A051816428A052371938A051879835A051568464A052261700
1400A053503787A054242365A053878000A052653483A051214725A050046957A049358679
1393A049139055A049129349A048957262A048514257A048101149A048255382A049232856
1386A050541468A051295631A051040584A050087481A049185955A048849362A048927577
1379A048998282A048959175A048938629A048933953A048968667A049263462A049801898
1372A050180787A050137712A049865022A049745220A050003952A050592194A051265381
1365A051801974A052153588A052330563A052288409A052028472A051685857A051443915
1358A051411255A051543100A051622520A051436263A051050786A050782631A050805585
1351A050941257A050957835A050929354A051092160A051439026A051713841A051824504
1344A051989294A052389862A052971231A053672827A054503861A055244706A055440952
1337A054917819A054072333A053466238A053255964A053195815A053189652A053574563
1330A054513779A055334115A055160540A054174494A053481682A053728655A054558553
1323A055422390A056288847A057375779A058522435A059060233A058359983A056553034
1316A054678427A054008074A055011762A056838122A057985699A057711379A056617434
1309A055777474A055588667A055578820A054959973A053294859A050961377A048957262
1302A047977096A047830654A047968523A048263246A048940259A050004945A051064601
1295A051724113A052113913A052918167A054478072A055922569A055951827A054596528
1288A053403893A053731205A055548568A057808724A059325413A059480567A058476526
1281A056875317A055231670A054272617A054399078A054781580A054365213A053888556
1274A055225861A058661578A062249616A064057273A063986922A063103533A062054008
1267A060719608A059101820A057793846A057261786A057400575A058346310A060776639
1260A064432336A067361640A067795790A066115870A064361277A063876826A064143777
1253A064181113A063918342A063629712A063238354A062793224A062585430A062569490
1246A062500626A062479868A062794782A063438780A063948169A063579907A061953335
1239A059694596A058029837A057662992A058350844A059350918A059929382A059726831
1232A059023960A058519884A058615315A059072915A059555878A060185068A061114933
1225A061872640A061832895A061166085A060608378A060552622A060980891A061859533
1218A062950929A063607821A063329109A062379195A061536613A061310754A061547807
1211A061752696A061627864A061214402A060746246A060514860A060642951A060881068
1204A060838985A060406819A059862432A059730869A060430197A061738881A062868180
1197A063317915A063186636A062542851A061282698A059715708A058429413A057577338
1190A057009855A056961821A057880350A059595623A061258610A062236934A062653089
1183A062878097A062848839A062309764A061504024A060995344A060977844A061363676
1176A062372889A064296594A066639073A068312405A068996289A069588994A070802955
1169A072154075A072942812A073368744A073741823A073336367A071422794A069053817
1162A068289238A069463524A070538838A069817333A068015557A067033124A067820232
1155A069803943A071597289A072026267A070868063A068883076A067325296A067191040
1148A068151583A068389770A066583813A063709485A061775296A061338030A061320743
1141A060765091A059564025A058164092A057322288A057537026A058622471A060166790
1134A061897578A063340728A064054085A064464217A065400317A066750232A067390192
1127A066544422A064807187A063506085A063246217A063726489A064638642A065940736
1120A067463022A068630152A068539469A066698656A064059894A062566656A063102966
1113A064555255A065318063A065101414A064818877A065155399A065720332A065686538
1106A064995498A064405839A064506371A065008888A065226104A065203787A065739319
1099A067104962A068483004A068986017A068605923A067920338A067412083A067223702
1092A067328059A067669470A068039574A068108366A067802733A067365395A066963694
1085A066513816A066009812A065627735A065398616A065188839A064970701A064795497
1078A064606123A064260603A063629782A062718976A061846852A061515289A061927120
1071A062706507A063227869A063311893A063269598A063325354A063460884A063719121
1064A064228297A064878530A065310695A065306090A064981328A064629857A064574526
1057A065117142A066261318A067437234A068050272A068052539A067688457A067170000
1050A066690437A066469112A066601170A066969999A067399542A067751581A067907586
1043A067834543A067621577A067383603A067226677A067293486A067625828A068040849
1036A068302699A068238866A067830009A067276341A066743714A066160716A065483207
1029A064949518A064806903A064941371A065061456A064891211A064229006A063182456
1022A062158720A061510399A061195699A060822051A060132713A059328884A058846984
1015A058880282A059203485A059538733A059830126A060144473A060642526A061585144
1008A062970058A064227731A064837863A064980336A065160925A065525857A065737406
1001A065597838A065405700A065417036A065580480A065701345A065667763A065532304
994A065338680A065009241A064491493A063903110A063527055A063725072A064500703
987A065090928A064889723A064215687A063648274A063360636A063206757A063054011
980A062840975A062520180A062110756A061701899A061322443A060861231A060146953
973A059035012A057507625A055762880A054046969A052442784A050851635A049104198
966A047162286A045271880A043743856A042561564A041493760A040453091A039539449
959A038715785A037899063A037161618A036579328A036113439A035712375A035383929
952A035128172A034926400A034825443A034898770A034995334A034876028A034569120
945A034276450A034154028A034217223A034342197A034282332A033848749A033132062
938A032449453A032168687A032333123A032663906A032918743A032909107A032705494
931A032589517A032656397A032647399A032350551A032084167A032464827A033262987
924A033622181A033528238A033315627A033137943A032978396A032764934A032518740
917A032375702A032455688A032680343A032815094A032838827A032966564A033410845
910A034087290A034667738A035030120A035308265A035760409A036782516A038274055
903A038864988A038475118A038162613A038571824A039560633A040277533A040478808
896A040457484A040372751A040253161A040191312A040358936A040672929A040789755
889A040661664A040441968A040205693A039882774A039385642A038740652A037991305
882A037125840A036134268A034923425A033217219A030915336A028546288A026555138
875A024942310A023793458A023299159A023367668A023536284A023208263A021730256
868A018504387A013490486A007630177A002602956A000126789A001127075A005140903
861A010701316A016395277A021372338A025274581A028153797A030310444A031974000
854A033135109A033696641A033635570A032893025A031421395A029832938A029097760
847A029415721A030571587A032081333A033072834A033117680A032405882A031207650
840A029803394A028438885A027303139A026619609A026410540A026639942A027400199
833A028648450A030200279A031826143A033250447A034376558A035416164A036575006
826A037876958A039565451A041777856A043481722A044192104A044516936A045027175
819A045749459A046169793A045983395A045210952A043844600A041969213A039906083
812A038021132A036696863A036208090A036599519A037958786A040069526A042169214
805A043756466A044930540A045997635A047359170A049428464A051529498A052644485
798A053125676A053360959A053193618A052077144A049453402A045622076A041802440
791A038814120A036907915A036417230A037502391A039360633A040922310A041720895
784A041647285A040686886A038808947A035760338A031048740A024335719A015710400
777A005842286I96624050I89932425I85568472I82640160I81014792I80986595
770I82196234I83775197I85360962I87242725I90068522I93630771I96637228
763I98893274A000827251A002492577A003521982A003200408A000691792I95672577
756I88818429I81912350I77175744I76111199I79325237I85823237I92179191
749I96344063I99394232A002807207A006819335A010645773A013839335A016622908
742A019105806A021085549A022646872A024215776A025751239A026682804A026927084
735A026771221A026276781A025261121A023610318A021426748A018856425A016071507
728A013516274A011754030A011073121A011465400A012694451A014455419A016528469
721A018512251A019901345A020634822A020984026A021106450A020964968A020491216
714A019610377A018181396A016158932A013829133A011764373A010505283A010343469
707A011181020A012419352A013317619A013466398A012821266A011634511A010302449
700A009165215A008526460A008571165A009075878A009454979A009014948A007108532
693A003419537I98359585I93151847I89369759I88071278I89153322I91631261
686I94487168I97191957I99659341A001970507A004187729A006308458A008287211
679A010102023A011797317A013393992A014752551A015658186A016070940A016188829
672A016237359A016258401A016158294A015954326A015857266A016028857A016376644
665A016764034A017289789A018177075A019420578A020706873A021726147A022462387
658A023121971A023843900A024580353A025215140A025694349A026014506A026101364
651A025747626A024785313A023337912A021778644A020423274A019359508A018529963
644A017821849A017100982A016276467A015328394A014233244A012933629A011413044
637A009683246A007597517A004702857A000301568I93663928I84287491I72237861
630I58490032I44900405I33669268I26686958I25022129I28630075I36419259
623I46635656I57381066I67191866I75424693I82162298I87797455I92706149
616I97138398A001185453A004795878A007914344A010582577A012855202A014741145
609A016293682A017610300A018708780A019542931A020160290A020718350A021269893
602A021507159A020834469A018978211A016562617A014820493A014616454A015785640
595A017343420A018278315A018308637A018025675A018289367A019474422A021284913
588A023160795A024767389A026094279A027160524A027835553A028036333A027844055
581A027242847A025962504A023758529A020667624A016929320A012915634A009224089
574A006484088A004783055A003440437A001603307I99083498I96638149I95568361
567I96947324A000860620A006234849A011538867A015707566A018433115A019881648
560A020329401A019938114A018719761A016688512A014031896A011167560A008698406
553A007223091A007021178A007856674A009131776A010285446A011121934A011783714
546A012418006A012942344A013194913A013195479A013110888A013024384A012872843
539A012569831A012072344A011331145A010288492A008944457A007379804A005675725
532A003828961A001786021I99577301I97337903I95093900I92608310I89589314
525I86011903I82112918I78136143I74172475I70190387I66150701I62102512
518I58166616I54464302I51122741I48269951I45919182I43937453I42190513
511I40651578I39391992I38561597I38274454I38393405I38569106I38576262
504I38462482I38331769I38165421I37881679I37379305I36435625I34701932
497I31988781I28621219I25444517I23415534I23147734I24717133I27687316
490I31240993I34460840I36726522I37943175I38395815I38411118I38151535
483I37635487I36912070I36237608I35974128I36205231I36610262I36841294
476I36835839I36672820I36400201I36094285I35788085I35203527I33767887
469I31028382I27046010I22461299I18236135I15208567I13687981I13354080
462I13521137I13564212I13214581I12565625I11891447I11482802I11568810
455I12270690I13662476I15973642I19602558I24657976I30503194I35820674
448I38800421I37425993I31006844I22421908I17600427I21010143I31734369
441I44718612I55213720I61324331I63413746I62703648I60468501I57504411
434I53845455I49131378I43438834I37913915I34637532I35584117I41232168
427I49859046I58158752I62868012I62281755I56352158I45447696I29939891
420I11966970H96848396H90803249H96413326I10806144I28306588I44280495
413I56839159I66249674I73538750I79472810I84348986I88332066I91700691
406I94772681I97748956A000649213A003305970A005456879A006981715A008052566
399A008998725A010034294A011149139A012236709A013263988A014217728A014912027
392A015078517A014763107A014393287A014308483A014452231A014637850A014858325
385A015205687A015655140A016080292A016437501A016821704A017299141A017825816
378A018434886A019303185A020492066A021819523A023073865A024106387A024693212
371A024631859A024037950A023315808A022800256A022537556A022283641A021536561
364A019805773A017206048A014576780A012599091A010992214A008994970A006384194
357A003664384A001587721A000837737A001790485A004167963A007045691A009405174
350A010722004A011078292A010782507A009955866A008561175A006750188A004983127
343A003773063A003403455A003848302A004842071A006020820A007141192A008246474
336A009502375A010825228A011919669A012791511A013857826A015303952A016672996
329A017439062A017707431A017876188A017761983A016645579A014162114A010543115
322A006041933A000884070I95724579I91278444I87389378I83147282I78078616
315I72785011I68138591I63987038I59072888I52432415I44301607I35165412
308I24617310I11772991H96177264H77934062H57870734H38189908H22332757
301H13445092H12723446H19096403H30148084H43027330H55016670H64551449
294H72268299H80489933H91241153I04787351I19800717I34463249I47460172
287I58365413I67435366I75090792I81430663I86074956I88500894I88542622
280I86455687I82688619I77963631I73421145I70144195I68300690I66821478
273I64103723I59224926I52572550I45384854I38865955I33685776I29947542
266I27445090I26006970I25534139I25656279I25668889I25035235I23712028
259I21770542I18921153I14752030I09402810I03687808H98424526H93907119
252H90159959H87370082H85863453H85883503H87501290H90653762H95312791
245I01537819I09075285I17064044I24474553I30590761I34785744I36161235
238I33809687I27231771I16276724I01127616H82959370H64643196H50528096
231H44915824H49652289H62724309H79610510H96242018I10705683I22644155
224I32036816I38985332I44117476I48486034I52826465I56971147I60133679
217I61869497I62652638I63473753I64982011I66948861I68513868I69031120
210I68605048I68296155I69188330I70186420I69757867I67348437I63161673
203I58441360I55323745I55944009I60930918I68383935I75171203I79367107
196I80998780I80993821I80304127I79624848I79108658I78425057I77384529
189I76386368I76161288I77170359I79281170I81892797I84326315I86219626
182I87570391I88353957I88307128I87297631I85617782I83679908I81900590
175I80964845I81368530I82539770I83297477I83390853I83685718I84895002
168I86794689I88506986I89310106I89317829I89340783I89961472I90934270
161I91682058I92148372I92769911I93629850I94138389I93781392I92916139
154I92530024I93131868I94130595I94594288I94587841I95206405I96938823
147I98749668I99230647I97948390I95406406I92458327I89947019I88510033
140I88608439I90357222I92840971I94141223I92826235I89296008I85459581
133I83248663I83314905I84800493I86219484I86726039I86713357I87153812
126I88435856I90130229I91719749I92945187I93544692I93350997I92618653
119I91851595I91487584I91774088I92508345I93014262I92868389I92437215
112I92232892I92027578I91057189I88908405I85894509I82700521I80003524
105I78414430I78242343I79281382I81229104I83829749I86155863I86969610
98I86420335I86319661I88004045I90701467I92684966I93291839I93183586
91I93388617I94359431I95546116I95948738I95227092I94166799I93904524
84I94948948I97035316I99379779A000833132A000485415I98752360I97391251
77I97760433I99496677A001130617A001443335A000366534I99013147I98642618
70I99108082I99090016I98478608I98664297A000090302A001313473A001266572
63A000880599A001534940A002797997A002663318A000825055I99750734A000692429
56A001778299A001372276A001143653A002911919A004621595A003168456I99926930
49I99193169A001873730A004847597A005794110A005698042A006978386A010162101
42A013162961A013355806A009966706A004891451A000776242I98567025I98112613
35A000202028A004550040A005581357I98411516I90054211I87499332I89231608
28I90403131I87683392I81976396I76869118I74126141I72228509I69948374
21I68356942I67962467I67337810I66116978I65676594I65131144I63731494
14I64099755I68496580I75476340I81633214I84787173I84559542I81609834
7I77395935I73610235I71833963I73773466I80316242I87321790I85387317
##END=


$$ === CHEMSPECTRA PEAK TABLE EDIT ===
##TITLE=CHS- 268
##JCAMP-DX=5.00
##DATA TYPE=INFRAREDPEAKTABLE
##DATA CLASS=PEAKTABLE
##$CSTHRESHOLD=0.93
##MAXX=3997.453
##MAXY=0.9033572063512182
##MINX=373.96442
##MINY=0.6837580189094442
##$CSSOLVENTNAME=- - -
##$CSSOLVENTVALUE=0
##$CSSOLVENTX=0
##NPOINTS=21
##PEAKTABLE= (XY..XY)
379.63054756841257, 0.8176203953759126
393.7958664894445, 0.8108036507883383
638.8558838232993, 0.8212610472898445
658.687330312744, 0.8037300689592153
668.6030535574664, 0.8146439775042889
699.7667551837371, 0.710842012503575
726.6808611336978, 0.7452919472530629
746.512307623143, 0.7786675681996975
797.5074557388584, 0.6837580189094442
964.6582190070367, 0.7494478814068031
981.656601712275, 0.7863264071241428
1001.4880482017197, 0.771992801738342
1019.9029627990617, 0.766845940070922
1028.4021541516809, 0.7684202779891969
1052.4831963174352, 0.787450908007611
1070.8981109147771, 0.7766598451997687
1092.146089296325, 0.7893862112849399
1259.2968525645033, 0.7782368055030079
1439.1964028616103, 0.8212189065646351
2850.0621673964033, 0.7924565664017323
2919.4722301094607, 0.7689056387913226
##END=


$$ === CHEMSPECTRA PEAK TABLE AUTO ===
##TITLE=CHS- 268
##JCAMP-DX=5.00
##DATA TYPE=INFRAREDPEAKTABLE
##DATA CLASS=PEAKTABLE
##$CSTHRESHOLD=0.93
##MAXX=3997.453
##MAXY=0.9033572063512182
##MINX=373.96442
##MINY=0.6837580189094442
##NPOINTS=41
##PEAKTABLE= (XY..XY)
2956.3020593041438, 0.825438260032137
2919.4722301094607, 0.7689056387913226
2868.477081993745, 0.8255643835402445
2850.0621673964033, 0.7924565664017323
1464.6939769194682, 0.8253206599061512
1439.1964028616103, 0.8212189065646351
1348.5383617670054, 0.831281123870275
1259.2968525645033, 0.7782368055030079
1177.1380028225171, 0.8375885469487027
1092.146089296325, 0.7893862112849399
1070.8981109147771, 0.7766598451997687
1052.4831963174352, 0.787450908007611
1028.4021541516809, 0.7684202779891969
1019.9029627990617, 0.766845940070922
1001.4880482017197, 0.771992801738342
981.656601712275, 0.7863264071241428
964.6582190070367, 0.7494478814068031
797.5074557388584, 0.6837580189094442
746.512307623143, 0.7786675681996975
726.6808611336978, 0.7452919472530629
699.7667551837371, 0.710842012503575
668.6030535574664, 0.8146439775042889
658.687330312744, 0.8037300689592153
638.8558838232993, 0.8212610472898445
620.4409692259574, 0.8253023612622713
590.6937994917903, 0.8350323425004071
585.0276719233775, 0.8367636188430834
572.2788848944483, 0.8316502558930597
560.9466297576228, 0.8272237760792245
553.8639702971068, 0.8301386819026347
539.6986513760748, 0.8341553200486247
519.8672048866297, 0.8230118741560374
509.9514816419073, 0.8298074587807506
502.86882218139135, 0.8355821952954187
492.953098936669, 0.8361887326619271
483.03737569194664, 0.839122175221917
468.8720567709147, 0.8400369871075918
423.54303622361203, 0.8397290693068166
415.04384487099287, 0.8307999360002708
393.7958664894445, 0.8108036507883383
379.63054756841257, 0.8176203953759126
##END=

##END=

