##TITLE=X8788
##JCAMP-DX=5.0
##DATA TYPE=LINK
##BLOCKS=1


$$ === CHEMSPECTRA SPECTRUM ORIG ===
##TITLE=X8788
##JCAMP-DX=5.00
##DATA TYPE=INFRARED SPECTRUM
##DATA CLASS=XYDATA
##ORIGIN=ComPlat
##OWNER=
##XUNITS=1/CM
##YUNITS=TRANSMITTANCE
##XFACTOR=1
##YFACTOR=9.2473834e-010
##FIRSTX=3997.453
##LASTX=373.96442
##MAXX=3997.453
##MAXY=0.9929302309895939
##MINX=373.96442
##MINY=0.3968873911686774
##NPOINTS=2559
##XYDATA= (X++(Y..Y))
2559I72763288I72925910I72885883I72880404I73214414I73730446I73991363I73873538
2551I73622418I73445294I73359632I73340489I73366078I73366465I73292147I73160335
2543I72948470I72585004I72121503I71696934I71290218I70772703I70195245I69719433
2535I69308077I68792947I68171336I67602322I67223000I67147329I67442149I67973200
2527I68465319I68794558I69091312I69491647I69925240I70269047I70524549I70744536
2519I70956660I71171426I71300724I71210486I71019118I71044513I71225376I71030204
2511I70329700I69627713I69246199I69014675I68681245I68199181I67660654I67351267
2503I67779704I69153899I70907287I72286123I73059333I73345323I73226983I72717589
2495I71917759I71126694I70784821I70964717I71029108I70483620I69783566I69596323
2487I69881539I70253191I70653460I71327925I72246741I73049536I73443296I73197526
2479I72344842I71400308I70935132I71245679I72155600I73073514I73339909I72561026
2471I71231241I70563158I71081833I71916083I72067940I71535859I70876090I70738606
2463I71385677I72410329I73251089I73687970I73765639I73430727I72731383I72351417
2455I72631928I73337911I74199297I74820069I74631923I73409005I71829003I70971227
2447I71249804I72097010I72759614I73155630I73533083I73943794I74330593I74746332
2439I75196426I75391018I75002543I74105836I73117666I72486709I72330211I72525963
2431I72975734I73435948I73669342I73733604I73808437I74001095I74272647I74399045
2423I74260530I74067614I74069676I74304617I74695477I75254050I75892870I76268904
2415I76210443I75986459I75928256I76067738I76253628I76470264I76713391I76678069
2407I76104671I75343514I75142348I75794124I76761410I77349697I77280278I76776557
2399I76363654I76330717I76479030I76696826I77134866I77688863I78049557I78148174
2391I78083396I77853999I77425497I76788224I75858773I74717972I73962809I73985433
2383I74167520I74250410I74835023I76140444I77111340I76943626I75886747I74465950
2375I73454705I73773696I75308063I76708685I77116948I76590345I75459921I74216635
2367I73566793I73994972I75357501I77162002I78839268I79809133I79744999I78845005
2359I77772204I77301098I77753190I78604134I79240247I79603970I79663205I79220588
2351I78320400I77554731I77514188I78037632I78642872I79096124I79250624I78851064
2343I77894863I77042759I77040052I77529851I77804368I77923675I78202704I78663626
2335I78976817I78711968I77788060I76890386I76919778I77435746I77537070I77371161
2327I77888740I79388753I81121128I82380335I82889083I82711315I82091122I81359550
2319I80941942I80996213I80923894I80020741I78368226I76813104I76480641I77418600
2311I78536907I79320301I79855863I80320524I80777515I81036949I80842680I80265286
2303I79655019I79198609I78842813I78751480I79415309I80641385I81330803I81210335
2295I80763077I80333673I79959766I79538999I79029735I78557146I78399874I78843071
2287I79810486I80780609I81316042I81384301I81169019I80832560I80514149I80392457
2279I80539029I80761272I80910616I81240823I82003849I82816055I83010776I82479725
2271I81622916I80887992I80504932I80308020I80066891I79885771I79988900I80296547
2263I80479150I80521691I80839328I81626590I82433382I82625395I81997081I80877550
2255I79968467I79836720I80355201I81035789I81537383I81807130I81970783I82049161
2247I81940876I81723531I81693559I82001077I82427194I82616436I82361256I81842645
2239I81599067I81895821I82389101I82654271I82701453I82781249I82872583I82666196
2231I82089317I81526618I81435092I81856826I82410178I82742769I82769711I82525038
2223I82103433I81702325I81510699I81592686I81858244I82063793I81994696I81775934
2215I81790759I82191544I82785439I83363864I83689623I83405954I82566869I81905747
2207I82007394I82668065I83299795I83597129I83689236I83826462I84047932I84147001
2199I84013448I83883055I84015962I84340754I84629645I84730518I84493321I83856628
2191I83135111I82817860I83009293I83445465I83982574I84599802I85087216I85224248
2183I85127823I85014961I84819338I84473791I84327154I84778989I85624647I86168975
2175I85951631I85095273I84044258I83251518I83034367I83425097I84131982I84782985
2167I85158310I85222379I85115576I85085733I85280389I85628708I86005709I86412618
2159I86829517I87040223I86913439I86736121I86894424I87290247I87401819I86922011
2151I86144869I85695548I85911088I86507497I86928779I87012829I87076125I87343616
2143I87675949I87897419I88060105I88282929I88549775I88742949I88783169I88717553
2135I88698668I88829255I88992263I88935285I88611717I88296787I88249605I88470430
2127I88902348I89539492I90186821I90440841I90116886I89497918I89071028I89166423
2119I89822646I90799343I91657313I91982685I91670720I90974469I90267133I89862351
2111I89967349I90494339I91023971I91346894I91837595I92814937I93863953I94319268
2103I94071823I93470645I92869531I92588955I92849163I93440222I93765014I93438094
2095I92728115I92276410I92387144I92719156I92804173I92697756I92839043I93398454
2087I94108885I94711674I95258065I95869814I96455974I96867910I97160475I97480433
2079I97837453I98161729I98393512I98395961I98075809I97694168I97724527I98299085
2071I99035491I99462187I99451101I99221316I99016476I98856562I98691104I98695036
2063I99169816A000183962A001511749A002832189A003816427A004242092A004269292
2056A004409548A004988102A005850777A006746647A007690794A008752508A009789858
2049A010563906A010980161A011235470A011787533A012946381A014427767A015645657
2042A016462697A017262528A018310126A019454279A020394558A020890996A020825445
2035A020375286A020037732A020188494A020653090A020976529A021100928A021474836
2028A022392362A023491525A024147749A024189322A023926666A023480761A022375282
2021A019967926A016092528A010873229A003786906I93089389I76145729I50115043
2014I12698001H63613642H06796792G51362066G08923604F87731412F88285537G04470876
2006G28287703G53702129G77725151G99383550H18321469H34296489H47311059H57701122
1998H66176336H73739115H81169760H88504752H95259579I01138196I06336547I11223126
1990I15939348I20331746I24185036I27448040I30232655I32684549I34902598I36904979
1982I38626590I40064725I41448911I43068167I44838378I46309386I47215826I47775946
1974I48297392I48783259I49111016I49345957I49674552I50184268I50866596I51744418
1966I52846352I54072880I55233018I56269078I57302238I58350030I59183120I59610912
1958I59706951I59557543I58994845I57829873I56218481I54584916I53288518I52519304
1950I52398837I52983063I54130761I55481172I56669606I57601957I58468564I59432563
1942I60359372I60978275I61276318I61544970I61978821I62376512I62377092I61945239
1934I61467623I61327947I61482963I61550835I61330848I61145731I61525762I62538876
1926I63646160I64345827I64700075I64989997I65178852I65057933I64640712I64025933
1918I63081915I61588284I59574495I57406979I55712374I55162825I56015703I57848500
1910I59963872I61967605I63822253I65576544I67199151I68488007I69134175I69113807
1902I68944482I69248907I70091536I71020407I71713047I72259696I72831160I73384190
1894I73733347I73730124I73379098I72899677I72555419I72337301I72025658I71639310
1886I71533281I71991367I72954980I74103709I74999578I75320374I75160589I74904377
1878I74736922I74586289I74510102I74673755I74977792I75152145I75181150I75249795
1870I75333717I75193655I74740596I74168358I73726965I73511168I73506076I73733991
1862I74273421I75126685I76116596I76917135I77233741I77039730I76637591I76430108
1854I76583190I76872403I76916104I76636173I76396784I76574489I77156072I77847295
1846I78360169I78538325I78420886I78193680I77927607I77379605I76057167I73373684
1838I68795396I61978112I52823857I41695196I29931067I19864700I13593484I11364928
1830I11238080I10249523I05725958H95983481H81143720H64213724H50742293H45900704
1822H50906074H62040537H72958170H77931442H73883367H61280346H44574206H31162009
1814H27603926H35217238H49379184H63368839H72753329H76725991H76745586H74821197
1806H72729545H71794100H72627190H75069351H78605970H82785728H87198945H91353758
1798H94787441H97252743H98836612H99958915I01094882I02354346I03382478I03723384
1790I03266780I02422282I01972381I02744883I05203158I09098473I13540888I17651420
1782I21207183I24526651I27751046I30410230I31773468I31590349I30437431I29362696
1774I29181254I29922494I30691128I29951306I26020153I17702534I05295974H91423048
1766H80148975H74300459H73498953H74903507H75638430H74603208H72666572H71714691
1758H73346128H77937952H84605763H91929476H98802257I04855742I10302376I15426475
1750I20218304I24518336I28384452I32051014I35538389I38595780I41068171I43022532
1742I44506882I45491894I46095779I46643524I47433170I48494433I49600235I50543673
1734I51386560I52355780I53509408I54620173I55398669I55775025I55952730I56177809
1726I56459609I56626807I56672506I56857236I57393250I58219507I59174032I60195590
1718I61240030I62159039I62820032I63295006I63805753I64471258I65195740I65835076
1710I66381273I66920896I67497710I68095794I68681439I69185353I69530578I69742831
1702I69970488I70346007I70851533I71344877I71736187I72124468I72692323I73452449
1694I74187371I74700053I75036125I75361626I75697247I75936700I76118142I76399363
1686I76698501I76676393I76204642I75541264I74962968I74524089I74174804I73859228
1678I73557705I73361308I73354025I73424862I73429116I73446390I73647234I74059621
1670I74641978I75381994I76199743I76926094I77430460I77682933I77728890I77656893
1662I77533009I77387404I77318630I77498461I77963186I78515185I78936145I79188167
1654I79325715I79346534I79261324I79227807I79457140I80000373I80714735I81414337
1646I81955507I82207980I82109750I81789276I81505220I81412146I81493876I81713412
1638I82050257I82382462I82505314I82325354I81939071I81528231I81270214I81310757
1630I81689628I82266506I82797621I83112229I83196666I83142523I83098564I83217098
1622I83534414I83922630I84235756I84463478I84693391I84973645I85248999I85416971
1614I85479493I85605439I85922755I86302334I86539660I86674050I86871285I87063105
1606I87007608I86706923I86498022I86661030I87119955I87608400I87987335I88291630
1598I88581552I88857358I89060715I89099969I88960293I88828095I88985947I89491602
1590I90048757I90289434I90140413I89845012I89696635I89832830I90207898I90640718
1582I90908595I90870244I90535526I90082918I89782168I89726091I89669822I89394917
1574I89157334I89425212I90230264I91109955I91584220I91439453I90764537I89960581
1566I89490441I89429209I89430304I89216892I88927163I88921427I89344965I89931383
1558I90272225I90283955I90289950I90604429I91189236I91774622I92152977
1551I92303803I92354401I92484859I92827183I93388979I93985646I94294517
1544I94177788I93889607I93709840I93533876I93227453I93131092I93659177
1537I94562137I95140627I95116198I94822216I94622726I94585728I94730560
1530I95210497I96063632I96973876I97493131I97513241I97393804I97551463
1523I98008196I98457130I98665773I98633352I98474597I98400667I98676988
1516I99318902I99950955A000192341A000002133I99537149I98977223I98573086
1509I98523068I98736416I98962398I99098851I99168141I99137073I98954277
1502I98674990I98467314I98506567I98809187I99169687I99379813I99466248
1495I99584395I99783757I99973321I99979251I99631577I98999653I98493290
1488I98475371I98814021I99028981I98851856I98451909I98133627I98002782
1481I98013481I98212069I98724750I99458256I99960365I99775571I98986504
1474I98257382I98238432I99022535A000202525A001244065A001786331A001858908
1467A001851173A002057431A002330337A002406008A002395308A002647910A003234585
1460A003871472A004347091A004742526A005130614A005362332A005358013A005303291
1453A005335261A005338677A005216082A005032319A004792157A004386280A003835957
1446A003367235A003172901A003207385A003292015A003418349A003802247A004539233
1439A005365426A005898797A005993160A005757510A005379477A005038893A004888196
1432A004993452A005292204A005664823A006045820A006411413A006692697A006820062
1425A006866341A007002536A007252044A007405255A007281178A006966376A006687734
1418A006567202A006608841A006755284A006813423A006607229A006427591A006938016
1411A008290296A009714573A010338827A010131988A009819185A010074623A010870199
1404A011554139A011572960A010950769A010000241A008952578A008009720A007370256
1397A007058419A006947620A006938467A006996735A007121650A007349501A007676936
1390A007902788A007742294A007213242A006787318A006945557A007555759A007966471
1383A007857347A007672939A007890284A008272120A008357975A008281659A008636616
1376A009613056A010594071A010896562A010668969A010607736A010927887A011123252
1369A010818184A010349655A010234151A010516402A010934462A011349814A011760784
1362A012156993A012542115A012876125A012945028A012608376A012171044A012082933
1355A012339982A012620042A012792912A012798842A012362284A011436185A010664650
1348A010826047A011894207A013031721A013538858A013573277A013817500A014640470
1341A015792745A016718393A016966031A016534307A015958267A015854622A016404236
1334A017342388A018161942A018375484A018023363A017762639A018099678A018898348
1327A019836114A020696275A021115946A020814938A020160971A019859254A020042501
1320A020159295A019823159A019438165A019829733A021276699A023000760A023856151
1313A023624368A023148556A022972464A022738489A022425364A022901949A024424392
1306A025924405A026576697A026670415A026410208A025445564A024007364A023099635
1299A023245304A024000854A024758402A025301505A025516594A025238597A024744544
1292A024813705A025665809A026391451A026239078A025823919A026242752A027738768
1285A029817786A031812174A032835731A032046277A029549006A026682211A025071785
1278A025434800A027263665A029441236A031084856A032009473A032518480A032734922
1271A032459503A031848076A031534886A031825323A032581582A033998124A036298677
1264A038526910A038993053A037464036A036008368A036550054A038360292A039501222
1257A039470992A039108622A038927502A038820634A038729172A038442537A037526558
1250A036334514A035952163A036521887A036862148A036187748A035005696A033988843
1243A032960517A031133649A027442465A020566913A009602034I95260128I80151135
1236I67649568I60440457I59714428I64972465I74170292I84331602I92811005
1229I98655589A002782171A006498364A009942940A012286162A013179260A013349874
1222A013762262A014720331A015880598A016794193A017419671A018253405A019808269
1215A021967148A024161349A026023151A027478754A028450681A028865196A028779470
1208A028312359A027651302A027087637A026753692A026452297A026005039A025610764
1201A025684823A026420843A027523551A028355287A028420194A027722977A026814474
1194A026585978A027633383A029575626A031393470A032578939A033459790A034356434
1187A035056809A035233611A034886904A034390208A034460401A035871980A038668583
1180A041650497A043230177A043141744A042726649A043051248A043628642A043635603
1173A043378103A043617813A044264626A044710466A044812435A044850399A044930518
1166A044862517A044477265A043973931A043945377A044713044A045456347A044791616
1159A042778214A041288836A041827105A043999842A046408229A047936022A047798151
1152A045838312A043344328A042174586A042774604A044046250A045118084A046237421
1145A047975276A050263839A051974171A051592206A049106022A046596440A046118178
1138A047611874A049596529A051099249A051832110A051316078A049365778A047225914
1131A046563051A047315572A047939438A047667113A047328334A047843141A048855096
1124A049364747A049047431A048346991A047766890A047354761A046830414A046153307
1117A045702955A045751490A046056688A046241224A046356407A046802633A047714810
1110A048587669A048647484A047770435A046794125A046383413A046204807A045763350
1103A045356763A045526668A046051015A046321214A046290855A046296849A046373294
1096A046384831A046489765A047019011A047970184A048830989A048954164A048341706
1089A047819744A047960257A048413445A048539392A048353502A048516703A049394848
1082A050541385A051145593A050773297A049727890A048744490A048340546A048476225
1075A048717998A048666821A048288852A047833473A047539813A047486959A047656800
1068A047908693A047685998A045903734A041676279A035564720A029898098A027218224
1061A028203494A031419510A035001957A038045361A040486234A042533217A044431309
1054A046251279A047762765A048653285A048886421A048846072A049012110A049544320
1047A050336352A051283850A052232960A052871330A052980840A052719536A052516501
1040A052731074A053329996A053844868A053994212A054002398A054162699A054590363
1033A055255739A055990405A056515009A056647273A056529512A056550847A056864939
1026A057255670A057482683A057494607A057364600A057193921A057116317A057222475
1019A057469985A057768157A058054340A058269687A058425412A058622775A058869834
1012A059059011A059132684A059072804A058817431A058394924A058038097A057973448
1005A058223859A058654294A059101165A059530440A060037706A060577716A060961421
998A061068933A060941697A060745623A060615616A060525765A060309516A059820748
991A059081699A058298885A057811407A057903385A058460089A059085631A059483129
984A059499372A059141321A058549295A057929490A057457416A056964395A055911446
977A053969719A051464133A048897185A046497693A044670439A044082732A044623258
970A045325696A045543234A045381708A045300751A045513004A045799703A045934028
963A046037867A046482933A047578809A048963768A050007628A050700849A051272635
956A051809164A052277306A052618212A052783541A052738938A052350141A051163898
949A048571620A044817849A041038103A038359067A037723147A039503607A043273813
942A048197390A053162991A057074743A059763963A061779428A063392431A064495977
935A065406865A066551211A067745639A068576731A068948576A069031724A069123766
928A069360899A069635480A070094147A071134784A072390703A073272006A073639532
921A073607626A073469369A073554064A073741823A073613621A073191114A073010187
914A073113831A072665542A070505632A065579799A058193887A050333000A043746531
907A039218197A036776551A035506710A033424791A029608692A024536545A016313804
900A001128754I78506290I53852054I27733772H95597005H55615400H08711126
893G51898079F81152742F14049087E75605653E63516344E68871387E88985429
886F19889352F53816763F86879888G18791834G45182119G60813654G64557112
879G54079131G27947700F97615627F77220945F70928008F78897309F99306880
872G26957274G56002295G83214197H07614735H28888463H46806951H61326174
865H72827711H82338406H91159747I00103424I09418496I19067125I28389416
858I35763662I39117356I37514407I33119754I30758291I33869889I42111258
851I54074104I69010807I83543824I93416051I99239300A003718583A008594978
844A013774637A018294721A021964570A024791919A026407500A026763102A027001588
837A028903160A031646007A033998962A035980588A037400096A038055803A037823054
830A036540257A034151916A030338524A024467320A016188374A004522990I89164811
823I74832316I62684482I46587125I18301520H75169322H25376466G74663376
816G21415503F68677473F28245903F08878903F11845218F34547929F65541833
809F94179752G20708553G45729799G66485432G82852600G96684146H08791309
802H20851097H36828566H54623943H67107914H75444032H82821566H90462272
795H98670316I07148818I14294375I18210187I17733150I10336473H90072766
788H51897081H02186664G56064559G25673639G15500791G20432747G27567862
781G26017316G15155437G02267652F94662912F93369673F94789825F98492418
774G06832726G19885776G33423919G38983931G32131583G18943820G07903077
767G05403227G15798641G32014144G40273432G40513722G39019188G41682497
760G53227993G72624256G89714682G93622114G83564900G68978256G62001379
753G69723879G93102021H25726589H54140139H72646655H85780791H97730166
746I08938494I18206255I25304695I30856715I35053038I37346371I36776067
739I31880529I21756281I08184620H94325616H83406501H78747128H81525362
732H89024459H97035591I03074251I06549960I07613221I06648770I03957101
725H99519649H92918742H82856436H67404861H46672045H24048615H02242998
718G80620693G57385385G34083043G17408486G13527544G23058671G41728325
711G63203671G82619980G98117705H08891086H12734579H06731370G90063194
704G65169698G38779349G20892574G18733501G33487086G60831122G91281986
697H16122692H32870535H42321222H45783394H45890713H46817006H52218328
690H63108503H77657118H92933051I06711615I17803342I25687369I30197784
683I31079280I27547302I17883783H99039648H67496646H22636519G70878667
676G25445336F99098946F95816475G09988476G32790255G58065715G83495997
669H08761015H33400297H55743474H73179833H83051157H84282389H79810776
662H76455600H80402157H92795052I09841132I26629582I40424646I50907912
655I58935288I65761661I72644561I80313305I88649166I96980063A004643329
648A011288775A016810049A021135283A024186357A026030692A026867005A026673509
641A024878869A020360461A011478597I95702681I69337146I29257440H77716031
634H25874322G88023429G68335246G56049477G38059894G14931067G00251607
627G05175699G28273716G60220791G93163641H23698362H50562590H72436401
620H88024171H97820210I04921616I12744151I21925155I30553064I37324778
613I43235623I50016490I58018599I66056545I72605565I76644165I77689959
606I75423890I69164727I57377974I37579507I06911492H63361105H07146206
599G41460512F72080475F06045109E50038403E08690466D82589007D67235824
592D55564865D43450096D32871307D29188857D35771426D51573350D72896322
585D96243719E19686123E42689036E65218297E86779949F06144435F22205954
578F35330486F47652737F61571814F77845134F95365866G12598674G28732125
571G43618102G57307716G69884116G81497355G92392042H02834508H12982024
564H22852833H32405746H41630579H50636843H59637047H68708800H77543096
557H85328054H90327237H88668857H73557285H38373762G84632415G27342654
550F88175447F79926215F98381747G29439591G61181052G88612232H11201500
543H29666121H44703246H56596351H64648800H66378469H57355446H33515028
536G96256031G55920307G27709794G21538871G35705650G60427887G85804349
529H05775363H16850332H16455155H04588347G86707373G72397050G68995337
522G76695922G90342093H04749680H17532402H28376556H37535065H45266395
515H51912808H57903835H63493883H68504733H72350159H74248186H73378292
508H69197760H62340771H55387034H51865884H53757465H60213218H68871744
501H77837594H86256667H93854188I00599088I06641100I12201370I17416673
494I22320397I26965203I31442101I35676582I39326256I42037263I43696610
487I44291858I43749012I42323704I41132885I41757847I44831223I49005954
480I51488529I49535715I41258573I25008908H98373691H58451451H04143667
473G39336246F74148407F21822378E92346342E87483289F01088402F23823663
466F48007566F69517073F86979214G00354542G10307790G18028807G24809352
459G31619353G39095504G47656444G57388286G67890566G78302673G87113250
452G91610452G88726189G78834240G68855210G68474793G81388361H01790261
445H20153622H30363274H31010280H23335541H10542377G97858787G90821450
438G92385790H01562153H14792585H28555807H40902487H51366095H60226044
431H67800232H73923071H77809814H78304382H74495502H66999048H59132360
424H55865617H60447385H72090145H87192048I02241162I15231561I25165084
417I31201553I32224078I26679535I12826461H89789161H59173999H25883217
410G96708253G77309927G70026241G73812433G85464603H01045862H17103514
403H31369427H43002583H52654886H61923614H71953370H82513919H92678903
396I01971543I10456941I18196973I25146457I31375583I37076044I42400535
389I47411836I52156483I56723362I61195297I65475155I68943258I69898427
382I65634683I54667161I40071493I29283996I28367501I36475639I47082338
375I53784312I53495937I45071513I26582658H93883773H42531283G74303456
368G02954491F49803946F29884496F42271912F73973539G11023119G45174900
361G73541525G95985704H13457643H27181741H38387878H48284726H57671021
354H66524783H74365946H80978584H86557353H91178374H94158418H93709485
347H86299852H65261581H22277566G56681529F86240230F42345585F46653932
340F92925638G55208330H10758819H51766622H80383658I00425832I14437209
333I24125414I30867157I35679805I39000046I40397446I37840746I27538407
326I07460719H83153770H67143558H68561196H84228375I02539011I14327634
319I17238131I11333732H93407123H55700224G91072699G02919299F10712667
312E41825201E14687133E29225758E71663414F25481592F77672586G18207930
305G39009778G38403894G27079288G23607705G37817863G59710237G70117704
298G62801210G51692659G55461834G79327068H14078544H48260555H76660827
291H99174295I16909858I30844404I41936067I51058738I58831256I65521692
284I71186122I75942823I79811647I82392130I83216454I82311689I79797080
277I74831671I65376473I49141117I24311433H89252180H42743664G85932938
270G24083517F65781543F19620379E89844108E73711107E63920030E55097336
263E47830989E46805757E56900548E80531034F15636760F55728906F93754216
256G25962078G51882674G72340651G88410099H01089886H11037010H18682034
249H24466610H28565540H30313901H28072712H19734660H03223111G76521634
242G38296318F89973310F37362129E89338646E54362348E37295932E38066758
235E52659171E75338033F00890523F26252933F50488852F73562118F95743254
228G17652322G39839387G62294846G84442722H05244764H23573512H39035915
221H52349173H64627466H76315666H86956913H96032532I03678846I10387716
214I16473751I22037308I27126986I31976955I37053807I42004261I44665250
207I44039643I40898911I34069637I18909853H87815141H35117461G66187518
200F99430055F51484821F20974464E93802782E64009559E42516359E43642594
193E69478689F10337020F54621364F95259514G29935513G58593414G81936556
186H01171358H17467624H31559700H44097427H55679276H66460005H76356918
179H85484165H94002629I01925844I09411857I16934222I24882317I33048982
172I40650499I46976309I51779804I53821760I47753451I24202825H77882971
165H17291789G62239994G29182542G21594818G34206798G59952139G91288947
158H21057033H45377195H64107695H78456111H89401653H97542664I02636533
151I03561794I00390445H96548306H97069108I03996161I14648688I24756048
144I31822777I35368677I35822961I33633852I28533474I19409256I05208444
137H86222441H64569520H43656937H27434214H19578806H21998666H33401135
130H49898954H67446693H83517236H97035656I07850933I16354572I23020644
123I28225763I32525666I36780837I41705187I47155366I52041172I55406274
116I57513202I59297851I61028744I62212666I62662889I63037054I64234319
109I66650891I70003747I73424926I75760607I76422244I76256916I76924870
102I78822059I80757921I82065662I83257383I84785756I86539016I88227948
95I89489539I89791450I88476811I84864779I78638424I69879154I58142483
88I42648238I24367703I06982909H94936463H90651385H93292585I00035552
81I08470417I17564019I27004714I36219621I44174162I50105052I54068110
74I56782210I59262336I62429753I66494780I70663709I74149924I76990099
67I79275633I80895082I82346882I84545788I87570113I90702660I93760695
60I96883315I98946349I98797778I97674251I97814636I98992499I98224832
53I93036536I82683534I65629591I37197221H92418502H33789222G75374387
46G39021960G42772056G83611888H38374729H87137325I24141979I50822444
39I69583689I82661942I92139377I99978864A007445475A013654040A015570888
32A012924080A009899819A006793571I99911572I87402528I71695193I56725296
25I45319926I39971007I42368370I51199510I62997994I75551061I88618227
18A001057466A009558913A013182998A014835642A017455637A021285078A023720021
11A022427233A018257401A014641179A015185508A020941787A029680109A038466644
4A046032130A052482726A057273395A060370749
##END=


$$ === CHEMSPECTRA PEAK TABLE EDIT ===
##TITLE=X8788
##JCAMP-DX=5.00
##DATA TYPE=INFRAREDPEAKTABLE
##DATA CLASS=PEAKTABLE
##$CSTHRESHOLD=0.93
##MAXX=3997.453
##MAXY=0.9929302309895939
##MINX=373.96442
##MINY=0.3968873911686774
##$CSSOLVENTNAME=- - -
##$CSSOLVENTVALUE=0
##$CSSOLVENTX=0
##NPOINTS=55
##PEAKTABLE= (XY..XY)
385.29667513685536, 0.9382775995641028
406.54465351837325, 0.8692272286613084
437.708355144644, 0.6834019405139464
491.5365670445658, 0.8236194832836009
560.9466297576228, 0.7578959445596221
583.6111400312743, 0.8290725922202521
602.0260546286158, 0.6672863941499221
648.7716070680217, 0.5016856772445041
708.2659465363563, 0.4968581482464329
743.6792438389366, 0.5056522480306234
793.2578600625484, 0.6951190216738461
800.3405195230648, 0.6691477879329097
813.0893065519936, 0.4759509249897792
831.5042211493351, 0.8018808943666137
857.001795207193, 0.5940015899792289
890.9985606176697, 0.5824783432227767
907.9969433229085, 0.8584970217846883
950.4929000860043, 0.7120727878587799
973.1574103596558, 0.7914517499276558
994.4053887412038, 0.731302914909393
1007.1541757701325, 0.7106381044106637
1036.9013455043, 0.5432683214476003
1087.8964936200155, 0.7877530434727925
1113.394067677873, 0.7111194714051206
1127.5593865989053, 0.6672346578140141
1150.2238968725565, 0.6287538393815831
1206.8851725566847, 0.3968873911686774
1262.1299163487097, 0.6475495086395123
1310.2920006802187, 0.810492096627704
1327.290383385457, 0.6434481720361515
1365.5367444722438, 0.6646404246171284
1383.9516590695853, 0.659826276582837
1412.2822969116496, 0.8126111604264875
1440.6129347537135, 0.7046518902941709
1451.945189890539, 0.6833993771392679
1459.0278493510555, 0.6523134091666232
1473.1931682720874, 0.6411855204163628
1483.1088915168098, 0.6616510137380269
1524.1883163878028, 0.5630536660212411
1582.2661239640343, 0.8607078769605769
1612.0132936982013, 0.6204328523774267
1631.8447401876465, 0.5211051685134289
1715.4201218217545, 0.9661831232866307
1749.4168872322311, 0.9655033324123449
1878.3212894136218, 0.9523862575136773
2120.548242963268, 0.8874847270227695
2864.2274863174353, 0.8061079963089529
2871.310145777951, 0.807757971788958
2905.3069111884283, 0.8340884423317876
2929.387953354183, 0.806181428855794
2942.136740383112, 0.7653170807067229
2954.8855274120406, 0.7822368128217914
3080.9568658092335, 0.884064374206153
3134.785077709155, 0.8807197195453106
3218.360459343237, 0.6359716042987361
##END=


$$ === CHEMSPECTRA PEAK TABLE AUTO ===
##TITLE=X8788
##JCAMP-DX=5.00
##DATA TYPE=INFRAREDPEAKTABLE
##DATA CLASS=PEAKTABLE
##$CSTHRESHOLD=0.93
##MAXX=3997.453
##MAXY=0.9929302309895939
##MINX=373.96442
##MINY=0.3968873911686774
##NPOINTS=137
##PEAKTABLE= (XY..XY)
3993.2034043236904, 0.8996598098134894
3981.871149186865, 0.9000852680526482
3956.373575129007, 0.8943582155548938
3935.125596747459, 0.8979386072875841
3919.543745934324, 0.8945468048424767
3903.9618951211883, 0.8977219438687372
3896.8792356606723, 0.8966228942011238
3881.297384847537, 0.8978609422133609
3871.381661602815, 0.8975169635940777
3862.8824702501956, 0.8976792070863541
3851.5502151133696, 0.8991706352532278
3840.217959976544, 0.8978943206437432
3818.969981594996, 0.8991510252519898
3803.3881307818606, 0.9007576684181208
3790.639343752932, 0.902478275412535
3779.3070886161063, 0.9017515161532224
3769.391365371384, 0.9028504465295898
3750.976450774042, 0.9006607512163971
3736.81113185301, 0.9001908879668897
3725.4788767161845, 0.9002945400379436
3712.7300896872557, 0.9037477950446974
3699.981302658327, 0.9039448475375679
3688.649047521501, 0.9035063957999937
3675.900260492572, 0.9033679939115993
3670.2341329241594, 0.9038125849870128
3657.4853458952307, 0.9071146230814563
3648.9861545426115, 0.902989087000476
3630.5712399452696, 0.9050890188877432
3614.9893891321344, 0.9047638753389692
3602.2406021032057, 0.9066064932347013
3582.4091556137605, 0.9061379412641601
3565.410772908522, 0.9060925819238448
3552.6619858795934, 0.9078096721383521
3544.1627945269743, 0.9077222917631288
3529.997475605942, 0.9075706577938273
3518.6652204691163, 0.9076405744854996
3511.5825610086004, 0.9078858474591096
3500.250305871775, 0.90800589051724
3486.084986950743, 0.9098343830348287
3474.7527318139173, 0.9088493563787524
3459.1708810007817, 0.9102450584068844
3447.838625863956, 0.9090495687025307
3437.922902619234, 0.9109465454921032
3426.590647482408, 0.9124727225515792
3418.0914561297886, 0.9115104648029103
3396.8434777482407, 0.9142875650065311
3388.3442863956216, 0.9138722992333557
3377.012031258796, 0.9146319005748135
3364.2632442298673, 0.9153636672922374
3347.2648615246285, 0.9178850625490347
3338.7656701720093, 0.9175960402045594
3333.0995426035965, 0.917985675005165
3310.435032329945, 0.9226060487440011
3218.360459343237, 0.6359716042987361
3134.7850777091476, 0.8807197195453106
3110.7040355433933, 0.888976809904388
3105.0379079749805, 0.8888083077830266
3082.373397701329, 0.8832756852202105
3066.791546888194, 0.8960201118368398
3044.1270366145427, 0.8984140735266936
3029.9617176935103, 0.9011668540367107
3012.963334988272, 0.9002383927001538
3000.2145479593432, 0.9029423571979407
2993.1318884988273, 0.9029115412174986
2954.8855274120406, 0.7822368128217914
2942.136740383112, 0.7653170807067229
2929.387953354183, 0.806181428855794
2905.3069111884283, 0.8340884423317876
2885.475464698983, 0.8592495303830784
2871.310145777951, 0.807757971788958
2864.2274863174353, 0.8061079963089529
2746.6553392728692, 0.9000977853108185
2723.990828999218, 0.9037640075572742
2711.2420419702894, 0.9055294967270204
2697.076723049257, 0.9075494387478776
2684.3279360203283, 0.9074181887858047
2672.9956808835027, 0.9091089341297438
2644.6650430414384, 0.9122525432775634
2629.0831922283032, 0.9144072511156623
2619.167468983581, 0.9152104233534859
2602.1690862783425, 0.9147117110419856
2589.420299249414, 0.9149631242781731
2583.7541716810006, 0.9144935587944112
2552.59047005473, 0.9183863974184673
2542.6747468100075, 0.9197315550984115
2532.759023565285, 0.9223282906372453
2522.843300320563, 0.9232593754564727
2510.094513291634, 0.9233725643540271
2498.7622581548085, 0.9233210064926187
2480.347343557467, 0.9233284571094241
2471.8481522048473, 0.9228914359420619
2459.0993651759186, 0.9231093505318829
2120.548242963252, 0.8874847270227695
1631.8447401876465, 0.5211051685134289
1612.0132936982013, 0.6204328523774267
1582.2661239640343, 0.8607078769605769
1524.1883163878028, 0.5630536660212411
1483.1088915168098, 0.6616510137380269
1473.1931682720874, 0.6411855204163628
1459.0278493510555, 0.6523134091666232
1451.945189890539, 0.6833993771392679
1440.6129347537135, 0.7046518902941709
1412.2822969116496, 0.8126111604264875
1383.9516590695853, 0.659826276582837
1365.5367444722438, 0.6646404246171284
1327.290383385457, 0.6434481720361515
1310.2920006802187, 0.810492096627704
1262.1299163487097, 0.6475495086395123
1206.8851725566847, 0.3968873911686774
1150.2238968725565, 0.6287538393815831
1127.5593865989053, 0.6672346578140141
1113.394067677873, 0.7111194714051206
1087.8964936200155, 0.7877530434727925
1058.149323885848, 0.8703016617943109
1036.9013455043, 0.5432683214476003
1007.1541757701325, 0.7106381044106637
994.4053887412038, 0.731302914909393
973.1574103596558, 0.7914517499276558
950.4929000860043, 0.7120727878587799
907.9969433229085, 0.8584970217846883
890.9985606176697, 0.5824783432227767
857.001795207193, 0.5940015899792289
831.5042211493351, 0.8018808943666137
813.0893065519936, 0.4759509249897792
800.3405195230648, 0.6691477879329097
793.2578600625484, 0.6951190216738461
743.6792438389366, 0.5056522480306234
708.2659465363563, 0.4968581482464329
648.7716070680217, 0.5016856772445041
602.0260546286158, 0.6672863941499221
583.6111400312743, 0.8290725922202521
560.9466297576228, 0.7578959445596221
519.8672048866297, 0.9027821999153595
491.5365670445658, 0.8236194832836009
453.2902059577791, 0.9225876307304833
437.708355144644, 0.6834019405139464
406.54465351837325, 0.8692272286613084
##END=

##END=

