##TITLE=X7369
##JCAMP-DX=4.24
##DATA TYPE=INFRARED SPECTRUM
##DATE=26/10/2018
##SAMPLING PROCEDURE=Diamant-ATR
##ORIGIN=ComPlat
##XUNITS=1/CM
##YUNITS=TRANSMITTANCE
##RESOLUTION=4
##FIRSTX=3997.453
##LASTX=373.96442
##DELTAX=-1.4165319
##MAXY=0.92555732
##MINY=0.46353489
##XFACTOR=1
##YFACTOR=8.6199242e-010
##NPOINTS=2559
##FIRSTY=0.87982368
##XYDATA=(X++(Y..Y))
3997+1020686101+1020293066+1019404659+1018573229+1017867440+1017264404
3989+1017253963+1018228598+1019651377+1020484052+1020281242+1019608506
3980+1019397467+1019830746+1020078847+1019428999+1018258262+1017357339
3972+1016864248+1016534691+1016492511+1017003511+1017673205+1017437619
3963+1015842593+1014136170+1014089496+1015755190+1017725204+1019126271
3955+1019744519+1018833016+1015508887+1010463054+1006403471+1005682124
3946+1007149642+1007404797+1005600599+1004856295+1007801012+1012924567
3938+1017019069+1018015900+1014951489+1008160164+1000776730+997783748
3929+1000683380+1005279824+1006641408+1004305051+1002028646+1002075735
3921+1002224679+1000021224+997072220+997688532+1003401362+1011045483+1016707974
3911+1018845117+1017516655+1012290692+1002214514+988333355+975585041+969534978
3901+971040596+977907222+988224379+998924959+1005521149+1004877800+998265845
3891+992623614+993406502+996733950+996063288+991021466+986697740+984803443
3881+983804884+986319572+994329967+1001838421+1002138590+995486183+987089115
3871+980429171+977352451+979605485+983808134+984084724+980675613+980491611
3861+986793647+994487071+997911394+994888749+984171227+965994486+952522612
3852+959501533+978475961+995342909+1004650858+1005777617+1000366270+991206781
3842+980702442+970418545+963378981+963986788+971790086+981041403+988076127
3832+993135513+996890016+998466511+997487520+995656839+993573079+988037957
3822+977543783+969862460+972145712+979258780+986193654+994740980+1005271457
3812+1013334336+1015066689+1009662256+1000097770+992595678+989297549+985299300
3802+978238577+974254573+977743896+984658164+992277738+1001382393+1010865423
3792+1017685928+1020643921+1020677457+1018612989+1014929085+1011608344
3784+1010827945+1011228724+1009590965+1006538586+1006632834+1011109652
3775+1016069397+1017445363+1013663685+1006406514+1000369174+998646502+999607722
3765+1001326867+1003376469+1003615651+999119747+991383868+986727266+987509186
3755+988450699+983091351+968913687+952202735+945938246+950774355+956673953
3745+959380525+962814806+970343520+977906738+980290253+974567397+961394793
3735+949111771+949875990+964426151+981888184+993264750+995783172+991099187
3725+984377080+981419156+983799006+989299485+995638792+1001214987+1004216819
3716+1002610245+994789314+981873870+971837798+974435532+987335418+1001002496
3706+1009662464+1011587807+1008054230+1004176368+1004939964+1009256706
3697+1013015704+1013977269+1011379327+1004210596+992233276+979737765+976078270
3687+984524018+997566763+1008135202+1013416483+1012605797+1006295878+995621367
3677+981146369+967359043+964534090+971527740+976305281+975679635+978823703
3667+990960962+1005056685+1014461233+1018249549+1018532224+1016970666
3659+1013204407+1006895456+1000757230+997311056+992654384+979749935+957358375
3649+939467351+944280157+965550697+986777536+1000880797+1008014678+1011014436
3639+1012449939+1012964120+1011915152+1009004248+1004370119+996812917+984337804
3629+971280469+970751421+983869813+997683484+1004170214+1001783725+992352071
3619+981900768+977662993+979047741+980404831+980437399+981607514+983839112
3609+985022503+986737638+992477367+1000487347+1005329679+1004552945+1000665748
3599+997627544+996312496+995297964+994745613+996376388+999211921+998517611
3589+990658925+979255945+975236261+982901679+994469576+1002889671+1007051799
3580+1008715488+1009659283+1010683842+1011710475+1012152881+1010797797
3571+1005322488+993205767+975914529+963485606+966074490+979343693+992522105
3561+1000960869+1005821111+1009064476+1010551493+1009200351+1005598732
3553+1002611214+1002351081+1002748610+999866610+993618854+989155589+991148974
3543+998332779+1005862323+1010013664+1010115172+1008440558+1008082719
3534+1009758993+1011275952+1010261973+1006547713+1001988886+998378832+996192871
3524+995754406+997986143+1002802752+1008262987+1012371525+1014588948+1015263413
3514+1014529620+1012190497+1008617091+1005628604+1005336940+1007156834
3506+1007748875+1005236745+1002067852+1002073107+1005412587+1009034258
3497+1010927103+1011633168+1012338611+1012961976+1012656482+1011435752
3489+1010400337+1010271307+1010256441+1008936484+1006270155+1004303530
3480+1005287569+1008953840+1012639956+1014181462+1013773491+1012987561
3472+1012707582+1012600127+1012152604+1011489134+1011032483+1010802291
3463+1010529435+1010304706+1010516505+1011255623+1012279905+1013334889
3455+1014127458+1014273912+1013442551+1011444119+1008552784+1005987618
3446+1005279271+1006601372+1008659064+1010418730+1011777894+1012664987
3438+1012714705+1012080898+1011589190+1011688555+1011972060+1012081313
3429+1012345388+1013077383+1013851628+1013870436+1012724800+1010799041
3421+1009256014+1009251451+1010707836+1012216911+1012397041+1011062632
3412+1009047051+1007210077+1005905678+1005274984+1005443980+1006177566
3404+1006818702+1006886259+1006414673+1005690145+1005078052+1004927379
3395+1005243314+1005735575+1006380653+1007427062+1008740450+1009751664
3387+1010231963+1010681007+1011678805+1013018331+1013815948+1013517300
3378+1012509682+1011697959+1011649279+1012112291+1012255703+1011492384
3370+1010086338+1008826885+1008260221+1008382612+1008892644+1009548785
3361+1010270823+1010868189+1010898476+1010137369+1009040827+1008406053
3353+1008723440+1009985936+1011720363+1013072750+1013383638+1012845117
3344+1012171551+1011615466+1010816951+1009607699+1008410617+1007778263
3336+1007919462+1008676904+1009642618+1010294748+1010245930+1009488004
3327+1008495737+1008074767+1008838502+1010613449+1012449316+1013398988
3319+1013311102+1012768847+1012261304+1011663040+1010671948+1009457649
3310+1008627532+1008764099+1009993611+1011657370+1012603861+1012246991
3302+1011157986+1010365694+1010363412+1010865354+1011198023+1010979655
3293+1010579567+1010695804+1011490102+1012445167+1012941785+1012681859
3285+1011852919+1011146992+1011261016+1012154056+1013035826+1013134776
3276+1012292006+1010977442+1010038557+1010220761+1011545143+1013249007
3268+1014511710+1015052029+1015002865+1014588533+1014043513+1013589490
3259+1013377138+1013415930+1013479476+1013281991+1012918413+1012816351
3251+1013084851+1013292985+1012996135+1012193470+1011296904+1010842466
3242+1011117051+1011988379+1013110989+1014144468+1014743286+1014587358
3234+1013610303+1012207646+1011148375+1011060627+1011841994+1012749417
3225+1013144249+1012968683+1012591000+1012452705+1012729640+1013132563
3217+1013218306+1012949668+1012704125+1012762347+1013089415+1013581884
3208+1014170191+1014624698+1014611698+1014097724+1013472838+1013127170
3200+1013046751+1012983688+1012903339+1012994752+1013189264+1013078213
3191+1012643690+1012590654+1013369186+1014322039+1014526646+1014029476
3183+1013531129+1013386404+1013580155+1014105123+1014743700+1014959095
3174+1014526785+1013976923+1013996907+1014526854+1014864225+1014712584
3166+1014593719+1014952595+1015410352+1015329242+1014704148+1014110724
3157+1014006934+1014302124+1014508115+1014271423+1013738503+1013342564
3149+1013349686+1013731726+1014336698+1014998163+1015498861+1015608943
3140+1015350816+1015103821+1015128022+1015151049+1014863187+1014561566
3132+1014751860+1015373289+1015921421+1016003361+1015471271+1014460541
3123+1013505337+1013172945+1013451264+1013854256+1014149377+1014618267
3115+1015540626+1016688267+1017465693+1017452901+1016795169+1016136677
3106+1016028185+1016270201+1016024313+1014737131+1012775969+1011047834
3098+1010225255+1010358433+1010910576+1011157917+1010793302+1010059094
3089+1009305731+1008760434+1008660101+1009083353+1009615789+1009719994
3081+1009511169+1009741776+1010924752+1012705370+1014131883+1014552577
3072+1014297215+1014230142+1014594480+1014868304+1014832209+1014971818
3064+1015607353+1016348753+1016556265+1015851790+1014345895+1012747964
3055+1011904987+1011963901+1012329069+1012439428+1012210896+1011899939
3047+1011889083+1012354100+1012892621+1012837718+1012094313+1011238405
3038+1010689650+1010308716+1009889060+1009506743+1009349571+1009654719
3030+1010704448+1012426498+1014202621+1015437250+1016090694+1016450607
3021+1016699400+1016849173+1016773941+1016223043+1015020152+1013331016
3013+1011707709+1010810589+1010861551+1011295106+1011209709+1010172012
3004+1008258838+1005426486+1001299485+995552426+988280942+980367076+973778423
2995+970922907+973024646+979179882+987070376+994336398+999605855+1002905575
2985+1005115460+1006885914+1008301848+1009405235+1010392108+1011272564
2976+1011789165+1011683784+1010853806+1009427846+1007767476+1006187869
2968+1004681836+1003058045+1001253917+999450549+997952814+996833177+995660712
2958+993792760+990858485+986562556+980174984+971044607+960149584+950730169
2948+946451874+948460609+954543863+961293975+966622000+970149008+972123861
2938+972752758+972313187+971261799+969978352+968535865+966874388+965117073
2928+963523914+962235073+961260231+960622415+960392637+960707743+961729052
2918+963424549+965534378+967900054+970573228+973473137+976249479+978588809
2908+980413474+981788957+982907764+984103117+985597534+987249399+988733996
2898+989926929+990947063+991900262+992784866+993638423+994599781+995775220
2888+997130995+998542919+999873525+1000973662+1001743343+1002250125+1002634516
2878+1002817411+1002481424+1001488465+1000221959+999367710+999302988+999735783
2868+1000063542+999990799+999534010+998629630+997266455+995845405+994788277
2859+993859488+992397985+990125936+987295659+984110723+980523004+976885498
2849+974533514+975085312+978881995+984451621+989812075+994066654+997511376
2839+1000592244+1003271503+1005307137+1006684694+1007636303+1008454871
2830+1009366374+1010429102+1011525920+1012559123+1013598410+1014708573
2822+1015699112+1016229128+1016196283+1015888991+1015694410+1015785754
2813+1016156454+1016749947+1017442805+1018088297+1018668860+1019268369
2805+1019887447+1020405846+1020709749+1020802061+1020787678+1020762993
2796+1020771982+1020875841+1021114331+1021384076+1021555562+1021682724
2788+1021921352+1022330567+1022871577+1023461060+1023962241+1024199901
2779+1023975310+1023190347+1022160533+1021565657+1021774483+1022472389
2771+1023152593+1023618302+1023838191+1023732879+1023300638+1022704379
2762+1022162469+1021896044+1022060961+1022554536+1023001575+1023109652
2754+1022986017+1023000192+1023367780+1023943157+1024413844+1024635877
2745+1024712008+1024777836+1024839862+1024871462+1024925812+1025044124
2737+1025148467+1025123297+1024963290+1024788900+1024705508+1024669344
2728+1024549719+1024342622+1024215667+1024269118+1024383626+1024439636
2720+1024562511+1024926919+1025408462+1025731173+1025915244+1026212371
2711+1026604092+1026742594+1026446228+1025922505+1025471455+1025226604
2703+1025208141+1025376308+1025559757+1025502295+1025120532+1024684971
2694+1024632627+1025169142+1026071932+1026883171+1027269291+1027200213
2686+1026845624+1026423893+1026154287+1026146888+1026263817+1026239269
2677+1025976578+1025602075+1025298172+1025218652+1025452232+1025926169
2669+1026400729+1026652910+1026688244+1026750062+1027015520+1027355103
2660+1027609981+1027922597+1028385540+1028616147+1028254298+1027651193
2652+1027481781+1027887608+1028471352+1028909609+1029143051+1029120854
2643+1028741442+1028072785+1027418926+1027095316+1027242323+1027863407
2635+1028867360+1029982018+1030774517+1030941509+1030607734+1030237379
2626+1030142025+1030173418+1030078617+1030004214+1030298713+1030918828
2618+1031416137+1031506859+1031372160+1031344155+1031467030+1031483625
2609+1031266917+1031062379+1031109814+1031246311+1031188089+1031009342
2601+1030988875+1031110298+1030992816+1030329415+1029267724+1028315493
2592+1027880832+1028026111+1028686400+1029810463+1031127723+1032169915
2584+1032760296+1033128852+1033439740+1033650501+1033865204+1034312382
2575+1034906566+1035243730+1035093679+1034666279+1034409810+1034618843
2567+1035148029+1035521080+1035462927+1035224230+1035178800+1035215448
2558+1034868950+1034050174+1033248823+1032932750+1033181612+1033953298
2550+1035078536+1035895168+1035666083+1034619881+1033897220+1034216543
2541+1035083307+1035451518+1034756862+1033232920+1031632223+1030779012
2533+1031008928+1031837868+1032442771+1032564954+1032685409+1033326269
2524+1034474394+1035658546+1036389712+1036610984+1036769332+1037242093
2516+1037733248+1037501742+1036213939+1034451852+1033344454+1033580732
2507+1034710395+1035620030+1035802027+1035900977+1036817735+1038483222
2499+1039891481+1040396188+1040460427+1040744277+1041008144+1040597200
2490+1039545466+1038397410+1037299140+1036085048+1035030479+1034739229
2482+1035260048+1035861839+1035896413+1035627429+1035930434+1037172462
2473+1038616677+1039089923+1038161271+1036541698+1035418327+1035503033
2465+1036573782+1037755859+1038252062+1037850661+1036853484+1035795458
2456+1035239028+1035484017+1036376020+1037576560+1038845832+1039844875
2448+1040117316+1039712665+1039313684+1039218191+1038761195+1037405005
2439+1035875323+1035422061+1036263448+1037450642+1038087007+1038139213
2431+1038157537+1038569034+1039214388+1039560886+1039394310+1038968776
2422+1038434819+1037736913+1037107670+1036896217+1036912398+1036687599
2414+1036276932+1036173626+1036597569+1037323203+1038036114+1038541375
2405+1038711063+1038481493+1037997461+1037554778+1037211737+1036713875
2397+1036049298+1035704114+1036042384+1036757576+1037189956+1036958450
2388+1036186833+1035293792+1034619258+1034209075+1033934905+1033752494
2380+1033847019+1034652311+1036672663+1040130109+1044715835+1049621713
2371+1053841649+1056792796+1058870472+1061113272+1064057297+1066994407
2363+1068565716+1068165974+1066487902+1064541537+1062699723+1060784614
2354+1058238325+1054537688+1050487855+1048161871+1049002912+1052747735
2346+1057679475+1061673090+1063707549+1064130732+1063658316+1062904953
2337+1062098555+1060861644+1058848483+1056413591+1054265730+1052800494
2329+1051901092+1051020983+1049500290+1047138764+1044471744+1042356452
2320+1041274915+1040996251+1040807201+1040062759+1038588050+1036627026
2312+1034641731+1033188112+1032648623+1032972856+1033790733+1034670842
2303+1035333829+1035971507+1037192307+1039151326+1040938513+1041407817
2295+1040494447+1039166192+1038092469+1036823820+1034577217+1031703238
2286+1029838398+1030298852+1032690941+1035423928+1037292225+1038284354
2278+1039128991+1040464437+1042299059+1043911303+1044358688+1043437366
2269+1042085255+1041470603+1041659790+1041644993+1040882019+1040236389
2261+1040863695+1042564033+1043984461+1044341262+1044155048+1044115357
2252+1044000918+1043229232+1042022262+1041308244+1041419364+1041613254
2244+1041328505+1041240480+1042386462+1044705532+1047062702+1048525310
2235+1049212222+1049833927+1050433851+1050046763+1048226524+1046217235
2227+1045455506+1045658315+1045717298+1045680857+1046329323+1047507873
2218+1048454434+1049227503+1050438276+1052024866+1053413764+1054536512
2210+1055743136+1056918644+1057617657+1057990155+1058610684+1059314330
2201+1059268969+1058538909+1058393423+1059499368+1060803767+1060702466
2193+1058477506+1054408589+1049576698+1045846397+1044987239+1047209709
2184+1050893405+1053895791+1055040667+1054721482+1054533885+1056020211
2176+1059127839+1061896990+1062148203+1059597765+1056218941+1054513555
2167+1055262423+1056784360+1056666809+1054323123+1051332354+1049605049
2159+1050210643+1053444189+1058347578+1062159128+1061985637+1057600716
2150+1051687081+1047408508+1046558201+1048925329+1052078318+1053049771
2142+1051491186+1049814358+1049934329+1051622082+1053778863+1055449121
2133+1055826114+1054748242+1052989682+1051465463+1050615087+1050557971
2125+1051125534+1051653544+1051347082+1050088044+1048525725+1047260049
2116+1046280920+1045445272+1045122837+1045886502+1047676248+1049607261
2108+1050618682+1050273844+1049113202+1048212487+1048122387+1048359079
2099+1048269810+1048056075+1048251555+1048588926+1048372010+1047768629
2091+1047754868+1048809714+1050385102+1051715846+1052549005+1052928279
2082+1052850350+1052404486+1051794605+1051095178+1050457914+1050403011
2074+1051101885+1051717851+1051375986+1050226547+1048799826+1047270628
2065+1046108189+1046287696+1048016661+1050218871+1051839136+1052925997
2057+1054039618+1055246865+1056287397+1057330141+1058756447+1060351128
2048+1061532928+1062119921+1061936127+1060541007+1058603424+1058070850
2040+1059489273+1060995859+1061331225+1061374788+1061381426+1059731358
2031+1056155048+1053179907+1052885546+1054656276+1056847422+1058869296
2023+1061011901+1063140332+1064237219+1063733133+1062928533+1063635912
2014+1065716146+1067734493+1069185969+1070380009+1071140562+1071112073
2006+1070458975+1069215080+1067063762+1064340733+1062336215+1062190798
1997+1063576791+1064464092+1062679809+1058322892+1054348638+1053584766
1989+1055662234+1058274835+1060168440+1061590805+1062954186+1064199395
1980+1064900828+1064417970+1062760020+1061470903+1062365464+1065190971
1972+1067283790+1065867579+1061142798+1057022850+1057463596+1061948781
1963+1066696589+1069571743+1071228518+1072115058+1070977305+1066954509
1955+1061646607+1058160534+1058166896+1060170584+1061007683+1058910923
1946+1054517635+1049548832+1045996654+1045388778+1046556818+1045927645
1938+1041558904+1035229831+1030591484+1030058771+1033339476+1038473127
1929+1043859166+1048509959+1050834838+1049561486+1046278430+1044395820
1921+1044794594+1045729468+1046787978+1049366213+1053144572+1055424781
1912+1054361638+1051309743+1049755030+1051623811+1055487636+1058871786
1904+1060786135+1061604980+1061818991+1061477956+1060527523+1059546735
1895+1059661519+1060783092+1060746652+1058089796+1055002013+1055099373
1887+1058343913+1061778471+1063829525+1064868536+1065483119+1066104133
1878+1067020476+1067811869+1067784141+1066509130+1062933719+1055653521
1870+1046202783+1040930284+1044601810+1053721954+1061805369+1065857207
1861+1066768433+1066940472+1067887655+1069558467+1071140977+1072058357
1853+1072183998+1071102738+1067879634+1062134857+1054634079+1047245735
1844+1043827427+1047710061+1055999397+1062853508+1065945578+1066830458
1836+1067627729+1067875900+1065063186+1058190959+1050711133+1047659099
1827+1048778874+1050871486+1054068176+1059777203+1066123148+1069796473
1819+1069902268+1068194947+1066253630+1063378821+1058384226+1052702443
1810+1049926170+1051612194+1055592602+1058538840+1058032265+1053687588
1802+1048095627+1045225728+1046258447+1048559607+1048825272+1045279249
1793+1039337609+1037333091+1044360762+1055903351+1064319089+1066849543
1785+1065495704+1062990904+1060442402+1059210539+1060701706+1063113986
1776+1062451000+1056536950+1047309213+1041366536+1043989785+1052518995
1768+1062095374+1069997830+1073741823+1071811431+1066797890+1063773170
1759+1063581285+1064042084+1065128461+1066258816+1063392236+1053102047
1751+1038179595+1028110955+1028284584+1033826205+1038748610+1041611180
1742+1043049033+1043545997+1043944978+1043740509+1039135491+1026931782
1734+1012660908+1008472365+1014050358+1021052444+1024460588+1020689696
1725+1005673688+977033889+937045597+888558314+828243415+753007447+680080731
1715+636914764+620721312+614239354+609635304+605451049+601544075+599435214
1706+602279528+610386385+620231195+629241118+638021609+649174483+665477050
1696+688097004+712287851+731202397+743607947+752279324+759539607+764621604
1686+766379818+770348264+785257578+806879180+827205579+843224849+853620073
1676+858318993+859016208+856675218+851690995+849493833+858683470+876350732
1666+891282380+898692921+901672764+906547319+914422670+920343703+920101687
1656+911848860+896501152+886575508+894456321+904584152+906104153+904229771
1646+911265324+927748435+942510119+950196420+950565183+944058678+932550593
1636+924730215+932179271+948881994+961403713+965611685+963559248+959488326
1626+955957031+953092041+952807707+957508771+963752723+965732486+963159092
1616+963377045+970753910+978706637+981257005+978817757+975805760+976141955
1606+979597879+983340420+985813066+987691943+989798730+991539381+991944585
1596+991132309+989614106+985635426+973083283+943042831+890463466+822671783
1587+760042240+723988512+722413539+745805940+776158938+800156104+815501392
1577+829459166+849108819+869002563+881330668+886046737+888503964+892730399
1567+896007093+895542490+892667405+887671981+876604020+859535575+856326577
1557+874779701+894844654+908661989+916438942+919838995+921548599+921518727
1547+915210813+899056084+875641970+851892699+836598994+843194286+868203287
1537+890031432+901200625+906888286+915499712+927611108+935735182+936015990
1527+931501348+927233840+923485214+918935583+917624131+922506361+929092732
1517+935665274+945183016+956007025+961486206+956966101+942070271+921798775
1507+915029093+940329413+974222696+994572053+1001464748+999436028+993791239
1497+992145459+998975990+1007696461+1007681940+993775266+971018953+956422532
1487+961215424+977237321+992427995+1001108361+1002593235+998298551+989448428
1477+976863924+962627140+951417288+950992308+966019517+987707916+1003357938
1468+1008426521+1005534978+1001490609+999738687+994897876+978776407+944211425
1458+892418336+849807417+837439137+844359975+859194678+877928610+897251264
1448+910657379+910267526+894325909+868815796+840987166+813499502+785073714
1438+759497012+752263973+771827952+803858746+834450373+860966998+884489120
1428+904067136+917801840+926361474+932457105+936512539+936228135+933360518
1418+936586250+948860282+962589731+971417519+974741994+975263505+974661022
1408+971479061+964342344+955995961+950875172+948133541+942279512+929188709
1398+906482044+869057466+813588703+753809904+715417261+709325502+728703336
1388+762743419+801772842+838190356+868366060+891742972+909083236+921750441
1378+930397615+934567488+934955682+934738490+935656562+934720857+928871737
1368+919796470+911680071+906537155+905487357+912035490+927854231+947659950
1358+964663189+976660008+985316656+992921017+1000097355+1006197273+1011072451
1349+1015444165+1019784763+1023429944+1024486725+1020767764+1012332388
1340+1003861470+1001981141+1007776672+1015832290+1020957850+1021384560
1332+1017110966+1008110655+994197481+976172034+957066572+941571994+933363353
1322+933133230+939247877+948972992+958601094+964339302+964734687+961962286
1312+959841670+960282209+962026386+961731057+955449350+942052846+927428282
1302+921354294+926072299+931175456+924189965+903398548+876427210+849135994
1292+820314890+785913442+745249924+703293902+668435596+648413099+647303281
1282+663375795+687241165+703835188+700679848+676593690+642278538+612480794
1272+597386719+599185937+613849708+635183379+658111247+679673037+698482755
1262+714278470+727858906+740460490+752612477+763697862+772565480+778407616
1252+781262648+781925635+781442570+780739478+780746393+782661088+787645726
1242+795938589+806422944+817399354+827774733+837420121+846631886+855542029
1232+863983282+871635009+878158180+883349638+887430517+891147681+895313197
1222+900197433+905484799+910787861+916079375+921609518+927510637+933639044
1213+939763648+945709160+951336109+956484696+960719844+962669873+959023171
1203+944137229+912723231+866157834+816491377+780911448+769736239+780231313
1193+802020598+826272088+849335623+870616466+888523740+896518854+883853101
1183+845979064+796153361+760406025+756364421+780088592+814811093+846944294
1173+871735896+889651674+902489604+911906529+918985438+924357925+928583254
1163+932107081+934773064+935895121+935628972+936084585+939903672+947575590
1153+957075008+966084862+973714185+980191995+985883320+990988136+995757725
1143+1000488592+1005198507+1009576790+1013398228+1016704448+1019301145
1135+1020312704+1018668445+1013950302+1006382451+996073038+982641477+965724050
1125+945669469+922912188+895403780+857440889+804721293+743204333+691145442
1115+667690739+675573142+694877610+698208101+675907539+644560130+628627986
1105+637494152+662917623+692726569+720409643+744314635+764260516+780393187
1095+793054929+802380511+807791581+808284672+804154421+798542201+796237168
1085+800335680+810304956+823204012+836127339+847435173+856656618+864088179
1075+870336073+875796792+880577997+884846820+888842510+892543631+895612468
1065+897212403+895534884+888971193+879305268+872399574+873399170+881773558
1055+892683862+902155207+909288604+914746073+919175594+922928369+926151473
1045+928905204+931355585+933791169+936358271+938822619+940817249+942425344
1035+944224079+946632349+949537513+952632971+955825443+959297479+963376146
1026+968329875+974182867+980717862+987694985+995063415+1002931228+1011234947
1016+1018352856+1017561116+994830388+936499401+846301499+753065531+693769729
1006+685654091+716104380+758095184+791817880+813132675+827878523+842225183
996+857598130+871965258+883549682+892390055+899379625+905238841+910359768
986+914864038+918746879+922190703+925544704+928852860+931664191+933581513
976+934918965+936553059+938945633+941004155+939483255+930284421+912287878
966+890052384+870614876+857331152+848982141+844410314+844675011+850436590
956+860210109+871750555+883334218+893719278+902223248+908926478+914302215
946+918743353+922431267+925413323+927754866+929604908+931087639+932207621
936+932881049+933127076+933360241+934228389+935849207+937553624+938741371
926+939594168+940613817+941879148+943130234+944328422+945766138+947639897
916+949747721+951701208+953320021+954730907+956116485+957455804+958579451
907+959427753+960060176+960457705+960640255+960948100+961817975+963220633
897+964563755+965217752+965107738+964777490+964842419+965495863+966634032
887+968140549+969766622+971045506+971658706+971783102+971998773+972848666
877+974303460+975694432+976420135+976561957+976550824+976553037+976540729
867+976674391+977146876+977663270+977478162+975990798+972589639+965919738
857+955256636+943585916+936289054+933374555+924488268+895707407+842737428
847+777204864+721067789+694604339+705353737+744203584+792258972+833808338
837+864034659+885564156+899617769+901474657+884340868+848433939+806725465
827+779103862+777882786+799316307+829748134+857599721+878472040+892703984
817+902118213+908682111+913930892+918647514+923041563+927273392+931730918
807+936611143+941463778+945616710+948859452+951384651+953452300+955319491
798+957100731+958649359+959849829+960893335+962135086+963836668+966048006
788+968566982+970962805+972761678+973875714+974928900+976779633+979511721
778+982198379+983711327+983523108+982017489+980358502+979527418+979217983
768+978667015+978750476+981120646+983415238+976447241+948180838+891043476
758+806958768+709191079+619904127+560249829+537748221+543614593+562737826
748+584348537+604542036+623646806+643314714+664436103+686480542+708292507
738+728843429+747371578+763569525+777724024+790300299+801321516+810318578
728+816999473+821797828+825583586+829171928+833474148+839700192+848726779
718+860135499+872193721+883039027+891942739+899376237+905926997+911482517
708+915388522+916984931+915736680+910404023+898583184+879750855+859944099
698+849788816+854750082+869635678+884585304+892839375+889373079+866428615
688+818840734+755921532+701330734+675725889+681764404+707288762+739181261
679+771070234+800911402+827132560+848085021+863164506+873825534+883006459
669+892542248+900231246+903841577+905401960+907136456+909621204+912615776
659+915803131+918676833+920501152+921092364+921217659+921827817+923105732
649+924434333+925311677+926137436+927703420+930087005+932641453+934840690
639+936538193+937730296+938729685+940419858+942954599+942439934+930642190
629+903826088+873082475+858453001+868332178+891050045+910550892+922051647
619+929132631+934360322+937788380+939907821+941842569+944001216+946002207
609+947299207+947627796+947180827+946481192+946049850+946173555+946950220
599+948205870+949069177+948205662+945296488+942165764+941659466+944879044
589+949895490+953787942+955235546+954564123+952547297+950255817+948942153
579+948843272+949146000+949631968+950871369+952769053+954432259+955278141
569+955590203+956370533+958313026+960598351+961639851+961082522+960003890
560+959286139+958689741+957479798+955582044+953768512+952240766+949553071
550+943975631+935766299+927283626+920850140+916834328+914000386+911855568
540+911718379+914581156+919153674+923498767+927711995+933287982+940051509
530+945391565+947307989+947188986+948152142+950803673+952873535+952785165
520+951317508+950651756+952638365+957135651+962066284+965326106+966098415
510+964738214+962274072+959613137+956327178+950954138+942982880+932277944
500+914917213+883088122+833377273+775559499+730655025+717104599+737570677
490+778216216+821185526+856170372+881050828+898217670+911248314+921537328
480+928179916+931088054+931757402+930818793+927106816+919635978+908349235
470+891449095+864550776+825634202+780244036+739582801+713783581+707409424
460+718869244+743719690+776371014+808515487+833931421+853422588+870167906
450+883804283+891667256+894010804+894603121+896877245+902118628+910300716
441+919177046+924400658+923907913+921292200+922607801+929599653+938725398
431+945558003+947177093+941811452+929349062+913184307+898756813+887855913
421+879597624+880277067+899289111+927050806+947191752+956045886+958016175
411+957471569+955516354+952664986+950512355+948762369+944122985+933426208
401+915899868+894682364+880097837+883060878+899229229+916474623+929090866
391+937612054+943208578+944063933+939024323+934654406+940038440+951452899
381+958493501+959208970+955484408+944932426+928064924+918201513
##END=
