##TITLE=AJ-R34
##JCAMP-DX=4.24
##DATA TYPE=INFRARED SPECTRUM
##DATE=11/1/2021
##SAMPLING PROCEDURE=Diamant-ATR
##ORIGIN=Angelika Moesle
##XUNITS=1/CM
##YUNITS=TRANSMITTANCE
##RESOLUTION=4
##FIRSTX=3997.453
##LASTX=373.96442
##DELTAX=-1.4165319
##MAXY=0.95255011
##MINY=0.43856642
##XFACTOR=1
##YFACTOR=8.8713142e-010
##NPOINTS=2559
##FIRSTY=0.8854385
##XYDATA=(X++(Y..Y))
3997+998091689+997314121+996487910+995896923+995562932+995306945+995048741
3988+994914903+995015013+995255479+995430168+995427077+995374738+995599012
3978+996285136+997198827+997890528+998120177+997909811+997380973+996772451
3968+996386456+996289974+996289974+996264039+996247847+996210557+996084781
3958+995968747+995946643+995792446+995242041+994562300+994470924+995279465
3948+996303210+996595007+996149215+995748707+995816499+996021759+996041445
3938+995931391+995672986+995136086+994578895+994575603+995193935+995746892
3928+995716053+995387974+995350886+995634285+995720891+995485800+995465710
3918+996014637+996727905+997032267+996914890+996699283+996563093+996463520
3908+996325046+996227959+996342716+996636664+996914352+997405967+998594793
3898+1000093356+1000721698+999991633+998683280+998032160+998332088+998377104
3888+997293495+995871190+995332141+995622326+995962566+996546094+997652346
3878+998333499+997973303+997346170+997150720+997204403+997508564+998428771
3869+999253236+998965268+998199257+998271820+999184167+999763126+999401386
3859+998256232+996660986+995454826+996369323+999874927+1002506281+1002233900
3849+1000655115+999299125+998617771+998453093+998306355+997596446+996441147
3839+996025521+997274077+999259283+1000496551+1000858426+1000975333+1001044873
3829+1000945636+1000801652+1000603380+999955150+999059667+999064706+1000145426
3819+1000666671+1000350619+1000814216+1002357123+1003072676+1001847031
3810+999469850+997531676+997316271+998373207+998928852+998770893+999288241
3801+1000636101+1001337208+1001289236+1001589499+1002269980+1002459518
3792+1002023534+1001536421+1001282316+1001213717+1001467150+1002098315
3784+1002550020+1002318020+1001850659+1001919259+1002363103+1002377951
3775+1001766406+1000989040+1000590950+1000855873+1001474877+1001817133
3767+1001839170+1001868464+1001732073+1001143236+1000507503+1000443674
3758+1000788013+1000881404+1000571600+1000201596+1000397314+1001816125
3750+1003688522+1004117047+1003081410+1002513335+1003696719+1005062316
3741+1004909195+1003661983+1002265949+1001383837+1001472122+1002406372
3733+1003293994+1003424674+1002849612+1002004319+1001339157+1001072353
3724+1001038490+1000998916+1000969219+1001032174+1001144782+1001242809
3716+1001356693+1001725488+1002827910+1004807136+1006689275+1007295916
3707+1006552883+1005127690+1003795015+1003104658+1003077648+1003293523
3699+1003463711+1003516991+1003305886+1002747351+1002147228+1002160867
3690+1003305416+1005137567+1006285609+1006056364+1004917593+1003689731
3682+1002961009+1002692190+1002489416+1002626480+1003916357+1005596730
3673+1005903511+1005347597+1005610302+1006747998+1007277238+1006766877
3665+1005886848+1005182919+1004845299+1004856855+1005220880+1006053542
3656+1006995048+1006941298+1005396846+1003221968+1001907635+1002522876
3648+1004416101+1005945705+1006417970+1006040104+1005363453+1005024960
3639+1005384550+1006253762+1007116188+1007507021+1007174978+1006311544
3631+1005832762+1006826675+1008652242+1009330169+1008639678+1007529798
3622+1006573510+1006049914+1006176227+1006604081+1006630889+1006292798
3614+1006186373+1006474878+1006752029+1006733283+1006430467+1005825841
3605+1004988141+1004325196+1004321165+1004982094+1005719886+1006096542
3597+1006423278+1007210386+1008238296+1008708075+1008355136+1007772481
3588+1007669751+1008028266+1008293793+1008394979+1008678915+1009204326
3580+1009604633+1009565999+1009260563+1009087889+1009016939+1008526533
3571+1007354034+1006032176+1005527325+1006237503+1007338514+1007829188
3563+1007645227+1007242703+1006995317+1007050478+1007371100+1007837990
3554+1008349627+1008800660+1009015125+1008902517+1008656004+1008629868
3546+1008991340+1009513727+1009809153+1009751573+1009571912+1009574667
3537+1009830788+1010147243+1010239090+1009896901+1009170329+1008469961
3529+1008290300+1008740191+1009502574+1010183659+1010487148+1010270668
3520+1009705751+1009214807+1009098505+1009311222+1009640914+1010007425
3512+1010498771+1011079545+1011361197+1010998248+1010303993+1009985992
3503+1010246010+1010662240+1010997172+1011393985+1011754248+1011756532
3495+1011520500+1011547376+1011963807+1012369825+1012436139+1012251506
3486+1012083939+1012105641+1012387495+1012874004+1013312809+1013450478
3478+1013293526+1013009925+1012717590+1012492309+1012377618+1012290408
3469+1012156839+1012143468+1012480349+1013105601+1013712847+1014085741
3461+1014242423+1014341123+1014505061+1014719526+1014894483+1014979812
3452+1014965434+1014882658+1014856657+1014994930+1015202742+1015296470
3444+1015277791+1015298284+1015403164+1015455168+1015290356+1014940306
3435+1014726648+1014974168+1015540765+1015901633+1015837266+1015673126
3427+1015681189+1015709340+1015653709+1015847345+1016530714+1017191039
3418+1017032408+1016087744+1015220480+1014967181+1015050763+1015191052
3410+1015607214+1016375510+1017052430+1017318898+1017400598+1017595242
3401+1017903501+1018280292+1018777215+1019245986+1019290464+1018777349
3393+1018154314+1017963634+1018209744+1018510344+1018637396+1018578204
3384+1018297089+1017780950+1017170210+1016602337+1016043668+1015325428
3376+1014220386+1012515623+1010167131+1007309623+1003985292+999955284+994907042
3366+988723791+981409564+972922838+963346724+953101552+942695128+932362477
3356+922190809+912462111+903590800+895812975+889186754+883861697+880083577
3346+877826932+876643683+876093748+876209379+877328934+879523229+882389539
3336+885472127+888739953+892470302+896691997+900971406+904773579+907910321
3326+910647563+913458913+916632004+920111674+923718464+927327874+930797264
3316+933980836+936867303+939497715+941887528+944191071+946610983+948980706
3306+950910079+952494373+954331295+956716606+959300323+961599700+963412837
3296+964734628+965704824+966659432+967912892+969453716+971025379+972444795
3286+973690663+974783611+975760458+976713118+977673639+978479963+978935766
3276+979129537+979399297+979937137+980636229+981384234+982250288+983263551
3267+984268752+985111425+985746150+986111586+986181663+986195706+986528757
3257+987220861+987895026+988279409+988607153+989294755+990326361+991185629
3247+991471313+991451156+991786626+992690843+993637523+994048647+993988648
3237+993978906+994354353+995029257+995745952+996329950+996755184+997114707
3227+997536312+998028465+998379791+998378985+998172852+998116280+998212157
3217+998154039+997994535+998121453+998512286+998737433+998759673+998988112
3207+999508416+999894748+999821714+999449761+999216954+999389090+999738468
3197+999750159+999281253+998758732+998570404+998623885+998713917+998939401
3187+999481810+1000215504+1000819591+1001175688+1001460095+1001870950
3179+1002405767+1002931514+1003387452+1003865966+1004451644+1004986528
3170+1005155842+1004935734+1004712938+1004720060+1004680957+1004332318
3162+1003891295+1003622409+1003352111+1002795996+1002047453+1001464328
3153+1001281241+1001435706+1001645333+1001694985+1001671939+1001802754
3145+1002113768+1002405633+1002442519+1002095694+1001504372+1001100908
3136+1001231387+1001774267+1002324537+1002605383+1002531745+1002112491
3128+1001541258+1001166282+1001169507+1001436512+1001813504+1002250160
3119+1002633804+1002769389+1002644890+1002491970+1002484377+1002558015
3111+1002612572+1002703679+1002924325+1003241184+1003563283+1003860658
3102+1004150305+1004474958+1004897101+1005380586+1005690323+1005536261
3094+1004772534+1003473520+1001985775+1000815291+1000167867+999663083+998760882
3084+997378958+995898133+994715623+993968962+993609640+993595195+993897608
3074+994301476+994408909+993983743+993158607+992249418+991477494+990734730
3064+989441561+986958156+983457523+980104368+978101291+977795854+978827526
3054+980772083+983381601+986395120+989361473+991694915+993005082+993428904
3044+993489911+993575509+993733938+993947999+994291935+994721267+994983300
3034+994931364+994827357+995178011+996205451+997519918+998448793+998707199
3024+998583304+998421649+998172852+997648651+996988192+996580898+996645264
3014+997167718+998134017+999460511+1000764161+1001623698+1002082593+1002518509
3004+1003041770+1003407743+1003504023+1003547427+1003772104+1004176307
2996+1004602683+1004947492+1005285381+1005777936+1006441822+1007119212
2987+1007679090+1008053059+1008089139+1007684465+1007107588+1006863494
2979+1007128282+1007527110+1007546259+1007026358+1006206663+1005374069
2970+1004559279+1003610785+1002499159+1001405135+1000481770+999693385+998968426
2961+998375626+998031623+997941927+998031354+998277934+998725944+999377803
2951+1000102964+1000656929+1000833634+1000671240+1000467728+1000493192
2942+1000671039+1000625687+1000103703+999246853+998341427+997426258+996329077
2932+995032280+993808651+992970278+992561842+992336023+992058872+991792472
2922+991749001+991958561+992289059+992692859+993223443+993910508+994767559
2912+995806085+996989401+998251999+999515874+1000669560+1001678456+1002666793
2902+1003691142+1004534285+1004954412+1005021332+1005009238+1005077635
2894+1005230488+1005450059+1005696437+1005855673+1005881137+1005946578
2885+1006264042+1006745243+1007029784+1006884322+1006405742+1005808776
2877+1005209660+1004702054+1004440759+1004460580+1004519437+1004331243
2868+1003926300+1003606216+1003537483+1003533922+1003274912+1002672773
2860+1001969985+1001465067+1001208409+1001059386+1000976140+1001100975
2851+1001563766+1002315735+1003180513+1004034608+1004941378+1006073362
2843+1007441513+1008744693+1009578765+1009803308+1009678607+1009660130
2834+1010025902+1010629788+1011054484+1011106353+1011058717+1011240125
2826+1011530982+1011570287+1011365497+1011325521+1011655616+1012071913
2817+1012242839+1012230208+1012289602+1012462074+1012618488+1012720815
2809+1012792908+1012799895+1012765294+1012832549+1013062534+1013378183
2800+1013765590+1014297921+1014931168+1015477340+1015796954+1015896325
2792+1015848352+1015718276+1015602847+1015670842+1016003019+1016383976
2783+1016465811+1016196588+1015884836+1015794400+1015887859+1016005908
2775+1016092917+1016167966+1016245703+1016396338+1016723074+1017137624
2766+1017328774+1017155832+1016890977+1016831919+1016890372+1016840922
2758+1016758616+1016884930+1017207701+1017481157+1017580326+1017578580
2749+1017524896+1017372312+1017101813+1016748740+1016334794+1015917758
2741+1015639935+1015605871+1015739508+1015851645+1015851510+1015857826
2732+1016061876+1016472462+1016907035+1017232897+1017435133+1017479544
2724+1017361562+1017242505+1017282549+1017432445+1017589195+1017772753
2715+1017980499+1018079332+1017988091+1017815350+1017728207+1017772283
2707+1017874610+1017969816+1018044193+1018057899+1017948517+1017763347
2698+1017675801+1017814880+1018151223+1018538697+1018814773+1018940414
2690+1019065922+1019335547+1019669136+1019873254+1019912424+1019917665
2681+1019987944+1020108815+1020243997+1020409549+1020625424+1020846204
2673+1021022573+1021198874+1021426171+1021596963+1021540861+1021309667
2664+1021184160+1021338289+1021642315+1021853756+1021858862+1021684778
2656+1021432420+1021266197+1021320014+1021543011+1021746793+1021851405
2647+1021987931+1022308821+1022750045+1023033310+1022913984+1022386020
2639+1021671676+1021083647+1020846137+1020920514+1021074039+1021202301
2630+1021395802+1021634521+1021725427+1021611409+1021438870+1021312758
2622+1021255245+1021320417+1021528566+1021826209+1022220603+1022749306
2614+1023244818+1023375028+1023054004+1022636363+1022565882+1022941531
2605+1023559056+1024229929+1024871239+1025392014+1025675212+1025655123
2597+1025380995+1025027989+1024781879+1024743649+1025013880+1025651562
2588+1026420596+1026928538+1027130774+1027317221+1027656789+1028164530
2580+1028859859+1029555994+1029872921+1029793034+1029781410+1030148996
2571+1030669771+1030947392+1030910640+1030879935+1031206201+1031881441
2563+1032588058+1033102920+1033405468+1033405064+1032939720+1032176060
2554+1031647425+1031646014+1031897767+1032120160+1032481161+1033059986
2546+1033326118+1032791436+1031815328+1031159370+1031045621+1031149292
2537+1031196391+1031116034+1030850104+1030401355+1029953613+1029731355
2529+1029836370+1030248972+1030763364+1030987235+1030728829+1030308702
2520+1030165390+1030332957+1030606413+1030892903+1031061209+1030818660
2512+1030075560+1029185519+1028653995+1028784340+1029559555+1030650421
2503+1031620012+1032283561+1032777393+1033238035+1033623493+1033918516
2495+1034244579+1034613979+1034821590+1034743048+1034504731+1034236987
2486+1033921741+1033548242+1033177230+1032902968+1032915734+1033399286
2478+1034216629+1034961610+1035397123+1035606616+1035745897+1035866230
2469+1035916487+1035818527+1035577658+1035294527+1035086177+1035081138
2461+1035312466+1035456921+1034984320+1033801272+1032482774+1031740547
2452+1031873983+1032685883+1033629808+1034104694+1033860331+1033156469
2444+1032497824+1032234715+1032347323+1032568237+1032718738+1032847269
2435+1033027266+1033200275+1033271226+1033199469+1032998577+1032793855
2427+1032806150+1033115887+1033540784+1033888550+1034180482+1034477319
2418+1034699980+1034821658+1035036861+1035488499+1035971313+1036112340
2410+1035768203+1035134956+1034567888+1034374387+1034672366+1035298894
2401+1035867507+1036057448+1035902646+1035675954+1035511007+1035376228
2393+1035370718+1035676491+1036217288+1036727447+1037159063+1037707721
2384+1038469163+1039300145+1039979417+1040369443+1040488433+1040552867
2376+1040903320+1041748949+1042939588+1044146756+1045292044+1046461923
2367+1047313464+1047157588+1045853871+1043995315+1042098797+1040336185
2359+1039052759+1038741745+1039330917+1040016370+1040021678+1039340861
2350+1038552275+1038178037+1038460563+1039371365+1040448591+1040915884
2342+1040442074+1039488473+1038691354+1038249861+1038130535+1038558255
2333+1039788267+1041402796+1042365601+1042059223+1040880140+1039635011
2325+1038809471+1038455994+1038384305+1038421057+1038632498+1039185522
2316+1039954490+1040475869+1040397864+1039916999+1039680900+1040186961
2308+1041244366+1042109547+1042227932+1041750158+1041217290+1040926097
2299+1040843052+1040995905+1041527363+1042301974+1042864472+1043004828
2291+1043075510+1043517473+1044256609+1044817965+1044956776+1044922779
2282+1045013214+1045129852+1045040492+1044886833+1045024367+1045440866
2274+1045774119+1045892907+1046065984+1046539995+1047253600+1047976073
2265+1048589836+1049283822+1050331687+1051419529+1051561900+1050222573
2257+1048191948+1046820237+1046695469+1047444548+1048383636+1049033076
2248+1049343619+1049641262+1050306558+1051494511+1052908349+1053721123
2240+1053288230+1052099338+1051230730+1050890691+1050545345+1050261274
2231+1050731993+1052096113+1053581708+1054201115+1053393581+1051211918
2223+1048106082+1044648920+1041590318+1039681236+1038921742+1038594268
2214+1038451627+1039021449+1040492666+1042286386+1043728376+1044432037
2206+1044368477+1044142188+1044739758+1046652939+1049486528+1052260656
2197+1053888757+1053859934+1052801117+1052044445+1052422176+1053509884
2189+1054057735+1053219295+1051384457+1049806948+1049691384+1051493704
2180+1054452667+1056876543+1057334968+1055636319+1052931327+1051157025
2172+1051755872+1054246332+1056314784+1055888005+1053143171+1050358831
2163+1049901078+1052414382+1056737666+1060930134+1063095672+1062101961
2155+1058647755+1055291039+1054432846+1056058058+1057929313+1058124226
2146+1056977191+1056232747+1056769177+1057777065+1057980712+1057101758
2138+1056074049+1055980255+1056843890+1057633551+1057439243+1056282870
2129+1054842626+1053820293+1053518954+1053709970+1053987121+1054300284
2121+1054875347+1055645121+1056191695+1056349655+1056442441+1056751842
2112+1057080594+1056984447+1056198817+1054893891+1053774672+1053684102
2104+1054699314+1055882227+1056285624+1055915888+1055431462+1055252003
2095+1055343513+1055660843+1056318211+1057245742+1058055560+1058429528
2087+1058384580+1058067922+1057608826+1057158465+1056774149+1056391244
2078+1056053960+1055856965+1055663463+1055394979+1055488102+1056415163
2070+1057839416+1058880427+1059169806+1059057737+1058852544+1058502898
2061+1058071080+1057908149+1058227024+1058831918+1059199369+1058759086
2053+1057476667+1056159915+1055766328+1056455005+1057568177+1058376181
2044+1058740878+1059379030+1061185919+1063895748+1066077680+1066706359
2036+1065951971+1064510922+1063025662+1062064403+1062075892+1063150431
2027+1064549421+1064814612+1063356967+1061606650+1061363698+1062383748
2019+1062875967+1062209193+1061756950+1062588402+1063744239+1063842333
2010+1063233609+1063258738+1064187613+1065237225+1066034075+1066855718
2002+1067996706+1069431104+1070615092+1070823106+1070083836+1069101076
1993+1068196322+1067304333+1066756952+1066973096+1067780360+1068717903
1985+1069367544+1069240357+1068045216+1066054433+1063814988+1061761586
1976+1059917274+1057586721+1054277239+1051237382+1050644783+1052910499
1968+1055964600+1057602914+1057747637+1057842305+1058824057+1060315699
1959+1061302960+1061000480+1059092070+1055906952+1052707188+1051156555
1951+1052045050+1054765763+1058046288+1060813159+1062509053+1063232266
1942+1063653266+1064281004+1064843906+1064683192+1063382095+1061033267
1934+1058358443+1056426383+1055802475+1056175234+1057008770+1058145793
1925+1059633404+1061351134+1063021564+1064490026+1065708012+1066347104
1917+1065982542+1064929168+1064106181+1064005668+1064497417+1065413123
1908+1066581860+1067401151+1067146710+1065699344+1063624913+1061726447
1900+1060571282+1060238298+1060410636+1060677507+1060748189+1060542862
1891+1060204301+1059982043+1060005156+1060110775+1059949524+1059313320
1883+1058486504+1058224874+1059151397+1061119739+1063310674+1064983724
1874+1065987447+1066629563+1067351029+1068431211+1069651481+1070495027
1866+1070903463+1071170200+1071334071+1071297656+1071209841+1071264801
1857+1071359603+1071235103+1070742145+1069936157+1069092879+1068578420
1849+1068613425+1069144144+1069854926+1070357762+1070616436+1070990405
1840+1071675588+1072541239+1073321629+1073741823+1073615173+1072881950
1832+1071583742+1070027196+1068827553+1068340709+1068402455+1068752572
1823+1069266829+1069900009+1070592786+1071105766+1071011636+1070044397
1815+1068331504+1066228316+1064100537+1062141333+1060285464+1058532595
1806+1057265092+1057041692+1058206867+1060614484+1063525945+1066087960
1798+1068015653+1069469535+1070611195+1071480474+1071918205+1071702061
1789+1070992420+1070206185+1069638581+1069397644+1069345170+1069119351
1781+1068475488+1067499917+1066367731+1065134091+1063830441+1062529479
1772+1061332254+1060311265+1059419948+1058640230+1058059725+1057627908
1764+1057076092+1056147754+1054813735+1053381891+1052405849+1052296669
1755+1052917419+1053904076+1055104525+1056254852+1056832132+1056546180
1747+1055267927+1052789426+1049155089+1044568899+1038897420+1031922224
1738+1023669178+1013164256+997076880+972271248+942189404+912355013+883370418
1728+856154749+833897627+818732004+810494747+806975369+804406299+798637330
1718+785367217+762340792+733711822+705970004+682550193+665085193+654186549
1708+650149084+654358080+666827245+683452932+702424221+728435879+762125051
1698+792523754+815255022+835581562+853346893+865857579+875282117+884457252
1689+892986978+899848089+906586313+915037833+922686186+926390130+927135649
1679+926898408+927184830+929187505+932869680+936989786+941560792+948038192
1669+956051511+962797730+967444390+971603802+976567521+981883912+986282983
1659+989323982+991316310+993001386+996055353+1001937332+1007403417+1009516549
1649+1010241643+1011939687+1014916051+1017448033+1018856228+1019685127
1640+1020087516+1019975111+1019795383+1020464979+1022003384+1023181930
1632+1023563827+1023674082+1023984626+1024503788+1025063128+1025782780
1623+1026805987+1027781625+1028183141+1027646442+1025103307+1017846794
1615+1003519813+983280416+962045694+948267438+949638141+965044701+985129633
1605+1001602265+1011629076+1015197300+1012725921+1005634355+997063779+990610701
1595+987873593+986827206+982675521+970511525+947683439+915122758+877719498
1585+843517883+821241277+816165151+826818625+847478821+874426342+904831562
1575+928882135+938594036+940538526+946884842+964285409+986737779+1004286160
1565+1015216046+1021813779+1025267313+1025592503+1021322970+1010622532
1557+995208514+975664245+950502113+919659364+883394874+842786944+803173600
1547+771650370+752110938+745173300+748789227+759562296+773679651+785593641
1537+794387282+805242253+823226684+846952470+868811704+885789658+900819427
1527+915873719+929492673+940218576+949502018+958868707+966639074+970859559
1517+972179872+972094140+971809330+972344080+974223061+977453396+982740492
1507+991463922+1000759189+1005356734+1005393553+1001590843+990701673+964671874
1497+916106862+853518625+800636310+773679718+777639783+811635130+862306153
1487+908511990+941656670+964935991+982295573+995306273+1003345863+1004290258
1477+996044267+978962843+958877508+947038635+950460255+962111404+971502616
1468+974889768+972286768+965352489+957651864+951895728+947699363+940823134
1458+920318613+877859652+827361169+787995950+769469311+775482777+801540997
1448+834410743+860768016+876736469+886483442+895086068+905218364+918113702
1438+934761360+953406519+968502871+977811374+984063224+989865988+995584835
1428+1000349880+1003878933+1006689813+1009203251+1011522046+1013987243
1419+1017086763+1020405585+1022979895+1024908596+1026915907+1029288384
1411+1031781465+1034014191+1035829479+1037380246+1038819213+1039984792
1402+1040700546+1041158500+1041690361+1042428556+1043309392+1044124316
1394+1044442451+1043927992+1042784048+1041555380+1040754229+1040691946
1385+1041407163+1042729357+1044356854+1045884643+1046949507+1047438770
1377+1047547884+1047678363+1048188723+1049121562+1050313277+1051705615
1368+1053267268+1054776648+1055960031+1056707901+1056998355+1056759636
1360+1055888005+1054296723+1051861828+1048337545+1043377923+1036763326
1351+1028734284+1020191523+1012459655+1006577609+1002720140+1000343900
1343+998939871+998668095+1000093624+1003091757+1006405003+1008754032+1009979072
1333+1011166621+1013999135+1019460988+1026808943+1034046576+1039424174
1324+1042336374+1043110381+1042385489+1040776737+1038932828+1037572471
1316+1037128157+1037390795+1037719345+1037699457+1037598809+1038071679
1307+1039378419+1040993150+1042011520+1041759564+1039817292+1035568722
1299+1027982652+1016021563+999438003+979117980+956263624+930866669+901060498
1289+864706849+822595318+780111094+744788380+721764575+711811738+713369291
1279+725419673+747656302+778480440+814226305+850622887+884307960+913137082
1269+936105188+953325221+965678755+974334795+980511394+985204951+988823028
1259+991282716+992585895+993087051+993180779+992953280+992124851+990168670
1249+986522844+980876158+973363726+964508943+954857445+944346544+931757919
1239+914983410+892539573+865719911+839756158+822404974+820135764+834444673
1230+861170137+893150380+923903231+949754108+969717026+984280779+994373770
1220+1000853454+1004390167+1005654848+1005541636+1005047333+1004844694
1211+1004936339+1004644877+1002935209+998869592+991944115+982229124+970267364
1201+956541850+940654492+921041288+895973891+865341038+831538050+798294940
1191+768361514+742224483+718659478+696092149+674042638+654406657+641207360
1181+637657479+642286736+647906749+645591381+631578302+611122560+594522471
1171+588255908+590238359+593545355+593458884+590500258+587497422+584396356
1162+576593739+559577286+535275061+512088929+497901329+494364650+498167495
1152+505434993+513531255+520563763+525517842+528923403+532420072+537501673
1142+544804243+554189207+565076630+576763591+588662799+600341764+611437941
1132+621695677+631110942+639964851+648676792+657618180+667012818+676932666
1122+687287691+697802757+708121635+718001506+727394532+736405661+745206961
1112+753847750+762113696+769717974+776596218+782800230+787913107+790469613
1102+788324768+780465243+768721777+757122496+749474344+747906578+752924048
1092+763460548+776995315+790761344+803151562+813827141+822966801+830836808
1082+837753819+844012320+849633005+853822584+854625683+850094251+840955935
1072+831798941+828178176+832081534+840905074+850726760+859450929+866845378
1062+873146813+878495453+883030513+886902158+890290452+893464753+896641740
1052+899772906+902584592+904822089+906220944+905939628+902383229+894746096
1043+885230989+878656772+878696413+884739710+893025007+900136326+904328727
1033+904262547+898877558+889667753+881557952+879548021+884468674+892937326
1023+901099534+907429591+912378731+916773368+920994391+925029908+928791499
1013+932314975+935690033+938922787+941985488+944900644+947634392+949920130
1003+951259390+951286802+950430692+950075334+951517392+954671267+958215840
993+960951738+962519102+962899856+961965136+959936930+958045653+958092550
983+960900810+965414773+969782669+973071592+975389244+976762837+976916899
973+976174874+975525166+975307006+974682157+973216382+972242827+973499378
963+976863686+980568033+983265097+984875191+985733855+985666600+983840831
953+979659046+974307046+970799762+971374690+975175183+979494637+982887836
943+985990245+989679743+993749324+997509034+1000663043+1003265640+1005406991
933+1007125326+1008327992+1008846751+1008738243+1008402302+1008337533
925+1008752486+1009117922+1007677209+1000971504+984508949+956773313+924480108
915+900567942+892345668+892468555+885067051+860331227+821721067+781913549
905+754742359+748592299+763232041+791448812+824106646+854613925+880321356
895+901327436+918527379+932519496+943619838+952180068+958727948+963936568
885+968361507+972207621+975518581+978475125+981314896+984052474+986388334
875+987751445+987025949+981877596+969255108+948833094+926763427+913511992
866+915488598+929475540+946458197+959677920+967928211+973146036+977402266
856+981863285+986756525+991669652+996041445+999152790+999723553+996455323
846+989658982+982028097+977244643+977692317+983271009+991786962+1000340944
836+1006928599+1011168032+1013686240+1015199786+1016252086+1017224431
827+1018167752+1018800059+1018755916+1017743392+1015608558+1012616271
819+1009866733+1009059737+1011119925+1015032689+1018702905+1020933750
810+1021999957+1022652152+1023290842+1023925635+1024482355+1025163306
802+1026411526+1028373552+1030629929+1032630789+1034274411+1035927372
793+1037871593+1039949518+1041938486+1043923222+1045999467+1047975670
785+1049503056+1050156729+1049503997+1047344908+1043487171+1037009503
776+1025649412+1004993448+967679011+905761176+818565176+720495191+638224949
766+595802001+600319592+639224842+686568375+714070735+707400505+675871497
756+640012420+610806843+589144604+580291300+594807282+634832624+689465726
747+744840921+791774069+822190980+825966614+800067697+760514217+736096999
737+744861144+780511670+823396334+858154535+876946768+873788324+847368431
727+810499988+786973146+792060089+819826498+852832165+879398125+898429682
717+912933301+924926438+935221531+944249188+952283537+959359314+965346644
707+970275628+974137262+976327190+976017050+973135286+968423186+962245512
697+952922496+935443453+901511666+843108910+761686649+677009865+621146818
687+615682278+654864141+714001397+770517512+814514542+846009150+868569088
677+885177037+897060120+904451278+907918720+909093839+910425103+914352179
667+920829511+927195312+932741015+938197089+943686824+948817372+953287663
657+956988852+959974421+962461387+964652188+966483937+967546717+967501433
647+966532984+964905823+962421007+958936096+954754983+949907969+943728279
637+935535165+925131160+912320882+896385015+876385479+851671021+821741895
628+786399360+747013716+706957803+669858098+638243426+614331663+600946927
618+600599296+612892159+632483191+650464666+659472772+659291767+657401968
608+662397267+676860439+697105144+718078234+736954587+753270201+767698032
598+781084918+793947603+806378672+818136852+828786631+838088617+846433241
588+854664451+863295430+871912501+879526790+885708629+891121098+896593029
578+901917213+905846976+907076786+905405819+902409231+900551548+900174489
568+896634954+882362731+854720620+822324550+801219905+802194065+821688078
558+845217473+857874428+852916083+835742007+820917834+820940946+836160790
548+857326509+876503663+892076647+904975009+915137607+922174684+926694895
538+930077747+933472693+936972586+939228694+937132830+925200498+896029523
528+844856068+778898350+722305371+700723490+716985420+751610253+783407610
518+803891168+817005405+829931986+846006059+864322601+882049567+896781895
509+908127003+917096878+924339416+929765457+933320848+934763711+931930256
499+920029839+895277755+861588718+832480026+822272143+834209246+859071047
489+885304493+907103527+923439902+933969078+935584682+920210709+878173286
479+809096429+730633332+670631970+648105693+663704545+703005129+747745864
469+787551904+820228014+846101936+866028976+881265617+892792402+901705839
459+910017608+919302662+928579184+935815809+940696082+944237901+947378607
449+950472214+953302175+955320975+956437439+957519436+959386794+961348887
439+961405661+957748816+949848910+938552715+925708709+914554616+909443217
429+912549388+921279806+931173652+939979588+947724827+955129758+963220881
419+972092393+978942351+981732067+982515345+983753823+985364186+984893803
409+980833225+975504472+972903152+974093523+976601855+977958382+978041023
399+978378307+980010708+981825391+982268429+980997701+977112753+969854896
390+962099579+959500207+964435843+972719258+978638795+981779703+984611881
380+987843762+991403856+995434602+997950392+996591379
##END=
