##TITLE=X7605
##JCAMP-DX=4.24
##DATA TYPE=INFRARED SPECTRUM
##DATE=29/10/2018
##SAMPLING PROCEDURE=Diamant-ATR
##ORIGIN=ComPlat
##XUNITS=1/CM
##YUNITS=TRANSMITTANCE
##RESOLUTION=4
##FIRSTX=3997.453
##LASTX=373.96442
##DELTAX=-1.4165319
##MAXY=0.85109234
##MINY=0.45160076
##XFACTOR=1
##YFACTOR=7.9264151e-010
##NPOINTS=2559
##FIRSTY=0.69896942
##XYDATA=(X++(Y..Y))
3997+881822887+882062542+882536587+882681191+882506959+882185189+881645496
3988+880958567+880646197+881078959+881903725+882550949+882925132+883141099
3978+883107486+882830158+882611258+882622537+882703299+882710969+882664272
3968+882530796+882211207+881745434+881383734+881420581+881936586+882709691
3958+883375866+883604015+883237126+882425219+881544055+880970900+880964057
3948+881443967+881895002+882065474+882543204+883893224+885482974+886255102
3938+886083276+885343859+884138669+882737439+882009452+882416120+883143505
3928+883312098+883136662+883268108+883653946+883567394+882706006+881618952
3918+881082794+881308010+881827023+882270463+882824818+883671617+884279138
3908+883779225+882159396+880588821+880263442+881056926+882212861+883660187
3898+885176319+885824521+885158422+883896232+883378422+884171154+885005997
3888+884713478+883903526+883426323+882718264+881382832+880953304+882507786
3878+884206497+884187998+883038831+881807697+880681089+880163655+881374334
3869+883758696+885363485+885819408+885966795+885987399+885453046+884283048
3859+882565538+880422259+878755507+879783983+884462996+888548926+889317595
3849+888454703+887401638+886509495+885811963+885225197+884463221+883542503
3839+883265250+884299065+885802714+886492801+886230888+885592387+884992311
3829+884658659+884779351+884968022+884416373+883450612+883695380+885267533
3819+885880769+885430712+886107414+888128422+889311504+888605399+886550553
3809+884238757+883083874+883290140+882960400+881367416+880457602+881649783
3799+883520320+885169777+887211915+889160432+889829614+889493557+889241344
3789+889343237+889374745+889207054+888968678+888485835+887655881+887007453
3779+887127318+887691449+887893580+887563689+887073777+886896687+887306739
3769+887819811+887592264+886902853+886685081+886846154+886677561+886335714
3759+886491748+886927367+886754263+885724283+884261316+883284350+883823291
3750+884843871+884097912+882271891+882106231+884507212+886362409+885512076
3740+882805117+879475372+876927531+877053713+880228400+884105056+886480845
3730+886989180+886339774+885606073+885544035+886026050+886583565+887097389
3720+887507140+887624448+887258011+886234874+884846052+884373135+886060641
3710+888820614+890486013+890526695+889281951+887387350+886123431+886537093
3700+887949151+888984244+889307669+889202994+888842572+888415450+888444627
3690+889472953+890857940+891049994+890016330+888858364+888061872+887250566
3680+885839861+883873823+882689087+884325234+887775896+889056058+887925990
3670+887394344+889265633+891895665+893312085+893273358+892227662+890777854
3660+889452273+888687665+889104034+890678443+891664433+890506316+887736868
3650+885342205+885466656+887804696+889982115+891095037+891475161+891612847
3640+891943716+892557102+892916772+892342413+890744016+888513358+886065529
3631+884265001+884777396+887543761+889558452+889689371+889077639+888845054
3621+889577627+891156023+892457766+892550033+891842876+891185274+890903209
3611+891001041+891825280+893568809+895185028+895351892+894260024+893114541
3601+892521007+891967178+890948478+889811943+889162161+889065232+888992666
3591+888564417+888223697+888976273+890958629+892821647+893630847+893491957
3581+892765023+892011469+891803247+892042075+892168256+892052301+891894838
3571+891602169+891187681+891459444+893106946+894912663+895254060+894456590
3561+893677845+893419542+893479625+893511133+893222525+892471527+891564119
3551+891061725+891115115+891567804+892418663+893474511+894124067+894265890
3541+894555701+895272408+895849624+895733368+895064336+894287321+893667844
3531+893362166+893372619+893351639+892926246+892310530+892242777+893197785
3521+894710006+895703365+895624633+894994553+894660526+894737979+894660300
3512+894119405+893491882+893255461+893368332+893530533+893729356+894111058
3502+894493813+894466516+893968860+893407886+893236286+893541738+894022776
3492+894292735+894190542+893922312+893904641+894267394+894579463+894364774
3482+893786581+893467443+893657993+894052554+894400343+894829344+895489052
3472+896134021+896261856+895614331+894453432+893383222+892872706+892843153
3462+892775551+892401443+892108248+892380012+893135671+893906596+894329732
3452+894270326+893871103+893590391+893748381+894019543+893832602+893193348
3442+892657566+892636511+892950460+893068671+892775551+892431071+892407083
3432+892568983+892625005+892683283+893072054+893779362+894340486+894306797
3422+893799139+893431950+893541362+893811321+893887421+893886142+894050148
3412+894316798+894437641+894328078+894215056+894411397+894902136+895331964
3403+895484089+895456792+895277070+894782421+894062856+893624831+893818164
3393+894333718+894578110+894411698+894149559+893953294+893667468+893217637
3383+892874511+893100028+894079174+895307375+895975053+895947756+895802701
3373+895805934+895615684+895089603+894618491+894544346+894711134+894689327
3363+894380791+894368309+895323693+896972999+898161570+898169767+897479980
3353+896993753+896978112+897087976+897063762+897032330+897196335+897484191
3343+897604959+897412002+897113092+896987963+896978940+896865241+896781697
3333+897122868+897916803+898711189+899112969+899152899+899139138+899355631
3323+899843136+900302743+900249203+899459780+898303318+897482838+897445164
3313+898120287+899074769+899725377+899619800+898831580+898034035+897948912
3303+898647948+899440078+899594759+899133272+898632081+898390020+898265944
3293+898178715+898233008+898460330+898791800+899167637+899505349+899691914
3284+899687628+899654992+899940968+900686852+901436496+901562452+901123599
3274+900779044+900837999+900975159+900879057+900630304+900388995+900184232
3264+900147536+900523298+901202707+901637574+901504399+901091189+900789046
3254+900594359+900364857+900205438+900349140+900826945+901367615+901581853
3244+901350996+901125253+901555157+902611456+903417649+903324705+902768469
3234+902562653+902789975+902914277+902565436+901835719+901163830+901080285
3224+901717283+902531522+902800277+902383382+901826019+901696829+901984009
3214+902258479+902294349+902239003+902234115+902244117+902279159+902454670
3204+902747038+902893673+902689361+902360598+902409100+903017974+903847252
3194+904483197+904785491+904815946+904680365+904372281+903758293+902977443
3184+902627474+903066777+903816045+904136461+903854170+903230031+902440081
3174+901654042+901266098+901562677+902363230+903350798+904482896+905714856
3165+906674301+907011035+906769501+906215747+905627477+905215320+904887007
3155+904353481+903730621+903554508+904022312+904773158+905440837+905895030
3145+906053847+905862544+905307361+904386117+903375012+902934956+903453367
3135+904447854+905063346+905024769+904772858+904793311+905112825+905376468
3125+905237804+904650511+903865149+903214465+902897583+902922624+903260937
3115+903930044+904758194+905261115+905124932+904699991+904676830+905332101
3105+906310496+907049913+907305283+907302275+907353034+907459814+907523732
3095+907676759+907977925+908038835+907392738+906076556+904580728+903361476
3085+902519941+901905277+901471463+901380624+901712847+902303824+902983609
3075+903774385+904782558+905961805+906937492+907090369+905843369+902770349
3065+897705046+891242049+884928543+880387668+878297028+878236118+878930792
3055+878555256+875636766+870158480+863596973+857930166+854681785+854454388
3046+856887327+860944607+865411714+869438163+872810920+875678200+878125126
3036+880210428+882173533+884231237+886293603+888095936+889492429+890550758
3026+891499825+892534543+893603024+894547354+895371518+896063786+896339385
3016+895998891+895340386+894742266+893969687+892316470+889402793+885623368
3006+881886279+879075171+877714849+877951345+879583506+882021258+884424344
2996+886070417+886609508+886159300+885349875+885036226+885658861+886953461
2986+888362963+889528900+890366148+890895238+891102858+890988483+890812069
2976+891090375+892079748+893409090+894437039+894833179+894719556+894457267
2966+894395530+894724293+895460627+896438345+897309132+897791148+897955980
2956+898069829+898235038+898384681+898487025+898591324+898782250+899113570
2946+899471360+899577915+899280283+898785333+898481084+898533948+898815563
2936+899270884+900052110+901075698+901838502+902021382+901935732+902108912
2927+902774936+903843116+905037628+906088212+906955465+907699844+908088841
2917+907639160+906114306+903843718+901569896+899978793+899295022+899359842
2907+900011504+901158491+902561225+903824091+904620959+904876781+904810306
2897+904761503+904891519+905113728+905319017+905507161+905702374+905878035
2887+905984289+905978800+905819080+905466254+904967845+904524781+904344082
2877+904414166+904553807+904659761+904796169+905085679+905541677+905939772
2867+905934358+905467983+904971830+904971454+905575967+906474501+907282724
2857+907764740+907917240+908003642+908310147+908754263+908975795+908862924
2847+908657184+908525062+908367072+908040865+907528244+906979678+906702124
2837+906908842+907438834+907919421+908188628+908400459+908743961+909172737
2827+909465932+909551131+909605725+909767023+909935616+909953438+909798005
2817+909581586+909483754+909609184+909881549+910193994+910566974+911014549
2808+911448815+911824877+912157325+912352087+912234403+911766599+911144791
2798+910704811+910700976+911097793+911603120+911912633+911927372+911824201
2788+911912031+912307420+912782217+913006681+912857564+912458040+912025053
2778+911698546+911459042+911210063+910903934+910562161+910260770+910110676
2768+910202492+910590586+911267363+912035581+912528801+912541133+912235681
2758+911919325+911765171+911751334+911684183+911352637+910820164+910445831
2748+910511478+910962062+911565221+912144016+912575875+912752965+912721156
2738+912751235+913049318+913460122+913663005+913567128+913280475+912848992
2728+912325617+911934215+911870823+912062276+912308548+912558203+912922159
2718+913474184+914086291+914481680+914522286+914397985+914426409+914728327
2708+915174925+915534595+915597986+915288849+914725921+914122386+913639769
2698+913365599+913353266+913583070+913871377+913930407+913686541+913489298
2689+913717448+914212999+914497020+914526798+914743216+915320658+915888399
2679+916097749+916015859+915837716+915596858+915299678+915070175+915037840
2669+915223804+915521736+915717099+915654008+915451126+915359610+915429318
2659+915550988+915711234+915965552+916350713+916977634+917849399+918525349
2649+918514145+918048898+917870604+918226665+918663863+918780945+918644612
2639+918458799+918278100+918101160+917990845+918095219+918619947+919614885
2629+920737884+921487528+921728461+921680109+921429776+920911215+920344000
2619+920128634+920232407+920205336+919881611+919566684+919481184+919521264
2609+919650002+920049000+920738712+921408195+921740793+921656948+921233661
2599+920640504+920196989+920277525+920992278+921979019+922669557+922821381
2589+922645720+922403208+922140092+921892241+921838700+922089634+922489835
2580+922772803+922880411+923020354+923332649+923672993+923959044+924450384
2570+925288911+926124656+926719618+927440386+928512853+929276408+928879215
2560+927381356+925603312+924263594+923676828+923831058+924385564+924944056
2550+925434494+925852366+925855825+925270713+924739744+925088435+926210682
2540+927225021+927556792+927387071+927229006+927395117+927782384+928097913
2530+928256429+928358096+928383137+928302074+928284102+928297788+927855025
2520+926768948+925795893+925850712+926838130+927800808+928059713+927812463
2510+927722377+928197926+929074728+929896562+930400986+930568602+930291950
2500+929460341+928494956+928239811+928982461+930000334+930386248+929959577
2490+929145790+928432617+928267408+929023820+930619360+932364242+933447462
2480+933480098+932629163+931498870+930728095+930355717+929806926+928858611
2470+928229584+928711299+929992589+930896463+930761032+930159302+930032218
2461+930426478+930583340+930168626+929737444+929836780+930325187+930787276
2451+931034074+930993167+930607629+930025074+929547044+929308969+929247156
2441+929297087+929402213+929455378+929452746+929568701+929886184+930245854
2431+930510624+930733209+930930301+931007755+930983466+930951657+930826153
2421+930538372+930418056+930830214+931483830+931692954+931329901+930940227
2411+930919172+931121604+931294483+931407129+931539927+931758376+932041269
2401+932169481+931896063+931310575+930771033+930443473+930203217+929991461
2391+930003944+930438961+931092803+931283203+930433246+928762584+927011084
2381+925463069+923773983+921820578+920048399+918735977+917513266+915931938
2371+914089675+912373443+910771962+908881422+906836427+905708164+906203565
2361+907463123+908122003+908144863+908641392+910238511+912455784+914398962
2351+915521886+915764624+915319906+914482808+913613901+912999011+912691002
2342+912630994+912726646+912873581+913296868+914454533+916168058+917486345
2332+917851279+917667195+917324445+916569538+915323515+914281354+914297596
2322+915583849+917671707+919854540+921549716+922544053+922953954+922913648
2312+922586840+922448627+923010503+924181177+925299439+925829656+925882370
2302+926142252+927306986+929418606+931739126+933306166+933587856+932818961
2292+931914636+931800863+932592166+933650871+934460372+935053830+935622549
2282+936203675+936783072+937351640+937849748+938214155+938371619+938211523
2272+937792974+937394352+937092660+936701633+936461151+937171467+939088476
2262+941219798+942325051+942279556+941876348+941517280+940876597+939943396
2252+939415585+939702840+940618218+942372801+945474246+949222164+951835577
2242+952646958+952817581+953411792+953972088+953550606+952330527+951513130
2232+951904608+953058439+953501878+951331679+944872441+933245256+916602549
2223+896465942+876036667+859152802+848339630+844195271+846228686+853288075
2213+863358823+873916399+883127188+890873430+898237896+905630410+912026707
2203+916419895+918791623+919314471+918276671+916988087+917044786+918594681
2193+920401827+921302618+921009047+919963726+918874641+918408567+919229573
2183+921753953+925497359+929299569+932162187+933138551+931202215+926623967
2173+921832459+919503743+920098631+921921418+923221808+923761425+924451662
2163+926306784+929794895+934004826+936571240+936332338+935033753+934448416
2153+934446084+934498046+934813951+935619616+936474386+936705092+936142916
2143+935242727+934232674+932558402+930200209+929060516+931288467+936263382
2133+940975707+943391426+943729815+942852035+941331316+939870530+939189166
2123+939454913+940395032+941588341+942515150+943069581+943884947+945168192
2113+945691266+944301692+941989670+940960292+941921541+943467075+943968191
2104+943287052+942573127+942748187+943527308+944043238+944022860+943873292
2094+943941496+944308384+945029904+945993485+946703349+946663795+945857753
2084+944524502+942784808+941041355+940367284+941540741+943846672+945816019
2074+946951877+947683623+948152931+948291520+948504329+949185167+950086033
2064+950771232+951006374+950418180+948631939+946157340+944601053+945286553
2054+947325458+947793788+944963580+940878703+939427617+942117055+947201156
2044+952366923+956311858+958301583+957895216+955308122+951856106+949794943
2034+950562484+953026555+954868743+955312784+954933413+954157525+953703031
2024+954752036+956882230+957446136+954847763+951023820+949212087+950645727
2014+954386501+958517099+960663536+959691909+957415305+956345696+956118149
2004+954677440+951944012+949775317+949460239+950758824+952419335+953100850
1994+952523860+951714660+951630589+951839262+951066984+948528166+944421632
1985+939710058+935559082+933009963+933169382+936947604+943568592+949986697
1975+953536469+954351610+953816204+952261496+949652218+947373885+947329894
1965+949336464+951349425+952202616+952518370+953082051+953529250+952809610
1955+950307940+946635145+943620929+943055519+945043440+947872519+949787875
1945+950563311+950957271+951186773+950877636+950215673+949799380+949522127
1935+948548620+946371803+943350895+940396912+938478324+937950738+938131287
1925+938053458+937488424+936711409+935817912+935135345+935586304+937493914
1915+939680205+940931717+941447496+942339414+944225216+946616120+948711423
1905+950241616+951288967+951895209+952138097+952178929+952090045+951911602
1895+951807228+951883328+952012968+952035527+952007479+952331730+953582039
1885+955749907+957686092+957919580+956305541+954079771+952305561+951199557
1875+950739348+950945239+951636605+952558150+953585949+954523737+955122685
1866+955513486+956036409+956751011+957404101+957717374+957603675+957196105
1856+956773194+956541210+956367353+955856462+954854906+953759580+953209961
1846+953615125+954899198+956409013+957551638+958418816+959326901+960185280
1836+960461330+959796584+958461227+957152791+956570913+956934267+957893110
1826+959018440+959888851+960093088+959648896+959004604+958596056+958539959
1816+958596883+958493186+958305192+958332790+958613878+958890454+959079576
1806+959258546+959325321+959175002+959058446+959337278+959895093+960241377
1796+960134146+959792899+959728605+960262808+960966431+961246993+961122992
1786+960831602+960358008+959565352+958496495+957229793+955646886+953631594
1776+951348749+949260439+948057956+948222639+949348120+950799205+952407379
1766+953780184+954371838+954313334+954237911+954368529+954477265+954612545
1756+954868367+954953415+954700225+954417483+954513735+955088319+955881277
1747+956535570+956813049+956748680+956661375+956820117+957007434+956742814
1737+956112584+955941585+956901932+958139006+958631098+958719906+958734420
1727+958500555+958086744+957934394+958102836+958168559+958164047+959047768
1717+961504544+964214586+965873744+966846799+967662541+968235546+968345109
1707+968242088+968396845+968676805+968695228+968740873+969271166+969789051
1697+969985692+970388751+970741201+970317840+969225371+967910768+966366588
1687+964357687+962287576+961475969+962394431+963604434+964388744+964978142
1677+965745682+966987494+968420532+969286882+969601659+970394240+972158072
1667+973640064+973861596+973299044+972861846+972836278+972754990+972243196
1657+971273750+970230986+970749172+975010087+979727150+981087021+980994829
1647+982178813+985336807+988043540+988796568+988332148+987618599+987283895
1638+988072266+990929920+995021566+997839290+998986654+999527098+1000270801
1628+1001261001+1002035761+1002609668+1003528356+1004678050+1005239099
1619+1005005610+1004583828+1004706776+1005439951+1006610475+1008671337
1611+1012175389+1016790785+1021255485+1024592073+1026911990+1029036545
1602+1031754708+1035270792+1039392666+1044271329+1050386839+1057683100
1594+1065130659+1071102542+1073741823+1070901389+1059544689+1034765765
1585+989930546+920312643+830992248+740418536+669517764+631484156+633919126
1575+668967770+709702621+744010870+778014870+815824465+849737626+871543692
1565+881325606+881415768+873109154+854050126+818656928+783294561+780594520
1555+802018207+830589340+857556134+878985761+894931087+906006698+912620467
1545+916504943+919824912+923934529+930970607+942509134+953242447+959347580
1536+963287702+968330746+975510526+982626163+987940369+992053596+995558024
1526+997339528+994977951+985427495+966985463+942432283+913320706+877529487
1516+838866401+806316269+782846985+765945223+753816396+746745427+747323018
1506+756036903+766157581+774789726+783665134+794462214+808121911+824848839
1496+842055827+855513620+864542356+871746801+879881063+889341056+897963876
1486+904206997+908351581+911658390+915570765+920828422+927435423+935415831
1476+945025543+957079849+972905385+990699966+1005001249+1013194240+1014473650
1466+1004376358+975628135+928016173+869559080+804787580+734455150+671943484
1456+648557293+663702668+690218578+716374818+741040720+765570665+790615487
1446+813809473+832641178+847397330+858724928+866373038+871419917+877426467
1436+887990284+901888884+915117174+925572255+928873801+914512736+872952292
1426+805890050+729882542+673082125+654947425+671381383+706297830+742616558
1417+769798944+788735850+802941106+811928032+813044714+806965600+799659939
1407+798010407+804446710+815337937+825605175+833754702+840490216+845882402
1397+849575350+851959787+853643308+854642081+854873313+854906099+855982852
1387+859026545+863397399+867697040+871262679+874111085+876414083+878290335
1377+879841810+881323877+883016722+884764838+886149675+887106337+887830038
1367+888390485+888849114+889547924+890930656+893009114+895292711+897338383
1357+899082288+900829953+902949394+905416172+907854977+910008106+911912708
1347+913690452+915318026+916593450+917343621+917735249+918309833+919466220
1337+920951144+922288757+923385513+924357816+925154157+925621961+925772356
1327+925703926+925251237+923837525+920684118+915250198+907801887+899742297
1317+892973320+888540880+886183063+885014644+884125434+882843843+881159645
1307+880072967+881105954+885079314+891449894+898890760+906255000+912947726
1298+918673112+923051335+925542402+925838454+924279611+921619951+918190720
1288+913218212+904995668+892296693+876465142+862065275+854325048+855197414
1278+862306208+871583472+879824965+884806422+885045851+881207772+876917981
1268+876298730+880585362+887910725+895826162+903046098+909213269+914286993
1258+918452407+922044741+925314478+928322077+930980082+933174645+934931183
1248+936433930+937765452+938640149+938331237+935368156+927086131+910862199
1238+887791161+864874503+851143443+850555323+859616921+871795303+882718564
1228+891272955+897935151+903363431+907877686+911416856+913925594+915772595
1218+917593427+919798142+922403885+925185439+927720798+929439361+929952057
1208+929315736+927831413+925730095+923189999+920414610+917510935+914515142
1198+911642223+909274630+907669013+906877184+906900570+907713756+909181009
1188+911023498+912859219+914423928+915824481+917355051+919112265+921119436
1179+923701944+927268259+931625201+935684888+937774626+936014929+928663774
1169+915221397+898248574+883410607+875995082+877012880+883475653+891931534
1159+900268829+906326062+906384340+895975655+872926198+840980278+810483939
1149+793197091+794397243+809966656+831141214+851171116+867638386+880633413
1139+890720178+898442207+904403638+909124310+912881402+915794327+917980318
1129+919471183+919912216+918505422+914517248+908040038+900353878+893520532
1119+889464004+888964467+890757476+891565548+888472300+882370024+877996313
1109+879326857+885748121+893541061+899818772+904023214+906833870+908934512
1099+910461697+910819637+908937445+903998399+896144774+886646505+877552723
1089+871244557+869847613+874139434+882711721+892765173+902009501+909572788
1079+915410068+919640904+922461035+924044769+924433540+923905503+923397995
1069+924090940+926395668+929638785+932901152+935852578+938532541+940758387
1060+942236769+943007318+943373680+943545581+943539641+943228849+942281136
1050+939951217+935016157+926683674+916454185+908560630+907084203+912343289
1040+920911365+929026301+935054206+939080204+941602779+942946859+943227721
1030+942702392+942167211+942560193+944147988+946557692+949256830+951016000
1020+949177572+941457648+929779329+920736681+919954778+926605168+935288522
1010+942115626+946812461+950313354+952947673+954660521+955540482+955954444
1000+956346824+957013676+958209992+960184603+962923671+964716981+958421899
990+931866510+881420581+826502206+798631989+810802476+846445029+880685525
980+902274271+913264157+918868851+922883043+927219381+931817030+935610292
970+937755450+937869901+936018990+932757224+928877185+925069786+921815164
960+919722192+919900034+923212032+928973588+935237388+940461206+944294849
950+947058056+949183136+951044500+952878717+954675485+956150785+957054959
941+957564572+958076291+958717726+959407738+960153922+960978312+961843159
931+962795234+963900111+965010401+965852764+966381477+966871840+967548091
921+968190352+968326610+967852565+967286930+967350472+968343981+969942755
911+971575818+972923883+973991688+974899547+975768755+976653378+977497770
901+978230344+978722136+978567605+977237361+974635754+971349399+968296832
891+966142650+964977164+964632384+965297129+967497859+971309243+975891853
881+980096821+983386109+985909586+987892017+989478233+991089264+993231264
871+995864078+998450947+1000626335+1002517627+1004587512+1007278529+1010616094
861+1014252494+1017935592+1021540032+1024643959+1026540139+1026539161
853+1023898150+1017822194+1007831682+993238558+971130574+935596982+882011483
843+814758014+749529613+704447069+687751273+694896387+715970181+742941412
833+770798995+796473370+818900944+838561024+855984958+871291856+884801610
823+897064289+908388879+918869152+928648208+937813728+946141925+953155293
813+958592597+962899232+967119315+972099042+977714264+982906650+986618548
803+988793033+990411659+992631263+996047109+1000649345+1006253513+1012817350
793+1020157151+1027518533+1033893023+1038677388+1041539254+1041708674
785+1037688015+1027710963+1010593686+985592027+950578726+901735180+837739492
775+763977381+690731049+628421852+585903692+569741498+580678445+611403684
765+650672674+689740397+724363122+753113149+776156816+794769922+810280681
755+823272775+833909083+842573863+850101958+857520490+865350202+873185930
745+880212608+885687737+888247910+884406447+867759304+832079528+779818106
735+727807317+698262076+700378961+723841928+751047474+771143099+782100725
725+785786981+784860022+782227960+780904935+783526921+791323396+803389583
715+817360523+830873511+842555665+851907750+858569721+862330948+863817753
705+864084779+863161429+859814840+853057219+843459764+833007841+824027156
696+818195967+816306104+818652792+825181362+835014937+846246809+856822357
686+865819811+873619820+880747488+886999858+891997407+896085669+900050531
676+904091869+907494104+909303656+909257335+908507315+910098343+915903965
666+922493746+927008903+930209007+933443928+936126147+933358202+915775227
656+877360894+827423751+789359388+781497341+801570406+833074315+861820357
646+883029055+897888829+908818407+917391747+924107935+929076383+932769782
636+935969961+938831752+940080030+936385427+920855117+884808979+828818439
626+773101241+746276796+757898717+790664440+822083752+844023595+860077430
616+874123718+886425048+896186057+903222586+907688264+910024575+911350757
606+913206330+916453809+920525903+924073645+926385742+927949398+929600810
596+931504209+933136821+933929779+933857363+933692831+934394424+935991393
586+937609342+938670378+939509131+940716201+942351520+943847574+944493069
577+944214237+944021130+945316933+948638180+953132734+957059471+959185604
567+960105871+961581095+964412130+967698486+970235574+971597250+971381508
557+968559196+962312165+952565444+939225411+922014211+901696153+880605440
547+861268709+844692777+829993249+815975235+803894083+798137190+802641068
537+816694575+835112318+850464485+852738081+830962921+783077541+725013580
527+684805487+681897525+710164108+748188241+780948926+804373242+820044246
517+831629321+841828280+850516221+856514573+860038252+862698062+865874103
507+869914238+874805759+880365334+885263774+887702879+888131806+888945367
497+891253554+894198964+896792375+898988667+901421983+905039959+910263101
487+915844032+919390797+919842282+918901788+918981722+920625690+922694598
477+923877530+923679610+922661436+921943450+922315979+923992431+926960326
467+930368877+932077138+930434675+925923428+919665268+910722633+896371945
458+877266446+861354133+856675120+863492373+875812503+886444600+892549056
448+896519257+901768793+909379756+918022804+925369372+929748723+931383216
438+932005550+933447838+936231724+939288727+941329887+942355882+943730116
428+946319616+948849485+949114631+946716208+943217645+940679204+942736832
418+951938071+962704922+967599300+963907555+953102955+939435287+924507760
408+903006018+869659469+831138657+803341833+793946810+794443264+792164103
398+788737580+798138167+820295331+843489768+863517564+881808224+896271933
388+902162227+900812056+902180274+914039894+930905185+942085773+943172075
378+934898397+920876624+910575396+913429366
##END=
