##TITLE=X8020
##JCAMP-DX=4.24
##DATA TYPE=INFRARED SPECTRUM
##DATE=30/10/2018
##SAMPLING PROCEDURE=Diamant-ATR
##ORIGIN=ComPlat
##XUNITS=1/CM
##YUNITS=TRANSMITTANCE
##RESOLUTION=4
##FIRSTX=3997.453
##LASTX=373.96442
##DELTAX=-1.4165319
##MAXY=0.94302541
##MINY=0.38913912
##XFACTOR=1
##YFACTOR=8.7826085e-010
##NPOINTS=2559
##FIRSTY=0.76887262
##XYDATA=(X++(Y..Y))
3997+875449037+875943785+876347185+876404532+876217288+875942156+875647886
3988+875507199+875793460+876529339+877388259+878036590+878316811+878156374
3978+877688230+877345436+877404819+877621110+877669635+877624843+877644795
3968+877569192+877160906+876507621+875967742+875806762+875961702+876218034
3958+876507350+876782346+876749973+876145756+875241433+874756458+875157753
3948+876040156+876509115+876408740+876611661+877732954+879047464+879516694
3938+879095514+878214536+877073358+876060244+875989867+877020490+878026478
3928+878049417+877445539+877131045+877299761+877242278+876467919+875369090
3918+874807765+875356195+876734839+878120066+879037488+879555717+879628742
3908+878803755+876964228+874986322+874120615+874638234+875934352+877706351
3898+879564133+880562452+880201197+879081940+878477995+879059476+879789111
3888+879543637+878844475+878694829+878727812+878008357+877176108+877472075
3878+878372394+878532695+877834483+876681835+875225077+874229880+875071088
3869+877295621+878718786+878861577+878977493+879618562+879983210+879505632
3859+878290004+876477285+874478001+873781281+876139716+879872587+882217041
3849+883078405+882936564+881987652+880493567+878698086+876703077+875049913
3839+874962161+876907017+879445706+881148073+881953379+882187994+881981137
3829+881622869+881511024+881415536+880546978+878950550+878051656+878723197
3819+879519069+879691383+880567474+882515383+883826907+883348718+881343190
3809+878873997+877706690+878625537+879603088+878856894+877589077+877923795
3799+879682085+881770750+884050120+885986424+886640184+886080555+885113727
3789+884268719+883697756+883530397+883734540+883826975+883402672+882857567
3779+882996219+883793720+884305367+884028946+883308134+882786443+882849152
3769+883074401+882688172+882055722+882255929+883143489+883492256+882861096
3759+881942656+881355745+880878439+879970722+878405309+876844240+876993683
3750+878876643+879624670+878302966+876987778+877681376+879027647+878656755
3740+876417087+873293727+870768612+870400910+872218787+874652554+876592726
3730+877726303+878042494+877885043+877761526+877873913+878243855+879015906
3720+880145615+881269555+881932205+881635831+880160952+878329163+878024849
3710+879908488+882118363+882943215+882165259+880606022+879645166+880132109
3700+881314482+882025657+882140827+882068413+882040995+882120060+882454575
3690+883368603+884812059+885841800+885787914+884927297+883762705+882581689
3680+881402234+880142289+879258801+880078562+882446499+883576411+882718508
3670+882123996+883846317+886685248+888436208+888680188+888030026+887119119
3660+886112860+884963741+884214018+884567468+885111623+884033629+881181124
3650+878616239+879082280+882061016+884549347+885762193+886252530+886434344
3640+886642084+887089597+887491843+887201238+885823680+883500129+880780575
3631+878812306+879454460+882640733+884918746+884718811+883205723+881816085
3621+881547129+882779385+884646329+885680617+885639490+885417362+885672948
3611+886141907+886518703+887156649+888113366+888614018+888235390+887416104
3601+886672489+886000405+885167477+884165086+883296461+882979863+883099104
3591+882967918+882437676+882513754+884058739+886097454+887287700+887496865
3581+887255124+887144637+887316747+887334867+886994584+886802793+886907918
3571+886487552+885091399+883898845+884570250+886452804+887500937+887492657
3561+887453430+887917842+888595287+888977377+888776627+888030433+887201374
3551+886840051+886895023+886907714+886786030+886813923+887105139+887664496
3541+888654467+889934297+890823961+890834345+890261007+889650410+889117114
3531+888512693+887777019+886981689+886362134+886295693+887041615+888462404
3521+889901178+890505191+890060325+889416338+889561030+890299895+890504513
3512+889650139+888476860+887996092+888270206+888613408+888724302+889045379
3502+889906404+890811474+891095563+890770278+890327652+890071862+889940540
3492+889803382+889690316+889789605+890256053+890913681+891291019+891139473
3482+890766953+890639907+890804687+891069095+891527467+892399893+893433706
3472+893969717+893682777+892836819+891811760+890794982+889934500+889420614
3462+889326483+889590756+890166129+891033194+892062799+892941741+893284942
3452+892958300+892289135+891709757+891131126+889988658+888042717+885705592
3442+883433484+881255642+879020928+876922762+875624201+875738692+877155070
3432+879045156+880624685+881773261+882827909+883933186+884792853+885089363
3422+885001543+885076807+885604606+886422264+887273244+887939763+888181436
3412+887970574+887625201+887466936+887603484+888050996+888688740+889154509
3403+889143379+888715479+888119813+887494150+886832993+886062299+885105786
3393+883984832+882886953+882106622+881839363+881953108+882039298+881818189
3383+881483131+881515571+882105944+882908263+883535216+884094641+884851761
3373+885620894+885964707+885795990+885451431+885406436+885907699+886610051
3363+886925835+887003542+887628866+888869672+889777525+889742981+889197333
3353+888702177+888303732+888052761+888283236+889032009+889758386+889930632
3343+889547457+888969640+888513033+888225414+887929651+887575455+887524012
3333+888209058+889508637+890710420+891154065+890872418+890572854+890910695
3323+891819633+892677264+892984429+892716491+892178987+891738057+891644605
3313+891955231+892454254+892664234+892256966+891572463+891388680+892086824
3303+893306388+894296359+894441798+893667575+892456969+891377889+890722229
3293+890631152+891166823+892130191+893132514+893917256+894435622+894689104
3284+894689647+894605221+894767829+895275540+895612226+895124129+893955465
3274+892973638+892646181+892550557+892092389+891157254+889938572+888631257
3264+887517768+886944091+886857832+886669842+885932742+884900558+884069055
3254+883457237+882744297+881901393+881310139+881314279+881842349+882424035
3244+882589426+882399738+882393223+882767508+882959571+882451792+881614996
3234+881183771+881278377+881472747+881453745+881211461+880928592+880948342
3224+881557784+882632793+883720763+884546429+885244099+885966539+886543270
3214+886841069+887188954+887952793+888927155+889658622+890111972+890537903
3204+890965192+891248806+891425735+891748169+892439052+893508563+894745908
3194+895815216+896412103+896501212+896404298+896403484+896359371+896116340
3184+896054039+896623101+897541880+898087596+898020068+897681685+897357757
3174+897089209+897009669+897348052+898110263+899081503+900043174+900775048
3165+901101690+901142478+901204780+901327483+901263009+900887367+900303578
3155+899691557+899313675+899438550+900069574+900891372+901487173+901548660
3145+901090764+900506092+900157054+900026207+900024239+900314505+900949194
3135+901523889+901597592+901210956+900751498+900552581+900729306+901108477
3125+901288120+900985571+900308804+899603534+899158057+899041801+899092973
3115+899101388+899038272+898960497+898817027+898636298+898752214+899424433
3105+900325499+900828731+900784821+900631917+900689332+900782513+900731681
3095+900786382+901229280+901832072+902102113+901976424+901957421+902507888
3085+903495620+904348500+904658379+904488577+904154537+903866172+903635832
3075+903496570+903684153+904398993+905374033+905949475+905701694+904883425
3065+904241406+904395057+905274405+906206215+906645244+906586947+906126471
3055+905055807+903293580+901395282+900214130+900112059+900713493+901455887
3046+902208664+903137826+904140557+904873042+905321572+905845707+906614772
3036+907464259+908332953+909364865+910515952+911390482+911560285+910937811
3026+909830634+908612020+907352076+905940652+904372864+902434524+899339464
3016+894416959+888113841+881755751+876387905+872198495+868873638+866178788
3006+864167559+862896824+862022701+860796554+858360615+853968963+847307916
2996+839046031+831033352+825608904+824284486+826780690+831376825+836437982
2986+841533548+846930578+852500396+857664575+862086428+865931211+869633677
2976+873610257+877931193+882133972+885580378+888053508+889873352+891491905
2966+893117108+894696569+896151902+897540590+898970745+900442230+901821959
2956+902922350+903576856+903631217+902799647+900522041+896086072+889033910
2946+879634646+869175374+859745095+853356669+850919509+851898690+854920114
2936+858784375+862960958+867168285+870857856+873549992+875481749+877408348
2927+879769497+882308797+884444086+885808071+886404008+886357248+885666908
2917+884283446+882345513+880289831+878712610+877994173+878028582+878506227
2907+879409058+880944541+883062524+885366530+887459742+889166114+890492568
2897+891566422+892581844+893686442+894870647+895981828+896887034+897620537
2887+898314949+898930025+899095076+898317799+896365547+893379006+889720517
2877+885959549+882932152+881450894+881839703+883841023+886845684+890117740
2867+893019787+895250633+896886898+898216814+899532409+900957881+902415929
2857+903771498+904986854+906129865+907233920+908130099+908540692+908467804
2847+908306688+908413375+908753862+909072224+909191805+909156854+909235036
2837+909682006+910414899+911106460+911618446+912098467+912664815+913277854
2827+913933650+914728640+915643755+916456254+916963626+917138654+917016833
2817+916681165+916422593+916594838+917204349+917919731+918515397+919050662
2808+919647685+920326080+921014723+921543540+921658099+921232915+920540403
2798+920164625+920483056+921308722+922153662+922691370+922867959+922827985
2788+922881803+923302577+924018706+924672262+925007998+925055573+924964089
2778+924839961+924763746+924810778+924955334+925062631+925105930+925298264
2768+925898749+926970160+928365702+929801897+930931741+931527882+931660358
2758+931613666+931625203+931716755+931753335+931667755+931599414+931752521
2748+932163250+932700143+933241244+933732803+934105934+934296503+934426672
2738+934817041+935613592+936496402+937004587+937090642+937063156+937064242
2728+936980019+936823858+936806824+936985381+937175272+937290713+937495060
2718+937925945+938498129+939042827+939487150+939841889+940144303+940452011
2708+940818898+941247205+941691596+942091127+942348884+942325674+941980368
2698+941534552+941367804+941669675+942270770+942886456+943440384+944031503
2689+944616514+944929311+944830294+944585906+944608845+944993784+945495998
2679+945877748+946053319+945951587+945531560+944982451+944652754+944674607
2669+944860155+945024460+945194195+945432678+945685753+945873133+945995972
2659+946133809+946380979+946780985+947348012+948118434+949008302+949693552
2649+949934954+949962168+950228680+950892145+951783031+952686811+953440539
2639+953921306+954100067+954050932+953959447+954149678+954888746+956064264
2629+957235847+958080923+958636547+959028952+959168079+958936857+958578318
2619+958522192+958791012+958988979+958976424+959072726+959453255+959850003
2609+960019942+960048785+960026660+959841588+959437306+958941879+958405665
2599+957675148+956661084+955541012+954493490+953392829+952072414+950776297
2589+949929864+949532165+949276986+949268910+950059896+951868136+954168952
2580+956204952+957676098+958788840+959737073+960429313+960890060+961521763
2570+962534470+963555252+964398428+965658984+967758982+969914835+970889468
2560+970464827+969458500+968642946+968301101+968502937+969133961+969779237
2550+970024033+969799530+969273291+968696764+968479726+968923574+969697254
2540+970043917+969671669+969052793+968773182+968918009+969150113+969225513
2530+969316930+969771093+970659129+971772889+972842875+973483944+973371013
2520+972902258+973165309+974760380+977089632+979100386+980327891+981087183
2510+982024897+983495907+985157826+986342710+986874989+987118359+987270109
2500+987219548+987101392+987349173+988148914+989290092+990463304+991340480
2490+991614322+991351950+991096160+991324667+992003470+992735819+993029682
2480+992438631+990876951+988818283+986760362+984536507+981598423+977923849
2470+974155824+970872637+968127905+965743478+963846536+963067970+964047082
2461+966599073+969706824+972572766+975202463+977733348+979923812+981625773
2451+983017176+984107861+984704545+984942010+985123961+985065256+984279699
2441+982699899+980637838+978243909+975522862+972682777+969979037+967285001
2431+964152751+960319573+956009835+951821376+948464554+946468459+945888131
2421+946378265+947683205+949809536+952631364+955726831+958749749+961622002
2411+964349632+966929787+969367830+971652629+973855106+976120700+978347880
2401+980154491+981391904+982348010+983329226+984405660+985575885+986840173
2391+988122039+989249712+989834247+989153070+986563006+982164091+976695463
2381+970680778+964095268+957034894+950201398+944259603+938958333+933365780
2371+926982376+920311489+914096462+908291554+902502730+897374453+894369316
2361+893995778+895478936+898331780+902982955+909763039+918477595+928631129
2351+938782830+946391838+949226765+946692623+940567588+934703432+932188225
2342+932907137+935098959+937560619+940041078+942673219+945226228+947162532
2332+948557328+950175405+952290063+954309639+955835486+957264826+959253455
2322+962139689+965945177+970398860+974691020+977743053+979179994+979769484
2312+980602751+982136741+984277731+986869695+989557419+991476825+991730782
2302+990286782+988073175+986095608+984717371+983793027+983172794+983050159
2292+984052821+986777261+990959341+995475733+999389943+1002494165+1004754193
2282+1006075489+1006759382+1007392850+1008193269+1009086870+1010264424
2274+1012082437+1014634563+1017796947+1021440980+1025429437+1029695332
2265+1034359945+1039396874+1044155278+1047663170+1049577146+1050499930
2257+1051264923+1052375493+1054183801+1056798839+1059618089+1061851242
2248+1063667422+1065845332+1068257653+1069848108+1070295417+1070602039
2240+1071621804+1072853109+1073268114+1072754363+1072040134+1071665238
2231+1071721636+1072105422+1072453713+1072446587+1072410890+1072873808
2223+1073575618+1073618781+1072356189+1069835621+1066886542+1064740598
2214+1063964000+1063872040+1063144442+1060731510+1056291740+1050197787
2206+1043133749+1035725626+1028726196+1023117898+1019710380+1018883356
2197+1020541339+1023917706+1027710979+1030732607+1032439386+1033121649
2189+1033666415+1034770606+1036560250+1039358190+1044077095+1050966852
2180+1058614477+1064928249+1068668721+1069769790+1068954643+1067594527
2172+1067314102+1068706862+1070480083+1070786161+1069436022+1068021816
2163+1068329388+1070907914+1073741823+1072744115+1066420366+1058201372
2155+1051474224+1046236884+1040898017+1034092957+1025059020+1014233268
2146+1003192038+993122184+984143016+976007159+968275923+960345362+952313205
2136+944731615+936584492+925017975+908010789+886102341+861424049+836405746
2126+813208101+793388385+778092322+768419081+764714579+765559383+768464891
2116+771571488+773771930+773587536+769418282+761129929+750381476+739199830
2106+728830549+719748970+711989908+705283120+699183738+693258706+687380162
2096+682018152+677890976+674938707+671956714+667476020+660699125+651610420
2087+640582899+627894749+613567144+597997442+582776440+570300441+562318540
2077+559100336+559935333+564000038+570507570+578407998+586608125+594633020
2067+602647939+610599470+617615120+622631756+625564751+627561320+630144869
2057+634206214+639522618+644808957+648488688+650108870+651051809+653533218
2047+658752166+666031478+673586396+679923786+684504244+687211446+687891809
2037+687328855+687943999+691552334+696641724+700184568+701728942+703115865
2027+705218986+707703992+710729013+714205891+716512747+716245285+714438131
2017+713543377+715002578+718616818+723212817+727132253+729240260+730235253
2007+731931920+734645298+736723579+737373403+738102698+740480067+743903941
1997+746390033+746920276+746449417+746790447+748693157+751209925+753188374
1987+754413775+754964581+754882191+754819414+756029069+759559019+765521106
1977+772278931+776815411+777671617+776453410+775110871+773670808+771734843
1968+770516637+771718623+774910257+777861236+779481078+780957518+783708697
1958+787258599+789795930+790158610+788878577+787581509+787515678+788704499
1948+790347754+791716422+792688544+793727651+795336430+797554381+800201385
1938+803088366+805704694+807513816+808630630+809500205+810301032+811193547
1928+812350945+813455475+814069669+814474833+815291676+816494613+817697482
1918+819003169+820753247+822649442+823946035+824499895+825092981+826510241
1908+828592798+830703452+832598221+834238695+835366367+835795896+835818156
1898+836006893+836717661+837839565+839049899+840287312+841722149+843359297
1888+845163804+847512466+850707697+854033368+856159020+856768599+856938740
1878+857708145+859130291+860712874+862031117+862915284+863481292+863945975
1868+864420634+865131334+866471972+868406987+870287708+871460377+871930964
1858+872281903+873048728+874373079+876083523+877839437+879271831+880255694
1849+881081292+882268484+884240622+886973884+889742709+891887635+893599640
1839+895323522+897018085+898176162+898471382+898178605+898042668+898875867
1829+900837621+903314755+905821818+908128742+909850859+910747106+911132046
1819+911706062+912981820+914733391+916322761+917579991+918899115+920576508
1809+922503311+924461468+926231770+927575598+928506526+929439489+930837339
1799+932682498+934443163+935616171+936262533+937201740+939394580+942511086
1789+945317101+947459381+949319199+951020481+952274454+953078470+954022496
1779+955792391+958591687+962079424+965813041+969656942+973546720+976981045
1769+979629000+981711624+983231634+983977353+984243594+984758702+985742905
1759+986609766+986851643+986323844+984913913+982398571+978366136+972371541
1749+964695752+956216829+946459569+933318816+914872789+889373650+854013280
1740+809552259+764273853+723285434+681328830+634611107+594453852+568929263
1730+552374341+539759080+529581929+521712075+517311634+517409090+521639017
1720+530389644+545894159+567603420+588668489+604684821+616926748+627070508
1710+635474167+642321576+648652722+655172334+660901436+665531029+671110755
1700+678905990+686481811+692850691+699609194+705783637+709522412+711243375
1690+711880032+711473375+710235215+710138505+714286992+721511399+727112979
1680+730529998+733236114+736464261+741132945+746581282+750861022+754112243
1670+758806310+765703396+771892498+775773318+778790806+782786253+787782530
1660+792155926+794946943+796200034+796492064+797993818+804071143+811138507
1650+813854939+814463567+816824852+822194667+827413411+830386922+831912836
1640+832882583+833701055+835198330+838921699+844384220+848419165+850243286
1630+851153378+852191263+853464374+854516511+855408551+856817395+858660314
1621+859897456+860407610+861668776+865096994+869390579+872580856+874795209
1611+876960699+879599899+882547348+885215120+887294283+889081213+891006997
1601+893056843+894886528+896379052+897837439+899629594+901731493+903800002
1591+905643464+907324318+908855797+910080587+910925052+911628423+912514897
1581+913503307+914244140+915044492+917308796+921353378+924750648+926215686
1571+927033819+929175080+932760748+936058526+938166261+938917274+937915494
1561+934931600+931503247+931936168+935890827+939675887+943122293+946797002
1551+950881626+955326757+959447622+962411767+964237041+965494746+966567854
1541+968326551+972300009+976759393+978696647+978061890+976499328+976079572
1531+977116711+978176653+978550598+978426945+977833994+976162573+972721122
1521+967758371+962268500+955950384+947836448+938316789+927906856+915565436
1511+900222206+881544143+857006811+822041221+784521943+757142694+735816948
1502+714811805+693833469+675920195+664734070+661075310+661580985+663188000
1492+665915629+671539876+680820644+691670965+701565994+709613760+715975040
1482+721028732+724942942+727821847+729904471+731482914+733132550+735740937
1472+738742884+739568686+736739460+730627523+722958317+717135899+715643850
1462+717161349+719627963+723540613+731955470+744507005+754618664+759994180
1452+762145214+762068186+760543764+759266174+759874056+762221768+765271493
1442+768636662+772743207+778979543+789673906+804908889+819408604+829461220
1432+836941281+844564067+852809528+860244526+866018216+870640819+874449972
1422+876779631+876927648+875097488+872445869+870062052+868115296+866639739
1412+866034300+866543029+867690654+868649678+868883140+867979156+865200422
1402+859347329+848500877+830460150+804815640+774121714+743705974+721885820
1392+714558730+719768855+732247365+747272979+758721951+759601775+747454047
1383+726300004+704620945+691148867+689249618+696080670+707103304+719012277
1373+729497678+737256265+742014804+743222221+739456842+730135964+718466832
1363+713029219+722015038+743471698+768421592+790265296+807184391+820174616
1353+830701348+839677937+847663402+855059648+862097694+868874792+875352666
1343+881462567+887387464+893507138+899774422+905458324+909964332+913418338
1333+916274304+918754967+920659713+921340415+919593391+913688312+901828475
1323+882863743+856899785+825848745+793755272+765490702+743997665+729551972
1313+721676112+720417932+725786932+736972921+752273395+769418282+786060345
1303+800189983+810377450+816003530+817344915+815312986+811001348+805267429
1293+798491145+790589020+781209099+769997524+756803700+741632851+724449755
1283+705379219+685397573+666637052+651510249+641288034+635598024+633265922
1273+633443732+635942719+640732681+647191960+653698881+657968034+657983372
1264+652779355+642527687+628225939+611376340+593521839+575745385+558559065
1254+542173776+526850431+513125447+501754250+493348114+487909245+484596910
1244+481983025+478695902+474008215+468071680+461772770+456234781+452246291
1234+450106013+449873298+451514450+454790307+459232079+464384110+470009748
1224+475985884+482128938+488298324+494565133+501074056+507778436+514417595
1214+520651624+526167522+530816152+534737590+538291293+541884935+545918727
1204+550748832+556502433+562916886+569513866+575982104+582274159+588335196
1194+593973967+599082359+603776018+608242799+612621897+617049654+621655019
1184+626474911+631436983+636416021+641307580+646112744+650950756+655950154
1174+661142905+666438406+671589555+676156846+679631145+681728972+682537739
1164+682289822+681095640+679058554+676525023+673961224+671618127+669512156
1154+667598044+665644502+663055117+659413527+655569830+653799256+656211984
1145+662852806+671618737+680083001+687248365+693683551+700404049+707863343
1135+715879348+724143337+732416828+740170528+746205843+748709513+745690056
1125+735623732+718275109+695579678+671969133+653111088+643117584+642286557
1115+647369838+653821041+657806579+656714740+648707762+632504457+607896408
1105+576493547+541799593+508293578+480029822+459550136+447532848+443079199
1095+444384547+449581607+457316101+466680141+476864147+487154873+497185567
1085+506921449+516391260+525554449+534358080+542783864+550866343+558706845
1075+566359457+573652987+580243113+585924097+590812805+595189934+599299736
1065+603396508+607831595+612865810+618410381+624093808+629559383+634604252
1055+639142226+643192984+646876380+650353122+653761318+657132324+660333663
1045+663199333+665700695+667830488+669327762+669623321+667996354+663663677
1035+655748794+643281075+625458811+602366224+575849492+549625367+528009763
1026+514014705+508294867+509562345+515688297+524525488+534384887+544324573
1016+554045219+563468608+572465388+580869251+588588135+595693708+602394999
1006+608869684+615140225+621168958+627012618+632789362+638494574+643926623
996+648830533+653106541+656909789+660540249+664155032+667646094+670900776
986+674012599+677069178+679960095+682563121+684904182+687076052+689196817
976+691395901+693702893+696048366+698390377+700698997+702899371+704956478
966+706913074+708814834+710701460+712612517+714510816+716309622+718032011
956+719816565+721711878+723563009+725182036+726584094+727992056+729646442
946+731623466+733739142+735629093+737051172+738084170+738941869+739756677
936+740667787+741884840+743463011+745179631+746786103+748247884+749592526
926+750708526+751541114+752310519+753267507+754405902+755627774+756982121
916+758608410+760608373+762959207+765495724+768088978+770749148+773400903
907+775751465+777444128+777968194+775625369+765442245+739120902+692292556
897+635324929+592095146+581551786+601579853+634202414+663320883+683422992
887+695421956+701033919+701349296+697185607+689685797+681036121+674157969
877+671142517+671904185+673982602+673322666+666219061+652381792+636692442
867+626597206+626631140+635539116+648547325+661578677+673194262+683617973
857+693077298+701392798+708577640+715032439+721030632+726464174+731238526
847+735637984+740094178+744622582+748725461+752030501+754787992+757547451
837+760641628+764027157+767215534+769441357+770336451+770160269+768919327
827+765712355+759613719+751144433+742465439+736050477+733260343+734019839
817+737406793+742239986+747333787+751759373+755203064+757907483+759799742
807+759460612+753868534+738702300+709479656+665557700+615401309+575468556
798+559664987+569119222+593544913+621140115+645418400+665018092+680691155
788+693130166+702304316+707810475+709448980+707136084+699725518+683869623
778+655379192+613584178+564970837+521774377+495778759+491944970+506565997
768+530783169+556146710+578305112+597145241+614299425+630625840+645778229
758+659280101+671050558+681121226+689636322+697058900+703924565+710475124
748+716649499+722263362+727221905+731630524+735585251+738968134+741680561
738+743886907+745789210+747393781+748713110+749953034+751305820+752785314
728+754449812+756520085+758961792+761186326+762599921+763355752+764180943
718+765507669+767108847+768482808+769322115+769769221+770293966+771140264
708+772082185+772948707+773885403+774716023+774751789+773789711+772704726
698+772635570+773972883+776178007+778235385+779430789+779907892+780291678
688+780878249+781591189+782558357+784132117+786301204+788590890+790723600
679+792953088+795585772+798506415+800833767+800625009+796065522+788504631
669+785390433+793488624+805425626+812245005+813986396+814001191+814549350
659+815524662+815221841+811864341+804582790+793044912+776692708+755422274
649+731030787+706967299+686410415+671068814+661276060+656431193+655566029
639+657767692+662249200+668310373+675266911+682523691+689755835+696710744
629+703027774+708666817+714080813+719537972+724666250+728879820+732062699
619+734932238+738602468+743424803+748574390+752977377+756009863+757424340
609+757520643+757354438+758199649+760755780+764701616+768815083+771951949
599+774088188+775954997+777817734+779185451+779369845+777919126+774988643
589+771447903+768173608+765293074+762102526+757095798+747723681+730629016
579+703261100+666696435+628187051+599912301+591416275+602876514+626942987
569+654690888+679821647+700080189+716005105+728643305+738546071+746233465
560+752466476+757695468+762025022+766017415+770590136+775604873+779346906
550+780159881+778412721+776157240+774852028+774187477+773085119+770627802
540+765348318+754797696+737515515+715690610+695004576+681351158+677641158
530+683179758+695338684+711244461+727887134+742315657+752994479+760099848
520+764723469+768486269+772853218+777980682+782914453+786952520+790188539
510+793065883+795944719+799009103+802203588+804965761+806129132+804953410
500+802660330+801662826+803059522+805773511+808057971+809494980+811128327
490+813797456+816864690+818707134+818202139+815648451+811842895+806033101
480+795477796+777905892+755376871+734934138+723483876+722288473+726802625
470+732636716+739981722+750148218+761660986+771750113+779041913+783523014
460+786316813+790045612+796630648+803855055+808139614+809604177+810570870
450+811657755+811672414+810709047+810934432+813813268+817958769+820644117
441+820859933+819735043+818526134+817689813+817320686+817277794+817064354
431+816557118+816570827+817625679+818658067+817911533+814721596+809466340
421+802826197+797756556+798615137+802563485+802670307+797181046+790247855
411+787515610+790098955+794261015+797089630+799948717+805383481+812432453
401+816405843+812707245+803371437+798992815+804681807+814062407+820227280
391+821781495+820577744+817717570+813255540+809275160+809944800+815293644
381+819205683+815440576+800233350+769377359+721190729+668526596
##END=
