##TITLE=SiO- R25
##JCAMP-DX=4.24
##DATA TYPE=INFRARED SPECTRUM
##DATE=13/6/2019
##SAMPLING PROCEDURE=Diamant-ATR
##ORIGIN=Rieke
##XUNITS=1/CM
##YUNITS=TRANSMITTANCE
##RESOLUTION=4
##FIRSTX=3997.453
##LASTX=373.96442
##DELTAX=-1.4165319
##MAXY=1.0201262
##MINY=0.73521161
##XFACTOR=1
##YFACTOR=9.5006658e-010
##NPOINTS=2559
##FIRSTY=1.0017778
##XYDATA=(X++(Y..Y))
3997+1054429013+1053928369+1053465367+1053071628+1052794329+1052647649
3989+1052595577+1052623809+1052764968+1053007510+1053267619+1053468755
3980+1053540527+1053358589+1052876891+1052316898+1052016261+1052043677
3972+1052164760+1052158737+1051945430+1051503320+1050953490+1050596515
3963+1050620418+1050898532+1051211780+1051436819+1051422138+1051067233
3955+1050630330+1050526876+1050818730+1051280728+1051807345+1052316270
3946+1052557809+1052473929+1052363449+1052324175+1051987715+1051200612
3938+1050402970+1050063937+1050216766+1050652727+1051183924+1051582934
3929+1051639523+1051442088+1051319249+1051455640+1051636135+1051465301
3921+1050867038+1050192047+1049931875+1050220404+1050583465+1050510439
3912+1050066823+1049697928+1049636571+1049721392+1049786576+1049893480
3904+1049995867+1049753074+1049141134+1048695824+1048653351+1048561065
3895+1048092040+1047648111+1048033381+1049365671+1050551657+1050930654
3887+1051108577+1051660916+1052136653+1051978242+1051432364+1050730082
3878+1049724779+1048616587+1047955649+1047939651+1048291231+1048810069
3870+1049329534+1049353814+1048926635+1048949471+1049954963+1051186371
3861+1051523145+1050904116+1049861547+1048735976+1047835194+1048046117
3853+1050169838+1052321666+1052557809+1051477849+1050069584+1048900474
3844+1048124350+1047733936+1047720761+1048050006+1048615897+1049116102
3836+1049098033+1048461877+1047620444+1047038367+1046784155+1046716211
3827+1046893569+1047374827+1047906902+1048290792+1048614203+1048726879
3819+1048328309+1047897680+1048184954+1048906685+1048993262+1048197690
3810+1047137492+1046554160+1046841434+1047515672+1047638198+1047193704
3802+1046997525+1047390072+1047757964+1047884944+1048170776+1048632962
3793+1048840371+1048646136+1048292047+1048022339+1047926916+1047967381
3785+1047917129+1047496224+1046876065+1046781081+1047753635+1049273008
3776+1050262752+1050359807+1049908474+1049352559+1048904740+1048465829
3768+1047946239+1047636693+1047821517+1048240163+1048445063+1048442240
3759+1048544126+1048829392+1049099037+1049326711+1049734253+1050496009
3751+1051210525+1050855055+1049421068+1048039278+1047609151+1048110799
3742+1048557300+1048450521+1048079932+1047815494+1048000757+1048730895
3734+1049452186+1049609656+1049333424+1048921114+1048599523+1048636098
3725+1049011393+1049102801+1048373292+1047149914+1046244175+1046094735
3717+1046509366+1047058004+1047542587+1048072278+1048695322+1049178651
3708+1049418433+1049451433+1049226080+1048872493+1048836858+1049377591
3700+1050087966+1050429508+1050265450+1049670888+1048765149+1047726533
3691+1046957059+1047212777+1048633652+1049708154+1049398733+1048515078
3683+1048271908+1049017416+1050060048+1050541118+1050259239+1049401494
3674+1048143548+1047063964+1046983409+1048093044+1049277086+1049457330
3666+1049156693+1049070805+1049113655+1048942570+1048603350+1048499645
3657+1048876571+1049305443+1048971994+1047826975+1046689171+1046538037
3649+1047519750+1048282636+1048100510+1047556765+1047048593+1046692998
3640+1046710627+1047249352+1048049567+1048683089+1048938869+1048799717
3632+1048396442+1048122405+1048421600+1049059011+1049314728+1048997152
3623+1048182382+1047074253+1046292796+1046469402+1047192136+1047488570
3615+1047334236+1047302115+1047436247+1047217796+1046573797+1046106780
3606+1046109791+1046235266+1046373790+1046814834+1047556640+1048085265
3598+1048032816+1047613543+1047319869+1047423323+1047735818+1047956779
3589+1048062805+1048133259+1048062366+1047825156+1047656643+1047674712
3581+1047704700+1047508144+1047130402+1046968979+1047341074+1047911482
3572+1047861292+1046871234+1045628596+1045228395+1045994041+1047022557
3564+1047585374+1047707711+1047409646+1046802725+1046440041+1046761758
3555+1047456135+1047818004+1047479661+1046630323+1045666991+1044897643
3547+1044624673+1045079644+1045960602+1046527810+1046500080+1046351644
3538+1046613070+1047202362+1047616554+1047568999+1047150165+1046574675
3530+1046123217+1046151763+1046766589+1047520880+1047787137+1047431102
3521+1046860255+1046443931+1046215504+1046069138+1045934503+1045811601
3513+1045764046+1045817059+1045847549+1045691835+1045358073+1045065152
3504+1045068979+1045376768+1045619938+1045459770+1044993506+1044496124
3496+1044066311+1043692961+1043375510+1042971733+1042140024+1040586397
3488+1038220383+1034959171+1030485058+1024393765+1016793388+1008823237
3479+1002299746+998741536+998767383+1001958894+1007091561+1012788801+1018110056
3469+1022647220+1026342136+1029274102+1031519973+1033179878+1034455516
3461+1035549028+1036497240+1037246512+1037902556+1038719396+1039756507
3452+1040743930+1041460328+1042010095+1042494992+1042707169+1042543111
3444+1042376042+1042531191+1042782391+1042804099+1042735213+1042878631
3435+1043215969+1043560021+1043842088+1044063174+1044238588+1044405155
3427+1044481381+1044318766+1044041593+1043968064+1044058532+1043871010
3418+1043221239+1042441477+1041867179+1041490504+1041191435+1040942996
3410+1040660803+1040171891+1039483286+1038800704+1038162665+1037331207
3401+1036115044+1034544603+1032659534+1030267485+1026907838+1022000587
3393+1015100484+1006125469+995546323+984644958+975520001+970286453+969896540
3383+973734120+980218149+987653967+994815684+1001116081+1006410359+1010738231
3373+1014237155+1017088442+1019468006+1021575479+1023555343+1025319015
3364+1026666801+1027622542+1028406131+1029144675+1029838676+1030473389
3356+1030995301+1031367396+1031751913+1032412098+1033382833+1034455391
3347+1035447958+1036260406+1036693545+1036562173+1036093776+1035885237
3339+1036232112+1036788278+1037082516+1037061311+1036922913+1036784765
3330+1036721463+1036784326+1036889348+1036981635+1037225181+1037697656
3322+1038130857+1038308467+1038412485+1038627737+1038768269+1038608288
3313+1038253132+1037936309+1037735863+1037595582+1037414585+1037163134
3305+1037035777+1037293314+1037873070+1038406776+1038637838+1038596933
3296+1038429801+1038276722+1038280925+1038545677+1039019720+1039451102
3288+1039562272+1039341249+1039048014+1038900833+1038909804+1038956355
3279+1038871472+1038546053+1038137633+1038018056+1038369196+1038940420
3271+1039320545+1039392317+1039395956+1039502797+1039484353+1039079948
3262+1038545112+1038415246+1038741731+1038949454+1038545300+1037688622
3254+1036883325+1036315427+1035836177+1035485098+1035502100+1035789751
3245+1035939003+1035903682+1036078217+1036532686+1036690220+1036007575
3237+1034708849+1033627132+1033368654+1033783285+1034297355+1034584755
3228+1034731498+1034876107+1035001268+1035115513+1035404105+1036093588
3220+1037210124+1038504144+1039574506+1040136821+1040284505+1040429114
3211+1040797633+1041107054+1040994754+1040586710+1040312172+1040326852
3203+1040447245+1040502140+1040509418+1040562054+1040636335+1040536960
3194+1040132680+1039605059+1039300846+1039385102+1039758891+1040217815
3186+1040609923+1040934150+1041258815+1041510016+1041528962+1041373750
3177+1041292066+1041371931+1041478772+1041493704+1041371680+1041070603
3169+1040598568+1040065426+1039644835+1039521932+1039769431+1040197990
3160+1040498690+1040570085+1040509418+1040362612+1040156207+1040093846
3152+1040397620+1040978881+1041498848+1041762031+1041890831+1042098555
3143+1042346555+1042273027+1041563029+1040431310+1039545961+1039346832
3135+1039633040+1039946978+1040112855+1040191089+1040156897+1039916174
3126+1039523689+1039216339+1039210002+1039464841+1039696217+1039723758
3118+1039704372+1039847539+1040076718+1040218003+1040305961+1040442665
3109+1040553083+1040517887+1040395612+1040364055+1040562682+1040993876
3101+1041423564+1041443389+1040858739+1039972324+1039289804+1038990359
3092+1038855411+1038617323+1038199806+1037757507+1037632221+1038069877
3084+1038843491+1039387486+1039415969+1039171732+1038979003+1038855160
3075+1038716071+1038633634+1038623847+1038414681+1037770180+1036934456
3067+1036433373+1036480426+1036808229+1037035338+1036970405+1036587331
3058+1035958452+1035321229+1035023477+1035183708+1035490117+1035555678
3050+1035374179+1035205917+1035155790+1035142553+1035124045+1035102526
3041+1035061747+1035031696+1035028245+1034916008+1034561856+1034079343
3033+1033707687+1033514331+1033331828+1032916883+1032205379+1031522734
3024+1031371160+1031831402+1032399112+1032566244+1032304629+1031910262
3016+1031681522+1031752917+1031954304+1031885983+1031338161+1030508585
3007+1029702096+1029029615+1028479220+1028091629+1027960884+1028085042
2999+1028271999+1028290757+1028118669+1027911636+1027748017+1027553970
2990+1027225854+1026671193+1025837226+1024846603+1023980702+1023362614
2982+1022780600+1021993372+1021087319+1020346454+1019920154+1019824291
2973+1020029380+1020287418+1020118592+1019211159+1017626728+1015528478
2965+1012978017+1010003452+1006617643+1002822725+998762490+994779547+991279996
2955+988614663+986977470+986270797+986185286+986522750+987357219+988847419
2945+990987076+993549770+996162968+998401499+999912152+1000584570+1000611547
2935+1000290897+999707942+998651696+996935516+994765933+992644408+990875842
2925+989326418+987707168+985959368+984348901+983284688+982990889+983289330
2915+983794366+984337044+985078850+986239679+987851589+989731953+991575050
2905+993116130+994330285+995471415+996841975+998476094+1000133991+1001653489
2895+1003147579+1004730630+1006239400+1007425073+1008309042+1009168292
2887+1010220523+1011393774+1012409617+1013122689+1013754078+1014621610
2878+1015618255+1016184208+1015937839+1015165919+1014495382+1014192361
2870+1014008415+1013657839+1013186430+1012776379+1012394058+1011811416
2861+1010926443+1009907275+1008931145+1007886631+1006519459+1004866519
2853+1003333281+1002325908+1002037065+1002577359+1003975900+1005948675
2844+1007947047+1009594404+1010958377+1012335524+1013867193+1015408838
2836+1016741065+1017850512+1018907197+1019988224+1020998609+1021890545
2827+1022745655+1023583073+1024279395+1024754944+1025103199+1025467640
2819+1025858556+1026157563+1026310014+1026415601+1026551365+1026613788
2810+1026529156+1026495905+1026771447+1027274601+1027667525+1027844569
2802+1028074439+1028572009+1029164375+1029553283+1029705672+1029748397
2793+1029674241+1029428499+1029149820+1029066504+1029252709+1029615268
2785+1029999158+1030255565+1030344276+1030372445+1030435119+1030506326
2776+1030558022+1030646983+1030820327+1031048691+1031266075+1031382453
2768+1031299765+1031046557+1030851758+1030951259+1031336529+1031783282
2759+1032104685+1032255945+1032233548+1032028899+1031732778+1031547201
2751+1031590867+1031754611+1031847651+1031809004+1031677695+1031441991
2742+1031095367+1030765055+1030604573+1030597107+1030598676+1030514357
2734+1030309896+1029926382+1029319901+1028607393+1028094013+1028076572
2725+1028568307+1029245180+1029729764+1029927323+1030027640+1030208951
2717+1030463289+1030692970+1030835572+1030865498+1030815559+1030843602
2708+1031134829+1031663203+1032148727+1032309397+1032127710+1031852858
2700+1031744573+1031808001+1031835542+1031711009+1031552785+1031505669
2691+1031562509+1031655361+1031743820+1031732402+1031492369+1031069268
2683+1030710787+1030601185+1030691715+1030839838+1030977295+1031111804
2674+1031261182+1031401400+1031464137+1031445316+1031484903+1031696328
2666+1031967730+1032117860+1032171061+1032306951+1032636384+1033149952
2657+1033744200+1034200740+1034318937+1034143021+1033911458+1033768668
2649+1033657183+1033480327+1033279379+1033242490+1033520353+1034032729
2640+1034552257+1034961995+1035262569+1035376939+1035203596+1034852016
2632+1034583312+1034493723+1034432554+1034249487+1034003243+1033898785
2623+1034068740+1034421638+1034711359+1034795050+1034764748+1034775476
2615+1034860862+1035001205+1035214575+1035467532+1035646271+1035694892
2606+1035671177+1035666158+1035749411+1035939944+1036197732+1036511293
2598+1036873413+1037117147+1037026116+1036674410+1036367687+1036264422
2589+1036325528+1036501318+1036696745+1036720836+1036510101+1036274209
2581+1036296418+1036638713+1037105478+1037529583+1038016236+1038688592
2572+1039252601+1039201093+1038518511+1037829718+1037692198+1037983299
2564+1038172013+1038019059+1037717356+1037395074+1036918396+1036312855
2555+1035969619+1036159023+1036612990+1036847440+1036744049+1036591283
2547+1036594671+1036594232+1036364362+1035975830+1035685921+1035641252
2538+1035811709+1036036183+1036059208+1035713462+1035159994+1034837524
2530+1035084207+1035772184+1036376784+1036512234+1036322893+1036187004
2521+1036207017+1036207582+1036058016+1035785422+1035507056+1035404795
2513+1035613145+1036002681+1036234998+1036211158+1036295790+1036822345
2504+1037498779+1037705435+1037342437+1036967519+1037057108+1037500786
2496+1037908893+1038149741+1038389962+1038685518+1038820152+1038673786
2487+1038510481+1038669708+1039153664+1039691072+1040038825+1040097422
2479+1039875269+1039471554+1039079258+1038902464+1038962252+1039066647
2470+1039095632+1039118280+1039084214+1038749385+1038125650+1037611078
2462+1037496206+1037738122+1038265115+1039038604+1039776583+1040059968
2453+1039804501+1039380146+1039241998+1039528582+1039958082+1040104260
2445+1039848543+1039449157+1039127126+1038832261+1038495926+1038215427
2436+1038089890+1038114295+1038236319+1038355582+1038353449+1038221764
2428+1038048107+1037898917+1037853307+1037957890+1038018997+1037746340
2419+1037242497+1036996002+1037226938+1037570927+1037556685+1037154664
2411+1036719142+1036563365+1036725792+1037062190+1037443382+1037818112
2402+1038105135+1038165802+1038009586+1037859393+1037828024+1037763530
2394+1037622120+1037640941+1037894275+1038086502+1038042962+1038020314
2385+1038291339+1038713185+1038932139+1038892300+1038940169+1039335728
2377+1039831792+1040053694+1040180988+1040677930+1041396900+1041698604
2368+1041486113+1041315404+1041516478+1041987008+1042637029+1043216534
2360+1043033592+1041727840+1040010154+1038857418+1038358845+1037979786
2351+1037534476+1037300090+1037481024+1037942143+1038311729+1038369071
2343+1038403765+1038807291+1039436547+1039846849+1039895408+1039802745
2334+1039755378+1039600291+1038951587+1037693264+1036281486+1035292934
2326+1034860674+1034823031+1035156668+1035913093+1036870213+1037626700
2317+1038036626+1038255203+1038401694+1038414869+1038233872+1037955506
2309+1037784610+1037862969+1038108586+1038255642+1038149616+1037927526
2300+1037817923+1037883045+1038060842+1038331930+1038747942+1039304108
2292+1039765541+1039734173+1039116084+1038409537+1038165426+1038272706
2283+1038190458+1037765601+1037403920+1037520988+1038155388+1038992743
2275+1039512396+1039337673+1038688279+1038279168+1038577986+1039361701
2266+1040152254+1040795249+1041350537+1041723950+1041822197+1041859400
2258+1042097112+1042448880+1042692614+1042820348+1042842933+1042632512
2249+1042251759+1041987760+1041863352+1041612779+1041203418+1040860935
2241+1040662497+1040630187+1041018657+1041931109+1042797825+1042822041
2232+1041962728+1041084531+1041031267+1041773450+1042563626+1042774926
2224+1042454652+1042107463+1042031112+1041883679+1041077003+1039739003
2215+1038889289+1039234282+1040237953+1040886971+1040832892+1040284944
2207+1039519360+1038942302+1038868460+1039014701+1038877181+1038484445
2198+1038338706+1039000710+1040712436+1042737095+1043606760+1042932334
2190+1042019945+1041908460+1042117062+1041955200+1041621814+1041466413
2181+1041330524+1040988104+1040618330+1040755348+1041837630+1043551677
2173+1044829824+1044732268+1043166720+1040921414+1039253605+1038900393
2164+1039180767+1038756599+1037571805+1037197451+1039069408+1043043316
2156+1047624208+1050819985+1051234491+1049434807+1047629854+1047191195
2147+1047209953+1046053830+1043662659+1041637937+1041302230+1042250630
2139+1043008309+1042759994+1041963920+1041454493+1041457944+1041464594
2130+1040866770+1039702302+1038614688+1038028846+1037786178+1037691445
2122+1037899921+1038596431+1039657696+1040677993+1041142939+1040673413
2113+1039329642+1037764409+1036916827+1037212571+1038034618+1038373902
2105+1037995972+1037517223+1037459944+1037837686+1038557283+1039587744
2096+1040626109+1041099212+1040800205+1040189959+1039732353+1039270920
2088+1038528612+1037894024+1038020565+1038805535+1039560014+1040143722
2079+1041057679+1042292538+1043046578+1042843686+1042037448+1041068157
2071+1040116494+1039448279+1039271798+1039482345+1039998046+1040684079
2062+1040812690+1039754374+1038277788+1037927212+1038974549+1040052376
2054+1040008272+1039205611+1038585389+1038416626+1038758607+1040236134
2045+1042944693+1045328586+1045715613+1044350448+1042814827+1042197178
2037+1042637907+1043836692+1045413282+1047096901+1048696891+1049915501
2028+1050433586+1050157040+1049294339+1048326364+1047787325+1047803511
2020+1047997307+1048039153+1048099694+1048515706+1049103178+1049198790
2011+1048521728+1047692968+1047717687+1049013903+1050858129+1051827484
2003+1051102491+1049264727+1047499988+1046277049+1045254368+1044110980
1994+1042924303+1042024838+1041870253+1042734146+1044344739+1046001256
1986+1047007124+1047065030+1046509867+1046100757+1046417079+1047295088
1977+1047824152+1047274322+1046041282+1045104049+1044976504+1045870762
1969+1048050885+1050886047+1052557809+1052119275+1050419972+1048783657
1960+1047782996+1047541520+1047948435+1048536534+1048749778+1048321220
1952+1047452684+1046816528+1047031152+1047854705+1048290918+1047671449
1943+1046348821+1045291508+1045094701+1045565106+1046272344+1046951538
1935+1047351991+1047211271+1046566080+1045784938+1045215973+1045003795
1926+1045149848+1045507137+1045717118+1045388626+1044549514+1043743967
1918+1043495966+1043714982+1043967500+1044250445+1044866338+1045753067
1909+1046448448+1046786665+1047120364+1047624522+1047927668+1047748302
1901+1047473889+1047629854+1048115504+1048448765+1048440985+1048177238
1892+1047581735+1046544436+1045472757+1045205684+1046000566+1047132285
1884+1047750498+1047760285+1047732555+1048034196+1048411624+1048528755
1875+1048484274+1048502531+1048489419+1048331258+1048372100+1049019612
1867+1049874094+1050135897+1049585189+1048587163+1047778291+1047685000
1858+1048298321+1049148600+1049816188+1050169148+1050251836+1050167203
1850+1049977674+1049679985+1049372886+1049358707+1049865938+1050577443
1841+1050899348+1050728702+1050429257+1050324548+1050349267+1050308237
1833+1050304535+1050529009+1050784664+1050671611+1050339605+1050360748
1824+1050874629+1051388762+1051565681+1051672397+1052019335+1052450277
1816+1052557809+1052187471+1051467497+1050774626+1050414137+1050302716
1807+1050157291+1049883568+1049506140+1048990062+1048322663+1047583931
1799+1046828887+1046066754+1045409455+1045028890+1044803349+1044127354
1790+1042741048+1041351604+1040606159+1040440595+1040283187+1039564845
1782+1038290210+1037112317+1036772782+1037447020+1038850705+1040731006
1773+1042901341+1045013519+1046661378+1047723709+1048293239+1048532205
1765+1048668094+1048950162+1049527847+1050221345+1050696142+1050911582
1756+1050950353+1050771803+1050413196+1050036898+1049694101+1049343587
1748+1049025760+1048678258+1048104462+1047251172+1046194487+1044966090
1740+1043580159+1042031802+1040073519+1037022100+1032202932+1026289625
1731+1019953468+1011961547+1000844930+985869779+966213043+941895864+915976938
1721+891828146+868701910+843607039+819346700+805123268+802615030+807461552
1711+817018455+829744222+844248466+859897980+875386887+887818415+895974269
1701+900801530+902541550+901024750+897463841+893270227+889655929+887241106
1691+885902982+885539231+886163969+888126393+893371359+904331823+917369645
1681+926958544+933855824+939684624+944832662+949768208+954941215+960179719
1672+965821625+972705040+979795551+984859081+988065900+990909846+994118171
1662+997236969+999468787+1000668827+1001140862+1001249586+1001479205+1002315807
1652+1002972667+1002486892+1000870025+997872247+993342298+987981644+981962749
1642+974783967+966498185+957519468+947133867+933932615+920589325+911965576
1632+908104909+907832817+911198989+917763572+926056758+935590511+946405926
1622+956428278+963405297+967898294+971520120+974456604+975466486+974143356
1612+970616765+964283933+954164652+940108729+923345878+905853015+889918297
1602+878066273+872149641+872415647+878065959+888135678+901268547+915396304
1592+928594985+939978360+949286762+956086046+959776005+960337002+958984699
1582+957837296+958481294+961139977+965658696+972128484+979099166+984287481
1572+988055360+992142007+997251524+1002227787+1006178231+1009544089+1012500147
1562+1014774940+1016749095+1019833827+1024133468+1026926095+1028346217
1554+1029640363+1030918385+1031812016+1032100545+1031907753+1031680079
1545+1031954053+1033008542+1034675473+1036778429+1039081391+1040544237
1537+1040901965+1040825677+1040895880+1041228199+1041470930+1041490567
1528+1041533919+1041833113+1042389154+1043104799+1044032747+1045189686
1520+1046263623+1046997148+1047391829+1047397601+1046991753+1046362121
1511+1045729352+1045197967+1044851469+1044627622+1043702999+1041470617
1503+1037953687+1032634000+1024545150+1013272130+1001033770+993094674+992302803
1493+997049384+1005356309+1015703703+1025216377+1031268710+1034294846
1485+1035888939+1036976741+1037778023+1038104696+1037768110+1036850639
1476+1035583157+1033860892+1030964685+1026826593+1022951685+1020348587
1468+1018864536+1018009802+1017126147+1015685070+1013735633+1011414979
1459+1008437967+1004364620+999838749+996029652+992601307+988563721+982774570
1449+973710468+960249107+943328346+925023537+906196063+887565897+871556083
1439+861618238+861424317+872111496+886799247+897484607+903180342+906162561
1429+909173576+914490064+922754453+932906169+942532837+949408786+953528056
1419+956887264+961780274+968986222+978103713+988617800+999660324+1010040592
1409+1018827081+1025778629+1031314885+1035875011+1039387549+1041761467
1401+1043301794+1044359796+1045204053+1046117132+1047154180+1047979427
1392+1048209045+1047581923+1045556009+1041206869+1034231230+1025937982
1384+1018249145+1012805803+1011031779+1012925631+1016094871+1017910301
1375+1018457057+1020226438+1024591701+1030201109+1035400215+1039663719
1367+1043011006+1045523637+1047297723+1048424423+1048979836+1049028520
1358+1048626876+1047781679+1046377994+1044275540+1041483289+1038041331
1350+1033807816+1028538633+1022157242+1015038123+1008077792+1002278729
1341+998227278+995799343+993766277+989904668+982199457+969717112+952678718
1332+932404333+910984615+890482493+872049324+855581338+840299590+825855950
1322+813066254+803982766+801218371+806027439+816338257+827104862+832901541
1312+831236805+824254830+816871336+813262936+814810289+820413361+828186203
1302+836807881+845788228+855114447+864850465+874906884+884975849+894562992
1292+902960008+909149423+911960432+910780593+906454227+901469306+899013516
1282+901480662+909446170+921826756+936842749+952763288+968178290+982153094
1272+994275202+1004466380+1012755801+1019224648+1024091308+1027749271
1264+1030574647+1032646046+1033735982+1033576754+1032020806+1028947115
1255+1024102978+1017016921+1006974242+993066442+974485212+951212672+924838838
1245+898836471+877668267+864574923+859154166+857113321+853275113+845296242
1235+834388980+822910306+812267482+803269443+797366738+796430195+801156198
1225+810077447+820328853+829314534+835689525+839193531+840154729+839321201
1215+837803899+836727765+836694389+837467187+838169406+837965573+836776512
1205+835408023+834966540+836177433+839244285+844157246+850920707+859427136
1196+869213345+879428740+888971277+896553711+900754414+900209478+893869619
1186+881249691+862770911+840130889+816354882+795260646+780399928+773852722
1176+775511184+783330389+794403089+806189176+817187219+826852219+835185431
1166+842454178+849031748+855190798+860986975+866385083+871443532+876323493
1156+881152824+885908879+890449807+894684389+898664948+902451397+905980685
1146+909156324+911988789+914571058+916991213+919325669+921661192+924078461
1136+926637266+929368222+932226849+935045512+937622950+939898057+941947623
1126+943758661+945128029+945921468+946332649+946685985+946881851+946061121
1116+942949538+936799648+928254321+919380564+912752741+910223988+912181769
1106+917596691+924694479+931839070+938119014+943353127+947749007+951589975
1096+955051883+958153868+960896242+963397078+965778336+967982675+969878849
1086+971528401+973169924+974922366+976678572+978323607+979888653+981402254
1077+982784169+984001713+985169945+986406058+987751900+989271460+991013425
1067+992831302+994444028+995721423+996798686+997897781+999134083+1000446736
1057+1001617917+1002408972+1002786839+1002986344+1003267721+1003641133
1048+1003831855+1003431967+1002127971+999935113+997197758+994259894+991252517
1038+988395145+986376446+986080702+987748261+990519620+992943414+993812640
1028+992315790+987519458+978020963+962389893+940463195+914715040+890002302
1018+870989439+859457501+854242962+853409371+855927836+861513655+869686322
1009+879473158+889815721+899914236+909228472+917453399+924556457+930665693
999+935906457+940425427+944467091+948265021+951848201+954983437+957311306
989+958621951+959101829+959286277+959720670+960649810+961998349+963563458
979+965158178+966618828+967839132+968852215+969821444+970938608+972396686
969+974365321+976839179+979548679+982149393+984494514+986655941+988693273
959+990460458+991704665+992360521+992629915+992642149+992074816+990242509
949+986681538+981774035+976841438+973500361+972739106+974490482+977940910
939+982112315+986250093+989942875+993084322+995770672+998169120+1000346231
929+1002191901+1003603930+1004691984+1005612215+1006218069+1005936755
921+1003867176+999179129+992106561+984755627+980113566+979465301+980869363
911+980378569+974667150+962995810+947718454+932586397+918988707+904388537
901+887146938+872462888+869146342+879200062+894703022+906996779+915343856
891+924465174+936992126+951101376+963629332+973043759+979713490+984656251
881+988532666+991642932+994308516+996788836+999018082+1000788718+1002093466
871+1003093499+1003878657+1004448375+1004897197+1005455622+1006270078
863+1007236861+1008165813+1009078766+1010208603+1011593843+1012788425
854+1013268177+1013186556+1013367804+1014373358+1015855904+1017007761
846+1017413860+1017315802+1017212411+1017399744+1017880438+1018557876
837+1019362105+1020192810+1020893461+1021362987+1021635957+1021801082
829+1021929944+1022155862+1022646028+1023317569+1023766643+1023760934
820+1023664255+1024071860+1025090150+1026228017+1027010665+1027457229
812+1027801783+1027971487+1027665392+1026749552+1025005454+1021289585
803+1013286747+998958105+979381108+960355447+949779250+952036162+964975236
793+982377443+998552132+1010777568+1018997727+1024435862+1028419118+1031724246
783+1034330418+1035518977+1033908760+1026581981+1008124406+972821355+920973214
773+863751119+819554235+802973574+815930213+848435995+886652065+920358890
764+944389862+955049876+948494703+926007070+899515227+885931213+893236098
754+914824642+938346813+956566300+968968969+977531862+983855660+988669496
744+992208760+994964623+997907882+1001679086+1005935187+1009801751+1012740493
734+1014936865+1017038440+1019470766+1021837219+1023019002+1022027627
725+1018949545+1015196221+1012777132+1013036363+1015781184+1019646180
717+1023384698+1026574891+1029099943+1030450176+1029566396+1024517922
708+1011999503+988959593+957315007+926789467+909754712+911646369+927555804
698+947817077+965450220+978567405+988091810+995206475+1000618950+1004752462
688+1007919694+1010470657+1012866094+1015393718+1017907540+1020112695
680+1021921412+1023298622+1024200220+1024909529+1025862885+1026986511
671+1027863704+1028547980+1029706488+1031541806+1033253657+1034513548
663+1035501034+1036210405+1036619327+1037001585+1037557124+1037986561
654+1037911841+1037519670+1037390682+1037820621+1038603207+1039444263
646+1040373780+1041569679+1042825806+1043597538+1043745410+1043758522
637+1043975342+1044159350+1044179677+1044473915+1045336554+1046306849
629+1046785410+1046871046+1047128834+1047780612+1048495755+1048862894
620+1048860761+1049003990+1049931624+1051500748+1052557809+1052150267
612+1050489046+1048625810+1047234045+1046167071+1044925060+1043231277
603+1041094757+1038521146+1035525376+1032636823+1031039343+1031741938
595+1034668886+1038758670+1042827123+1046089339+1048068326+1048707243
586+1048626437+1048610627+1048770670+1048837611+1049010954+1049603885
578+1050241923+1050360748+1049989970+1049120493+1046805674+1042025215
569+1035627073+1030701690+1030058570+1033464392+1038274902+1042426796
561+1045756455+1048647830+1050822306+1051799064+1051450934+1049556141
552+1045393331+1038394731+1029494499+1021744869+1018712523+1021378170
544+1026974779+1031660003+1033897593+1034550187+1034508843+1033537857
535+1031249764+1027753287+1023029793+1016942954+1010282256+1004884650
527+1002530118+1003870626+1008026661+1013320375+1018464334+1022842961
518+1026089681+1028080399+1029478187+1031350708+1033819736+1035912779
510+1037035714+1037800106+1038911435+1039810273+1038533819+1032643160
501+1021818837+1010320652+1004114110+1005329583+1010990937+1016516465
493+1019734891+1021247111+1022143000+1022649040+1022601046+1022197268
484+1021698695+1020521429+1017857037+1014328187+1011439070+1009414913
476+1007175190+1004452766+1002391406+1002005508+1003436484+1006722164
467+1011536878+1016406863+1019797753+1021650826+1022959339+1024585365
459+1027036513+1030609466+1035112815+1039749418+1043223184+1044259354
450+1043365284+1043192254+1045638195+1049555765+1052246444+1052557809
442+1052206668+1051762112+1052145625+1053586576+1055205576+1055575475
433+1054830532+1054743703+1055799322+1056090423+1053956977+1049397918
425+1041973394+1030497292+1015788210+1000414113+986252352+974421722+965718359
415+960472515+959424989+963286472+970823359+978956000+985797882+992424513
405+1000856474+1010952417+1020289426+1026936635+1031649840+1036411039
397+1039681536+1038810993+1037403983+1040719086+1047919073+1052557809
388+1053757598+1048568028+1042632888+1042266942+1049099163+1059291156
380+1068387066+1073741823+1073162381+1064652438+1052557809
##END=
