##TITLE=X8784
##JCAMP-DX=4.24
##DATA TYPE=INFRARED SPECTRUM
##DATE=2/11/2018
##SAMPLING PROCEDURE=ATR platinum Diamond 1 Refl
##ORIGIN=ComPlat
##XUNITS=1/CM
##YUNITS=TRANSMITTANCE
##RESOLUTION=4
##FIRSTX=3997.453
##LASTX=373.96442
##DELTAX=-1.4165319
##MAXY=1.0538622
##MINY=0.34001741
##XFACTOR=1
##YFACTOR=9.8148567e-010
##NPOINTS=2559
##FIRSTY=0.98428637
##XYDATA=(X++(Y..Y))
3997+1002853528+1003047496+1003226586+1003478976+1003964322+1004506814
3989+1004704851+1004452279+1004080253+1003961893+1004172562+1004534446
3980+1004833900+1004950196+1004884488+1004694649+1004402360+1004050496
3972+1003823066+1003893815+1004181914+1004485620+1004774872+1005109671
3963+1005410097+1005534774+1005465361+1005303700+1005181513+1005158436
3955+1005101290+1004763576+1004097622+1003394866+1003058670+1003198043
3946+1003489725+1003609725+1003644341+1003824341+1004032642+1003993047
3938+1003771872+1003668814+1003785050+1003950415+1003996022+1003948897
3929+1003948350+1004072055+1004355902+1004843253+1005435360+1005779815
3921+1005564774+1004917524+1004393676+1004403878+1004687422+1004793576
3912+1004790236+1005016027+1005430563+1005555968+1004991188+1003786811
3904+1002500388+1001761742+1001505283+1001186091+1000688903+1000310501
3895+1000176958+1000266897+1000668194+1001420809+1002251703+1002886321
3887+1003308570+1003527377+1003434461+1002922576+1002066298+1001364574
3878+1001419473+1002074253+1002590085+1002430307+1001852410+1001763442
3870+1002619478+1003711932+1004099869+1003627397+1002606361+1001619332
3861+1001348906+1001915507+1002862090+1003721163+1004226489+1004073938
3853+1003272801+1002842353+1003136039+1003580029+1003895273+1004160476
3844+1004336287+1004051346+1003146849+1002242533+1002232148+1003106889
3836+1003857742+1003988796+1003916710+1004075638+1004429445+1004628272
3827+1004417117+1003927520+1003523065+1003252882+1002739782+1001870689
3819+1001177225+1001021030+1001375870+1002061257+1002728669+1003151160
3810+1003363469+1003455656+1003502964+1003634077+1003867823+1004003856
3802+1003932257+1003913674+1004149424+1004323837+1004104909+1003615616
3793+1003345615+1003631648+1004391732+1005246493+1005852508+1006104169
3785+1006008096+1005601393+1005079063+1004781613+1004942727+1005469672
3776+1006048480+1006373381+1006221072+1005642264+1005136756+1005252202
3768+1005876374+1006470304+1006716135+1006488705+1005830463+1005148719
3759+1005034488+1005510300+1005812609+1005378639+1004338716+1003296849
3751+1003065593+1003757236+1004493757+1004886613+1005175805+1005423883
3742+1005420603+1005185461+1004916674+1004768434+1004853819+1005039650
3734+1004950682+1004767584+1005070015+1005776354+1006193137+1005722426
3725+1004465336+1003320351+1003168225+1004050193+1005257546+1006039189
3717+1006197995+1006022185+1005839148+1005751637+1005668924+1005550867
3708+1005530158+1005752852+1006225991+1006753119+1007042250+1007063809
3700+1007123930+1007290692+1007281461+1006981339+1006537895+1005949249
3691+1004969933+1003584340+1002413303+1002148160+1002777252+1003869463
3683+1004935925+1005578074+1005615118+1004986755+1003646770+1002070123
3674+1001470485+1001987168+1002664903+1003315797+1004544284+1006351397
3666+1007921545+1008716305+1008748188+1008338450+1007757820+1007081967
3657+1006407328+1005965950+1005836354+1005772953+1005534774+1005093152
3649+1004792422+1005165967+1005996618+1006593523+1006622491+1006237894
3640+1005840119+1005618823+1005393336+1005040075+1004813799+1005034185
3632+1005607709+1006068642+1006026071+1005693641+1005624045+1005849897
3623+1006149108+1006365243+1006379453+1006170606+1005922225+1005791840
3615+1005714532+1005622831+1005544005+1005393882+1005014144+1004551571
3606+1004388271+1004532685+1004633130+1004528798+1004359971+1004263594
3598+1004306651+1004690641+1005526758+1006413401+1006765508+1006442672
3589+1005648580+1004727868+1004226853+1004393433+1004855277+1005208659
3581+1005283659+1005061938+1004714689+1004545923+1004683171+1004964468
3572+1005189226+1005263437+1005067403+1004426287+1003493429+1003023204
3564+1003508915+1004486530+1005115683+1005027504+1004604466+1004336894
3555+1004280477+1004374425+1004635742+1004793151+1004378979+1003408834
3547+1002482473+1002187634+1002523587+1002990775+1003125472+1002842536
3538+1002491036+1002545328+1003033771+1003432275+1003306202+1002790855
3530+1002382939+1002505186+1003221242+1004135578+1004589284+1004189748
3521+1003207517+1002266035+1001728098+1001546032+1001506133+1001461983
3513+1001432165+1001537469+1001792774+1002043221+1002173302+1002179800
3504+1001991176+1001571174+1001219249+1001275606+1001540627+1001479716
3496+1000969653+1000507384+1000576797+1001046293+1001363177+1001198116
3488+1000768094+1000498761+1000471129+1000402262+1000189771+1000209265
3479+1000785827+1001579433+1001906337+1001498603+1000631514+999658028+998791790
3469+998229075+998154014+998649745+999605741+1000577708+1000977791+1000708579
3459+1000294711+1000130561+1000059083+999877321+999701146+999579870+999296691
3449+998813531+998430574+998272192+998115937+997950268+998103973+998667295
3439+999318796+999771956+999959366+999909264+999800073+999886855+1000111370
3429+1000077726+999604830+999006042+998683935+998657275+998624967+998432760
3420+998294541+998464703+998871345+999220476+999323715+999245435+999183856
3410+999208877+999194727+999076487+998985698+998962195+998813652+998438590
3400+998023629+997816239+997915835+998252638+998591870+998661708+998417881
3390+998082414+997884863+997881705+998024175+998255371+998503509+998627336
3380+998476363+998049499+997516724+997078139+996890668+997056337+997488849
3370+997881766+998005228+997928527+997837737+997830085+997951240+998189540
3360+998414723+998540250+998646890+998780312+998833268+998739927+998509096
3350+998070147+997458970+997074920+997307694+997948325+998373003+998277112
3340+997939155+997793344+997977475+998285188+998428873+998295027+997964964
3330+997558323+997179556+997011033+997229536+997719619+998098325+998178002
3320+998193913+998427719+998837337+999175354+999227460+998859320+998112354
3310+997339577+996967187+997059981+997335691+997598465+997896158+998250755
3301+998496343+998439136+998054418+997529173+997189030+997301196+997855288
3291+998543651+999014908+999179241+999248350+999425922+999627725+999681045
3281+999686571+999894932+1000297201+1000611595+1000576190+1000110520+999384080
3271+998749948+998352294+997911584+997222978+996645931+996699858+997360589
3261+998108953+998535453+998641911+998662437+998776182+998976345+999126650
3251+999133208+999058208+999049159+999195334+999494485+999888434+1000237565
3241+1000354226+1000223840+1000089204+1000138516+1000241330+1000234893
3233+1000284994+1000648579+1001218156+1001636458+1001757976+1001692693
3224+1001522287+1001257448+1000952710+1000631696+1000271209+1000004791
3216+1000071836+1000431776+1000734450+1000813215+1000908317+1001269958
3207+1001800183+1002210711+1002332534+1002206642+1002045893+1002122654
3199+1002485328+1002797718+1002676320+1002156237+1001621883+1001376841
3190+1001444311+1001701377+1002072674+1002578425+1003157901+1003535089
3182+1003464522+1003045674+1002638972+1002596765+1003067658+1003777276
3173+1004082015+1003618045+1002779013+1002214841+1002082209+1002057856
3165+1001840264+1001447712+1001150686+1001134715+1001277063+1001422267
3156+1001680790+1002146642+1002602474+1002867252+1003076525+1003332254
3148+1003506304+1003599826+1003760576+1003797924+1003245047+1002093079
3139+1001011313+1000682284+1001156516+1001887147+1002268707+1002145549
3131+1001835952+1001726580+1001958686+1002416400+1002817151+1002857414
3122+1002425995+1001687895+1000922406+1000252140+999481975+998119945+995455703
3112+990730258+983853731+976420987+971426452+971120985+975208593+981444308
3102+987514171+992072187+994716692+995661999+995383253+994400051+993319074
3092+992780408+993077980+993906506+994686813+995136572+995389387+995634185
3082+995890826+996146981+996468177+996909494+997407290+997770207+997781745
3072+997365387+996592975+995541877+994310415+993148608+992327005+991880040
3063+991654432+991528419+991458641+991454390+991573419+991781295+991856659
3053+991667853+991457488+991524229+991677023+991344835+990275276+988881971
3043+987941703+988096502+989436366+991330928+992864821+993622902+993870554
3033+993982599+994077094+994245192+994668412+995334609+995952223+996298561
3023+996446071+996595100+996886842+997359193+997865976+998111139+997998426
3013+997824316+997887171+998077070+998075795+997799356+997431460+997128119
3003+996844332+996470910+996065726+995770461+995473618+994836874+993793854
2993+992714456+991894493+991177891+990231551+988945797+987456904+985933699
2983+984418207+982818726+980987686+978708770+975661571+971638456+966790217
2973+961399365+955483570+948917186+941818695+934551134+927525031+921242616
2963+916285126+912969747+911065346+909877487+908535133+906362250+903192317
2953+899333839+895211555+891070869+886847471+882093787+876066980+868065266
2944+857787793+845569847+832386188+819409676+807316831+796004294+784952587
2934+773736365+762261681+750724264+739373892+728255627+717278435+706789322
2924+698249670+694170260+696880656+706955840+722749875+741406917+760271531
2914+777616038+792608146+805027348+815069313+823151858+829664375+834926664
2904+839470530+844162392+849773751+856462444+863851281+871511394+879139139
2894+886399777+892969804+898775315+903966673+908675539+912953350+916855857
2884+920419677+923590339+926214560+928023738+928633275+927674728+924976964
2874+920619537+914847791+907990758+900436557+892472495+883970009+874455779
2864+863831544+852820161+842231452+831823170+820278101+806636484+792069297
2854+780285077+775676293+780563702+794063273+813204265+834645307+855658392
2844+874517237+890558620+903839931+914731070+923785400+931620595+938611353
2834+944765448+949959175+954193504+957628822+960504341+963048521+965385616
2825+967522123+969453184+971233030+972890931+974348731+975493108+976315926
2815+976957406+977627794+978477817+979523996+980682159+981826415+982789698
2805+983388425+983553608+983436280+983320773+983414721+983721159+984106667
2795+984462600+984779727+985113554+985581653+986357041+987504819+988817112
2785+989951530+990766270+991404532+992047895+992675043+993119458+993343548
2775+993575472+994076547+994836874+995634428+996316901+996861093+997263241
2765+997563667+997895369+998330735+998761182+999048613+999190051+999248897
2755+999261650+999297966+999456712+999707705+999893839+999949892+999946673
2745+999898697+999754770+999586307+999557340+999727684+1000064002+1000520319
2735+1000955018+1001144431+1001036030+1000848924+1000832224+1001025402
2727+1001267286+1001357104+1001228055+1001006698+1000911414+1001092326
2718+1001521012+1001960022+1002112391+1001907430+1001575121+1001366760
2710+1001312165+1001327772+1001409331+1001564129+1001658502+1001511720
2701+1001139148+1000751090+1000495603+1000325319+1000162140+1000063577
2693+1000134690+1000354286+1000579591+1000704268+1000731474+1000703903
2684+1000635583+1000545036+1000478113+1000450177+1000413619+1000323618
2676+1000168881+999910236+999514769+999113107+998977195+999235658+999712016
2666+1000097099+1000179326+999907867+999395497+998902317+998733429+999091427
2656+999962220+1001067123+1002010427+1002594397+1002919844+1003117881
2647+1003180310+1003129784+1003113266+1003189055+1003245230+1003256161
2639+1003414299+1003877844+1004588312+1005415077+1006269959+1006991420
2630+1007379296+1007487758+1007672192+1008167558+1008789909+1009208271
2622+1009350073+1009350255+1009278777+1009160781+1009118028+1009211004
2614+1009260680+1009078068+1008759605+1008561872+1008595090+1008780800
2605+1009008716+1009226550+1009416693+1009550904+1009623718+1009684326
2597+1009730480+1009639022+1009372361+1009138615+1009139344+1009304527
2588+1009465944+1009628455+1009876715+1010153275+1010291676+1010215462
2580+1010016453+1009832322+1009667200+1009406551+1009026570+1008694686
2571+1008591021+1008710050+1008905658+1009092522+1009349162+1009826189
2563+1010542366+1011249676+1011600629+1011502491+1011193806+1010924351
2554+1010772225+1010786132+1010988481+1011160405+1010984777+1010535746
2546+1010305219+1010636982+1011389778+1012207859+1012892457+1013433431
2537+1013850821+1014088150+1014058636+1013797805+1013501143+1013305232
2529+1013094016+1012635148+1011873849+1011061599+1010654411+1010981497
2520+1011877857+1012766991+1013216689+1013215596+1012918692+1012502455
2512+1012225956+1012176522+1012052453+1011621581+1011207166+1011281620
2503+1011802735+1012319782+1012572901+1012722173+1013033955+1013510799
2495+1013928919+1014212523+1014565601+1015157345+1015887672+1016502674
2486+1016762777+1016596015+1016295953+1016352370+1016844943+1017241382
2478+1017001502+1016149839+1015124187+1014306471+1013847967+1013761853
2469+1014014486+1014536573+1015183580+1015674817+1015714898+1015334916
2461+1014958822+1014909874+1015062729+1015225179+1015478358+1015812125
2452+1015903522+1015637286+1015360119+1015289855+1015192264+1014930218
2444+1014837607+1015242062+1015981316+1016653647+1017079539+1017254317
2435+1017096786+1016600023+1016080669+1015904494+1016044170+1016188645
2427+1016163564+1015988421+1015703541+1015424917+1015435484+1015916457
2418+1016609072+1017001199+1016892251+1016542695+1016229697+1015961032
2410+1015691517+1015503379+1015437305+1015393398+1015318216+1015298479
2401+1015405241+1015584027+1015743076+1015854210+1015934372+1015993097
2393+1016028806+1016056984+1016127126+1016279435+1016466723+1016555630
2384+1016441824+1016133746+1015765364+1015589917+1015833501+1016403018
2376+1016954437+1017481626+1018511772+1020361031+1022541566+1024243314
2367+1025104209+1025323805+1025269634+1025077488+1024660037+1024041330
2359+1023343068+1022533914+1021739215+1021426460+1021696219+1021975936
2350+1021848163+1021493748+1021248524+1021189617+1021198848+1021377877
2342+1022032536+1022948693+1023252338+1022482295+1021289456+1020541760
2333+1020300059+1020172042+1020081191+1020159775+1020352286+1020554392
2325+1020834960+1021352492+1022151079+1023010273+1023558898+1023664688
2316+1023545538+1023388857+1023128330+1022728490+1022410270+1022374804
2308+1022506586+1022508894+1022206342+1021669133+1021173463+1021002450
2299+1021132168+1021240630+1021203463+1021335853+1021873183+1022519704
2291+1022845819+1022837924+1022728490+1022551404+1022190917+1021731806
2282+1021504315+1021712858+1022149864+1022451080+1022565736+1022753996
2274+1023188694+1023789790+1024323112+1024548295+1024506757+1024655421
2265+1025380040+1026442797+1027239926+1027460372+1027285959+1027103164
2257+1027112031+1027187092+1027282679+1027845759+1029234024+1030721763
2248+1030950225+1029645159+1028103614+1027541506+1027722965+1027778228
2240+1027717499+1028345923+1029993986+1031945331+1033051206+1032733472
2231+1031531402+1030613544+1030642694+1031377514+1032386952+1033554771
2223+1034809432+1035872432+1036309924+1035716237+1034344126+1033488576
2214+1034313397+1036369074+1038268070+1039500261+1040387148+1040620833
2206+1039361799+1036884906+1034801901+1034164733+1034349835+1034414572
2197+1034615099+1035609111+1036974178+1037619484+1037140818+1035897817
2189+1034327608+1032921124+1032346385+1032880922+1033943193+1034692468
2180+1034960040+1035153522+1035482795+1035841096+1036332029+1037157579
2172+1037964061+1038059648+1037554990+1037718594+1039720465+1043060560
2163+1045661583+1045789600+1043847972+1042064604+1042046628+1043164892
2155+1043883073+1043447282+1041951648+1039882004+1037983008+1036721302
2146+1035708950+1034538823+1033977809+1035099838+1037443249+1039170624
2138+1039016008+1037373167+1035680286+1035195182+1036086320+1037336244
2129+1037595193+1036365187+1034472021+1033244324+1033167198+1033570439
2121+1033710844+1033670642+1033861816+1034138012+1033978538+1033315255
2112+1032645658+1032345049+1032285170+1032169299+1031915695+1031600390
2104+1031309255+1031184882+1031430956+1032101161+1032981003+1033762342
2095+1034237122+1034355057+1034288863+1034397932+1034851092+1035295021
2087+1035213280+1034571860+1033802424+1033270195+1033102218+1033308697
2078+1033695176+1033847849+1033591451+1033359709+1033816148+1035046639
2070+1036277859+1036499763+1035369475+1033621451+1032637277+1033334932
2061+1035296357+1037152600+1037936611+1037804951+1037443492+1037258511
2053+1037254503+1037265191+1037275151+1037734991+1039200382+1041344844
2044+1042888697+1042886146+1041800797+1041035491+1041502618+1042868170
2036+1044222670+1045224334+1046195998+1047243331+1048115885+1049084148
2027+1051019338+1054023845+1056489078+1056325110+1053296554+1049531113
2019+1047365153+1046990941+1046740859+1045601947+1044299189+1043840806
2010+1044299796+1045180123+1046011382+1046285513+1045563566+1044039147
2002+1042567319+1041941203+1042342986+1043467080+1044961620+1046552234
1993+1047804224+1048023820+1046864746+1045135913+1044425505+1045404699
1985+1046782154+1046782883+1045513890+1044654818+1044972673+1045545226
1976+1045659640+1045919195+1046781790+1047478959+1047226812+1046594866
1968+1046675514+1047139120+1046584785+1044861053+1043242261+1042369221
1959+1041564076+1040344880+1039277750+1038958437+1038969126+1038165681
1951+1035873161+1032709180+1030123096+1029059489+1029263781+1029867913
1942+1030284150+1030455041+1030522572+1030589981+1030811034+1031409701
1934+1032433835+1033604811+1034528135+1034913400+1034546232+1033328251
1925+1031564195+1030037468+1029414753+1029490543+1029462000+1028837949
1917+1027817580+1026809843+1025871094+1024847689+1023831693+1023253189
1908+1023459667+1024414934+1025961459+1027946326+1029920383+1031245490
1900+1031791443+1032118287+1032809261+1033856108+1034756233+1035146356
1891+1035174656+1035231013+1035516925+1035998992+1036555512+1036925595
1883+1036822720+1036317819+1035781946+1035362673+1034814776+1033900076
1874+1032802946+1032095939+1032339098+1033716917+1035792513+1037682764
1866+1038814267+1039194187+1039064106+1038662808+1038205762+1037924708
1857+1038014587+1038484144+1039110988+1039555160+1039550059+1039058397
1849+1038279244+1037530577+1037127822+1037177377+1037331629+1037182357
1840+1036778630+1036343689+1035954174+1035626237+1035417086+1035222753
1832+1034694168+1033611856+1032318207+1031318972+1030732087+1030546985
1823+1030768888+1031115651+1031076663+1030381680+1029312243+1028483413
1815+1028299647+1028733252+1029499045+1030267024+1030785771+1030916217
1806+1030623746+1029957913+1029040055+1028121711+1027523531+1027233489
1798+1026810694+1025899151+1024461210+1022672134+1021054192+1020306496
1789+1020489533+1021168848+1022035815+1022939220+1023782260+1024536271
1781+1025140525+1025395465+1025146355+1024465218+1023564243+1022698126
1772+1022134682+1021982859+1022073224+1022075046+1021643749+1020582570
1764+1018884344+1016803161+1014946494+1013652419+1012548548+1011180020
1755+1009482159+1007454782+1004899427+1001761863+998414541+995181633+991944413
1745+988509520+984888614+981210805+977616984+974441161+972124774+970657926
1735+969637193+968810368+968225365+967818177+967473722+967223033+967028882
1725+966735258+966301349+965813574+965201122+964146441+962453316+960779322
1715+960231910+960711973+961555924+962590200+963922715+965595860+967573682
1706+969671383+971474124+972785567+973906503+975203127+976439084+977100362
1696+977018378+976362323+975336549+973799862+971540136+968810975+966048230
1686+963420183+961889144+963307045+967178701+971670643+975732502+978928062
1676+981303113+983076035+984126647+984080554+982748827+980655802+978706644
1666+976841474+974196241+970135414+964919764+958906257+951777219+943439613
1656+933735118+920560751+902546950+887230306+876749210+862440181+835334824
1646+796058585+757133239+721277197+683017136+643208790+610690535+599229819
1636+624316240+679732001+733028440+772434639+804303033+832368212+854876384
1626+868938185+873409479+869064379+860425679+853537978+850506325+849793671
1616+848576115+846191955+845275676+848024999+854655270+863639336+872879375
1606+881500039+889965358+898781084+907919706+917229644+926663833+936050290
1596+945027615+953119512+959773103+964448325+966697970+966695723+966080599
1587+967307386+971436593+977147063+982010970+984154582+982454170+975731227
1577+964790594+956967301+958441134+966518516+977165707+987720407+995690724
1567+1000451331+1003252214+1005080339+1006062023+1005908864+1004418696
1558+1002583162+1001839596+1001617814+1001192104+1000374448+999243674+998046281
1548+997169232+996856114+996754332+995926656+993303771+987441114+977613522
1538+967112506+957091371+942883396+917758958+879936328+837009001+794077970
1528+750342157+709905144+683701370+678392683+694296637+727380886+763285815
1519+791177978+814646275+838199107+860387298+879163309+894118311+905319533
1509+914773763+927166184+942099384+953285727+960832581+967083842+972913340
1499+978485834+983693285+987969274+990825420+992237187+992076498+989266385
1489+980693819+963358847+939679030+917674605+906762818+911916888+928650097
1479+946677136+959280712+965400313+965447560+958872431+945727699+927348067
1469+902031422+862732592+802883978+734675775+692025858+690820570+719230508
1459+763769279+811818733+837589145+830686505+811187333+798028938+800044473
1449+814890709+831303937+840775049+845582539+851506532+859666263+867875427
1439+876244552+888703228+907028447+924850465+936526891+943235685+946952117
1429+947553638+944239414+936756568+925641521+913113736+902410188+895781314
1419+895425260+903421691+917381284+932442501+945871506+956576146+964147716
1409+968627695+970321244+969615634+966789064+962047282+954884540+942831108
1400+922097680+889988193+844562899+783886307+713732286+649881389+604592979
1390+582625234+587361003+617081777+659234991+701046969+738406905+771145909
1380+798811977+821023367+838408076+852337001+863645106+871897752+877006761
1370+880535238+884521854+889773576+895288438+898697339+897344600+891094614
1360+883720352+879508310+879901288+882263281+881498157+875854246+870433697
1350+872167449+882132835+895022202+905378743+911235752+912112800+907084560
1340+896381135+883338428+871576981+860211791+844145388+817565761+776726297
1330+721386752+654909447+583205804+513376318+452987369+409387438+387976942
1320+390432064+413558700+448434850+482322331+505113652+516482425+526588277
1310+546599394+578516917+615939221+651811296+682571021+706715050+723614413
1300+734789339+743963304+754606123+768054014+783875133+800950671+817985763
1290+833836032+847881436+860041932+870546592+879813291+888260756+896018522
1281+902949523+908999892+914345623+919107809+922968352+925091195+924547671
1271+921259559+916856464+914239044+915549151+920094716+924195442+923547282
1261+916894237+908108208+903516306+906100690+913067764+919171332+920965570
1251+917270271+906914337+887908224+859985637+828343823+803697140+796172209
1241+807966814+832435439+859943612+883883410+902259155+915829354+925860024
1231+933126796+937925419+940206704+939392207+933919674+921037231+898421508
1221+868243445+839833932+825459560+831068065+851825359+877315386+899599286
1211+916060671+927196912+934059958+937539790+938662973+938765241+939137206
1201+940482171+942742808+945226078+946753534+945897923+941070878+930275630
1191+911428020+883597558+847792043+807205151+768513489+742204532+737192507
1181+751831536+771580122+779006610+767986119+747768037+732245644+725483591
1171+719049171+702505012+673017985+634829584+593845889+554752505+521295927
1162+497828783+489923355+501466238+530221997+567744807+604306399+633598486
1152+654388695+669967385+685650589+705071055+728036517+751489207+772009050
1142+787568853+797702944+802449098+800768909+790010159+768415594+739258507
1132+711049825+691775169+682806771+678210253+668666691+646417528+609223444
1122+561757231+513229597+472838647+446164557+433368592+428420879+421004926
1112+403295195+377345116+354527834+346431352+356880475+382064640+415617626
1102+452433794+489459750+525116570+558715073+590048140+619038526+645467423
1092+668790335+688236733+703621697+716321710+728972350+743875065+761680991
1082+781269191+800496782+816787337+826868412+827401005+818170015+803609508
1072+787093527+762797797+717127827+642091437+548002173+461262788+407416448
1062+395475881+417266479+457746853+503920175+548005452+587499587+623354900
1052+656651701+685772168+706117294+713592063+710264053+705750916+710265693
1043+726091124+747330667+766909393+781619294+791472210+797513045+801199903
1033+804082162+806976081+810020304+813894814+820277190+829991279+840579927
1023+846784670+842693114+821274542+775902083+711024805+649404180+617120582
1013+620173247+644175474+674419124+706215007+738479597+768372416+793457744
1003+813517809+829460447+842254590+852521374+860546226+866706394+871606435
993+875948741+880474873+885586069+891011233+896175263+900702428+904584408
983+908117743+911423405+914106473+915906541+917241668+918428677+918934003
973+918273757+917367256+917709828+918402138+915524313+906988244+897357171
963+894729366+902525270+916671969+930725085+941275292+948144956+951765134
953+951718433+946977502+936979990+922798554+906379861+887125610+860221751
943+820990512+771826924+724194071+692599201+684527163+695454861+715188264
933+738496662+766555829+798973395+829210365+849445936+857921701+860433270
924+864922783+874868857+888064723+900753987+911132452+919231636+925568647
914+930638182+934938767+938942205+942912121+946843170+950704927+954614538
904+958653321+962605686+965989566+968200952+967585767+959811787+940004052
894+909669004+879098147+859229925+853374252+859082718+873361867+892588548
884+911626725+926776607+937775358+945952275+952286674+957300582+961294789
874+964432900+966849610+968595873+969699440+970318633+970559849+970363633
864+969798671+969166057+968716906+968168341+965844120+958472956+943343114
854+920900287+893449989+861046208+821184117+773932945+725461060+684743176
844+657844844+646801275+652774640+677152415+717859733+766366051+811288933
834+845253631+866939047+877642412+878323427+869563876+852672225+831193349
824+811748955+801660107+804304126+816976447+833299613+847391899+856435298
815+860947584+863937880+869600677+881068195+898045899+916258830+927716267
805+920921906+886668745+831256993+781326580+765713700+790262609+835387233
795+876418176+899103737+898730375+877308706+846895257+827656796+834041053
785+862941196+898533735+926690493+940598589+935526988+908079605+865178817
775+827470054+816082395+835259034+869650232+897824602+908079484+901967049
765+883456606+849044092+795267711+734635026+692682885+682516365+687141182
755+672261787+615514240+524041242+429291277+366012265+350711228+375594238
745+420882739+470610196+518022269+562035066+602940300+640783334+675362974
735+706382559+733128158+753825391+765817668+767977556+763836688+760394022
725+761083235+760248515+747427226+719042551+685659455+665369835+668939789
715+693032016+726291104+758705330+785754696+807027943+823649835+836999345
705+848215931+857972895+866630786+874565759+882188160+889579486+896329333
696+901980956+906499983+910206942+913586936+917236385+921547597+926362860
686+931248448+935949966+940340915+944262855+947657424+950642194+953400141
676+956093047+958810305+961594062+964582840+967994291+971573902+974150633
666+975227844+975417804+974690818+971881372+964783913+949043624+915784476
656+854303467+765214265+672575999+614095124+611840985+655392424+715650412
646+770149043+812197621+843456417+866608316+882355225+887762718+880014183
636+864738713+855683473+861740401+878565189+896155162+909494773+919396151
626+927731996+935024334+940964724+945480957+949240811+953060240+956848576
616+959671503+960953189+961077197+960632357+959245064+954888608+943772893
606+921464641+886813827+846736451+815028929+803100902+810697797+825860250
596+833866458+827055457+809968259+797041241+801343648+823409591+853003745
586+878083547+889915682+887005427+878208345+877107814+889259323+906651077
577+915488482+908195537+890050683+875114385+874753715+889246752+909563640
567+926973490+939202672+948056596+955190310+960908978+965017234+967868886
557+970315354+972681477+974590250+975907827+976965422+977788482+977585830
547+974957418+969116320+961841593+957493640+959569721+967237304+976201451
537+982953727+986982367+989132721+989814890+989396406+988971424+989776812
527+992059798+994626145+995601513+993529500+987207854+975792017+961374223
517+950735170+950482841+960336607+974171706+985944448+993351868+997437897
507+999848232+1000774774+999146508+993499682+981800969+961843476+934511842
497+907385958+892587515+897363244+917309442+941187053+960971772+975476712
487+986300563+994273066+999716996+1003478490+1006653706+1009781310+1012618022
477+1014737707+1016298321+1017861972+1019552606+1021112977+1022793227
469+1025061698+1027459036+1029026452+1030007347+1031740917+1034389430
460+1036275308+1036296807+1035683444+1035910449+1036588427+1037328714
452+1038743214+1040629942+1041432415+1040077673+1036670290+1030939051
443+1021106054+1005227606+983226461+956881431+929757186+908472765+900186596
433+905495890+914851010+910840649+877323038+815551380+752383988+726367380
424+753725370+812730700+874219239+925077592+959808811+976702526+980036184
414+973244374+958659819+941901286+931053326+931710960+943656476+960732074
404+974901426+981798844+980980217+970423148+946343188+917256425+903446954
394+913321915+940871444+974343326+1001976540+1017717983+1023687280+1027101100
384+1034414815+1046005066+1057883902+1067010985+1072443315+1073741823
375+1070538733+1065982236
##END=
