##TITLE=S. Marschner STM186
##JCAMP-DX=5.0
##DATA TYPE=LINK
##BLOCKS=1


$$ === CHEMSPECTRA SPECTRUM ORIG ===
##TITLE=S. Marschner STM186
##JCAMP-DX=5.00
##DATA TYPE=INFRARED SPECTRUM
##DATA CLASS=XYDATA
##ORIGIN=Angelika Moesle
##OWNER=
##XUNITS=1/CM
##YUNITS=TRANSMITTANCE
##XFACTOR=1
##YFACTOR=8.625497e-010
##FIRSTX=3997.453
##LASTX=373.96442
##MAXX=3997.453
##MAXY=0.9261556873061031
##MINX=373.96442
##MINY=0.3840454823000596
##NPOINTS=2559
##XYDATA= (X++(Y..Y))
2559I18256397I18168152I18477041I18991098I19346494I19372960I19260046I19301369
2551I19485805I19531690I19329909I19103736I19064140I19160676I19269099I19405508
2543I19633202I19899939I20074285I20077326I19946860I19819641I19816255I19890886
2535I19862209I19646193I19408618I19468461I20008776I20783004I21204601I21001784
2527I20594284I20498646I20677346I20851347I21050156I21341770I21519088I21428632
2519I21198243I20941181I20664976I20511084I20650949I20980846I21234868I21424002
2511I21802479I22331115I22637517I22487564I22046066I21580935I21118706I20590000
2503I20033929I19590358I19457819I19759107I20357883I20981606I21525583I22014832
2495I22256001I21883329I21028388I20572862I20993146I21731026I22242387I22661151
2487I23284113I24065044I24559060I24361564I23854902I23666113I23676271I23466890
2479I23282662I23642204I24277190I24666998I25008920I25605347I26082917I26043113
2471I25831244I25961779I26222021I26254775I26185602I25999648I25432106I24714265
2463I24461211I24755658I25293071I25905668I26394431I26008907I24212026I22804263
2455I23142176I24423757I25689929I26478737I26727439I26547357I26050369I25341996
2447I24630720I24309323I24607778I25196051I25542878I25578535I25816387I26557514
2439I27378664I27818227I28093049I28524873I28690098I28069969I27292424I26889831
2431I26423455I25754332I25473498I25829240I26489172I26939239I26820382I26487306
2423I26725987I27482664I27929207I27658185I27188839I26822801I26546458I26684595
2415I27367746I28093671I28408642I28446925I28529918I28518170I28090768I27559644
2407I27575124I28070453I28315837I28120414I28159872I28847514I29897187I30652481
2399I30418982I29181281I28057669I28016276I28860437I29979004I31123279I32104608
2391I32372658I31650533I30676736I30351538I30873334I31733457I31882028I30968834
2383I30123291I29836860I29432885I28496126I27917114I28318463I29257018I30138770
2375I30475508I29998284I29157372I28887662I29417198I30256245I30955082I31359956
2367I31503897I31459049I31314279I31232392I31328998I31519376I31759992I32267415
2359I33177154I34119647I34474491I34245553I33828102I33262081I32722180I32643403
2351I33174113I33876958I34224269I34231318I34258130I34594522I35283201I36080095
2343I36528366I36161084I35122192I34313274I34127663I34304152I34648422I35161856
2335I35857515I36575217I36851905I36228943I35391693I35402473I35702034I35151768
2327I33879446I33209078I33461374I34059943I34595766I34991173I35331159I35664649
2319I35910241I36015484I36125012I36319744I36398936I36030202I35103119I34125314
2311I33699917I33870392I34312306I34597701I34580080I34639163I35134976I35735341
2303I35856755I35618626I35644886I35937191I35684274I34828366I34626171I35383538
2295I36423537I37141239I37334243I37230104I37223609I37382546I37451096I37242957
2287I36834975I36358234I35752755I35146170I35131659I36004220I37294163I38327251
2279I38703516I38379907I37593793I36768291I36348145I36561258I37321459I38380184
2271I39369184I39700877I38982553I37739186I36788814I36432727I36615090I37161970
2263I37824804I38300163I38406788I38314052I38378318I38661985I38759973I38090850
2255I36618199I35386786I35277742I35955779I36645149I36972628I37143796I37443080
2247I37753905I37790666I37619016I37665038I38127820I38730673I39128637I39303398
2239I39465028I39654993I39760099I39818629I39996430I40247481I40278232I40041347
2231I39916617I40106235I40196138I39682496I38793350I38262363I38346531I38613959
2223I38629507I38422958I38248957I38221109I38283785I38374241I38489297I38635104
2215I38808483I39025121I39287021I39539591I39728588I39891740I40125515I40428669
2207I40653599I40636807I40363988I40049018I40013361I40371796I40808251I40809564
2199I40288390I39776752I39745034I40024624I40160273I40035128I39823051I39600402
2191I39391850I39335945I39478159I39630047I39680838I39839429I40401028I41365634
2183I42312413I42663523I42253537I41640525I41552903I42070967I42683564I42991970
2175I43038269I43076275I43285795I43638081I43958719I44180332I44407818I44648365
2167I44765218I44743796I44657625I44454946I44148959I44014347I44199888I44415696
2159I44364629I44202652I44234301I44410099I44445272I44280254I44132513I44114337
2151I44047309I43786722I43466983I43237838I43021270I42752390I42657305I43003372
2143I43699929I44377828I44785811I44878685I44615611I44030655I43494417I43489994
2135I44014623I44540496I44705237I44756650I45182322I46066287I46942649I47262803
2127I46935324I46354031I45950194I45860844I45980185I46136288I46217829I46200139
2119I46040719I45666389I45126833I44623419I44351983I44423366I44873157I45626654
2111I46501980I47286989I47770432I47794342I47374335I46737690I46232479I46157572
2103I46557539I47220028I47932133I48593102I49083110I49337478I49560680I49978614
2095I50382105I50325510I49790170I49271277I49142262I49243221I49211088I48912495
2087I48367619I47496578I46165864I44335606I42003592I39152063I35907062I32693986
2079I30117279I28598537I28083651I28178599I28665636I29726640I31467273I33405055
2071I34815582I35586770I36309793I37429536I38691561I39640551I40275744I40884886
2063I41529132I42073800I42524627I43012701I43536846I43982974I44384254I44971145
2055I45905277I47003114I47782387I47882172I47458778I47008988I46790208I46656218
2047I46493204I46465632I46746397I47306061I47992391I48587643I48892386I48952989
2039I49067768I49418604I49827210I50006601I49954013I49981378I50336290I50855805
2031I51109482I50877849I50365728I49951871I49857753I50024913I50227246I50330347
2023I50468484I50883239I51593340I52352228I52886669I53040216I52808237I52428448
2015I52306896I52624078I53080503I53236330I53049476I52887429I53040630I53426363
2007I53803319I54091132I54390140I54786721I55216265I55520317I55618650I55593082
1999I55584652I55680843I55886009I56098017I56136300I55934243I55658592I55501314
1991I55409131I55177498I54800404I54566767I54735309I55224626I55774892I56282176
1983I56737840I56973965I56805768I56370490I56021520I55940324I56081156I56361575
1975I56630247I56614837I56213488I55732325I55558393I55751604I56167811I56689261
1967I57112240I57180997I56952750I56765411I56751661I56748966I56677859I56653051
1959I56740397I56856697I56824150I56362059I55176254I53288157I51234351I49744148
1951I49189321I49402434I49890715I50105487I49737376I48960867I48270875I48037446
1943I48342327I49107089I50081646I50841294I51110311I51055651I51098287I51466329
1935I51989576I52324656I52305652I52001807I51524928I50957732I50449135I50138794
1927I49921328I49472297I48665038I47896960I47804016I48572233I49697296I50585130
1919I51191507I51799889I52349118I52400600I51838379I51228823I51255565I52009961
1911I53015339I53805184I54294363I54682791I55172108I55758998I56253982I56543316
1903I56765551I57086602I57385127I57401504I57165656I56989444I57054884I57262331
1895I57433222I57453884I57279814I56965672I56659270I56472485I56369384I56228689
1887I56003345I55778071I55642698I55627427I55805712I56265108I56873351I57313674
1879I57469294I57522641I57582554I57487192I57102842I56583672I56195521I56003208
1871I55863136I55692038I55621829I55831556I56279274I56698866I56890281I56941625
1863I57081627I57377733I57694086I57876932I57830287I57492374I56920894I56378989
1855I56186261I56450027I56966363I57398602I57539641I57405581I57095448I56615597
1847I55838398I54575336I52648610I49892995I46112586I41119144I34971340I28316874
1839I22475471I18956616I18617943I21175094I25530370I30501215I35213269I39063058
1831I41707141I43196583I43919468I44291173I44473328I44220204I42912847I40012670
1823I35756625I31336115I28215292I27190912I28007569I29801617I31906421I34161524
1815I36516411I38683753I40322734I41344696I41901458I42185747I42260171I42002970
1807I41282918I40235319I39267948I38717682I38582932I38684789I39023462I39770326
1799I40903958I42117888I43169288I44068109I44847658I45395574I45629488I45689676
1791I45820212I46058616I46122536I45674404I44665296I43372036I42160110I41248574
1783I40619945I40162001I39967753I40376980I41547651I43100600I44446654I45429020
1775I46368197I47484692I48611620I49540225I50262903I50703503I50583057I49815808
1767I48797232I48114219I48102610I48719975I49680711I50654440I51436269I52003811
1759I52439850I52801673I53072279I53226586I53276133I53219123I53063711I52906364
1751I52820952I52732432I52621245I52681434I52992189I53247524I53110977I52670654
1743I52333294I52426375I53013335I53957142I55066657I56188749I57183968I57908788
1735I58314629I58516064I58697183I58958460I59261131I59504995I59656054I59774634
1727I59950639I60281987I60853883I61624656I62380710I62918607I63232334I63458369
1719I63721167I64103582I64630768I65157885I65404444I65276742I65056787I65097281
1711I65407968I65698615I65754104I65634694I65554604I65647893I65870819I66092639
1703I66223312I66238099I66181229I66172798I66315219I66569932I66796521I66893748
1695I66865554I66794102I66770469I66837291I67006939I67286529I67632180I67952335
1687I68214717I68461347I68714815I68990122I69353119I69809129I70172402I70208612
1679I69917551I69590625I69547713I69815486I70106271I70170813I70108759I70215868
1671I70587918I71041094I71386263I71608152I71761630I71836814I71766467I71503531
1663I71090157I70660268I70335761I70117466I69915201I69671821I69381657I69002353
1655I68449875I67751038I67118333I66769571I66709313I66787468I66903699I67048470
1647I67218601I67423284I67710268I68090264I68494378I68874720I69272338I69743688
1639I70273016I70799856I71281088I71693149I72021386I72289783I72578702I72958284
1631I73411944I73849780I74177949I74358169I74445170I74547857I74686753I74738788
1623I74612952I74438812I74456917I74737544I75099090I75313240I75320841I75236190
1615I75181253I75154856I75085201I75003245I75108074I75584054I76321381I76909309
1607I77016487I76770066I76628405I76856168I77262493I77500069I77465725I77315702
1599I77256827I77438429I77923737I78626653I79333851I79833810I80005393I79841756
1591I79436262I78924624I78439729I78126348I78086337I78277752I78595764I79008584
1583I79435571I79632306I79475305I79219901I79184935I79309112I79297503I79091024
1575I78937270I79071951I79517112I80151131I80816107I81344330I81602843I81589092
1567I81462772I81456207I81730684I82287169I82993607I83678969I84216521I84541511
1559I84646271I84620358I84672185I84990818I85495200I85842511I85830349
1552I85704236I85879964I86404248I86862538I86867099I86492699I86153957
1545I86154095I86495325I87034120I87595581I87944896I87902190I87603390
1538I87459379I87706353I88084000I88137416I87805032I87467810I87407898
1531I87499321I87506715I87404926I87342526I87478175I87875655I88450038
1524I89073345I89686011I90173048I90306624I90037814I89682211I89607649
1517I89862707I90196474I90349744I90292251I90213266I90320376I90723245
1510I91435626I92272186I92861010I93030451I93008684I93027894I93037362
1503I93048418I93365807I94163945I95080664I95502398I95178859I94433446
1496I93787335I93476372I93385847I93356893I93396696I93581270I93871986
1489I94105899I94148535I93994782I93739654I93554735I93669791I94173827
1482I94784488I95014049I94668742I94027536I93507054I93342658I93609049
1475I94253986I94985647I95394528I95324251I94984334I94688505I94642275
1468I94903622I95387550I95936088I96392098I96595951I96500382I96342620
1461I96432523I96729181I96920182I96885561I96798561I96814109I96880931
1454I96862204I96741067I96662428I96770781I97075801I97493390I97899922
1447I98135009I98101288I97877187I97640372I97516747I97546875I97722189
1440I97988166I98240184I98379219I98402438I98417433I98540367I98794735
1433I99060297I99083101I98688455I98084910I97757916I97959281I98469329
1426I98893137I99039704I99015795I99009092I98979378I98673459I98038819
1419I97434169I97303703I97789150I98665305I99505527I99983097A000139614
1412A000216111A000234216A000042249I99712281I99541598I99730249A000196624
1405A000596799A000637915A000406697A000036168I99275069I98004613I96809272
1398I96368603I96634027I97126730I97649009I98363671I99392060A000453480
1391A001141675A001552561A002028265A002482063A002602371A002494432A002599192
1384A003106545A003761710A004115724A003804346A002828336A001760698A001428590
1377A002104278A003148007A003822589A004190493A004707313A005364550A005768111
1370A005773777A005628800A005511463A005258132A004739930A004277908A004328215
1363A004872744A005455559A005757746A005836799A005878676A005943632A005959595
1356A005867066A005698938A005486724A005214528A004974741A004979164A005318320
1349A005846750A006289768A006384854A006082874A005687952A005605443A005932714
1342A006363778A006433226A006006308A005679452A006245266A007530925A008465541
1335A008510871A008186711A008031298A007996954A008076768A008756948A010447480
1328A012695672A014382127A014897082A014760603A014674432A014542998A014129902
1321A013995565A014826044A016332901A017590227A018097580A018126051A018378000
1314A019326505A020638007A021480510A021531439A021286746A021379413A022011635
1307A022934434A023681643A023955014A023863453A023698574A023546962A023090952
1300A021746764A019328026A016613873A014596069A012904224A009657633A003281168
1293I94130016I84112313I75063640I67794089I62529558I59746924I59992101
1286I62933602I67292541I71962166I76772969I82031972I87736827I93336300
1279I98084910A001690213A004612020A007488081A010267743A012255832A013134890
1272A013553515A014137779A014385582A013608521A012606598A013006635A014916569
1265A016429299A015725901A013035727A010620375A010848967A013595529A016690715
1258A019117607A021428683A023512825A024147948A022744263A020243984A018209596
1251A017632449A018268610A018693454A017557680A015275212A013889562A014809183
1244A017271317A019438452A020328358A020186007A019704705A019355183A019068752
1237A018429343A017370964A016428815A016078257A016216808A016536754A016980671
1230A017515941A017817092A017632656A017286935A017312503A017692568A017983906
1223A018093987A018411514A019177658A020071503A020497522A020223046A019639265
1216A019297828A019455728A020203490A021488041A022763888A023247954A022747718
1209A021768393A020873718A020414184A020640358A021519692A022486786A022837414
1202A022516638A022233800A022594103A023457888A024381172A025142340A025492622
1195A025161688A024646734A025143514A026896170A028294328A027587682A025278749
1188A023716195A024192314A025602081A026403881A026667232A027436347A028967182
1181A030528769A031555637A032181363A032780001A033346921A033495769A033114736
1174A032628182A032272371A031665234A030710095A030133639A030244410A030228171
1167A029688685A029645842A030813680A032202993A032744068A033071132A034288586
1160A035974903A036869439A036758391A036445839A036496697A036651074A036202735
1153A034917007A033550360A033223088A034426100A036587223A038316176A038506071
1146A037457850A036270179A035314970A034465074A034346218A035450274A036707323
1139A036907653A036595101A036852509A037153106A036050363A033452234A030997839
1132A030257194A031442723A033898984A036841867A039530590A041317521A041699521
1125A040612879A039034984A038602193A039925789A041800964A042669587A042413976
1118A042012281A042008342A042033219A041596834A040768360A039887161A039134838
1111A038737081A038933680A039263507A038669430A036987605A035274476A034335576
1104A034076302A034133312A034472123A035224929A036206535A036929075A037125673
1097A037073154A037284264A037899624A038482783A038639094A038537858A038399031
1090A037904600A036745400A035260517A034024198A033323357A033185773A033553608
1083A034284440A035159696A035953204A036511763A036882085A037332152A038105827
1076A039164276A040246910A041164043A041868201A042218415A042071018A041765653
1069A041940621A042735995A043720020A044399646A044605780A044547734A044589886
1062A044940307A045538875A046141798A046450895A046355533A046108836A046102410
1055A046434449A046945672A047452956A047801649A048027684A048316465A048665986
1048A048914481A049030919A049104998A049249423A049544906A049924212A050338414
1041A050993648A051990870A052888310A053185728A052938755A052342121A051518622
1034A050631272A049649665A048353366A046634156A044474346A042071778A040135724
1027A039218729A039149211A039535358A040123631A040844097A041727370A042648373
1020A043362551A043900032A044537368A045374895A046233774A046845542A047192507
1013A047670630A048606973A049788217A050767889A051427268A052003102A052672985
1006A053312187A053698610A053869985A054118893A054481407A054647185A054669297
999A054860505A055375114A056289898A057548537A058856032A059995953A061016464
992A061986460A062949409A064008755A065144737A066144241A066850403A067210152
985A067324932A067578125A068230249A069150560A070085660A070835910A071363579
978A071876806A072507646A073075947A073467208A073741823A073726274A073125218
971A071946047A070122285A067462516A063998459A059537179A053542575A046422909
964A039551666A032585614A022060283A003915394I79760354I51887580I16140053
957H69848535H15386850G55906707F96381510F46167715F11077010E87910071
950E69765597E54538127E48467545E55205177E73016161E99924846F33108449
943F69496631G08005923G46085810G77530234H01155117H22969506H46142802
936H65757232H80705768H94425241I06112192I14603689I21573126I28367664
929I34681108I40021169I44862308I49770614I53777958I55976465I57212508
922I58416279I59811604I61270296I62932082I65246129I68834571I74296184
915I80582678I85425820I88638067I91259207I93704826I95775561I97409499
908I98836818A000279893A001923850A004091192A006968151A009435538A010907774
901A012127163A013662214A015266919A016309198A016957176A017586565A018282223
894A019004002A019632838A020024099A020435468A021226972A022272429A023486497
887A024976700A026704202A028419197A029890535A030780649A030729996A029657244
880A026991946A021153516A011751934A001545097I90949004I75680522I50551200
873I13704868H69231447H23738413G81843012G47952485G28679354G28737815
866G45906834G73226508H04086944H34049664H60669258H83413287I02991715
859I20012231I34430472I46167453I55643458I63483937I70026595I75344682
852I79688902I83766108I88315771I92738630I95565489I96253339I94054901
845I88400422I81995693I78497914I77860578I77910953I76648169I70922928
838I52857784I23324331I06698323I06626732I14689584I26542796I39484102
831I51491759I61145980I68308837I74073811I79200344I83330346I86020796
824I87471334I88288268I89205816I90783779I93394001I96667127I99395308
817A001061239A001939881A002225277A001956328A001076580I98975715I95059173
810I90854402I88968862I90455264I94651466I99781868A004380664A007756062
803A009406238A008695792A005739364A003829223A004863624A007118173A009669727
796A012500732A015818430A019634704A023259840A025951810A027792572A029058951
789A029527330A028376975A024712727A018097857A008480191I96213605I82600205
782I69949684I60037916I53199498I49604906I50390951I56607651I66025264
775I74173665I79827315I84304281I88772403I93198509I96508121I98224567
768I98754102I98355241I97101024I95976029I95957994I96509227I96862550
761I96485594I94980948I92309432I89080739I85960400I82788165I78769834
754I72791746I62313888I43075861I16795493H98154584H97228744I11211983
747I34149016I58781557I78564253I92426837A002703123A010821464A016860708
740A021201749A024662144A027243204A028209055A027261586A024252018A018876853
733A010953520A000200218I85206350I63448280I35543028I09879611H96125862
726H96358738I06864031I22036806I37648108I52686686I66500208I77474155
719I85444824I91697388I97213938A002106282A006200902A009593438A012303790
712A013913955A013890046A012033667A008155684A001536183I91716045I79695536
705I66604760I52610811I39195252I30125917I28336982I33933484I44796936
698I57241116I68375244I77768049I85818601I92500916I97776435A002147605
691A006311052A010481755A014394013A017831258A020776421A023154803A024855839
684A025982077A026920909A028203389A030193758A032914406A036191264A039759597
677A043273961A046425120A049074938A051210423A052806976A053761010A053913589
670A053126162A051320988A048492539A044740461A040171243A034550278A026954562
663A015636137I98340107I73837618I44884144I19843067I09010988I17272303
656I40044733I66392684I86118162I94377473I91260451I78885581I59060387
649I32842281I02088126H71487724H47842179H35168854H30169332H23829352
642H07514307G77314287G34124452F81742693F25280548E69901522E20101619
635D80176271D54392683D45244468D51808997D70783949D98704266E32639122
628E69480202F05559078F37398701F62918867F81871569F95332805G04990689
621G12513986G19169074G26073900G34694204G46559994G62241711G80802668
614H00344195H19003140H35574488H49609277H61149039H70266608H76724753
607H80102293H80286383H77881742H74212242H70745905H68121724H66021412
600H64843001H67123741H75680540H90049717I06209282I20223617I30961302
593I39219853I45762511I50835006I54687904I57749782I60283369I62145346
586I62907965I61978877I58542116I51801616I41812315I30211881I19868428
579I13462317I12229384I15838764I22924502I31440806I38854920I42138135
572I37882643I24535427I06351150H92975671H91296679H97637073I00716503
565H93249733H79276168H69195375H68529707H72684516H72222702H61581208
558H42477725H21308757H05098955G98655805H03221016H16868276H36204982
551H57942805H79579323H99489029I16793488I31187752I42825501I52178641
544I59765444I65930662I70907380I74965583I78288463I80697734I81672637
537I80608246I76882635I69639619I57618625I39412097I14515375H84914270
530H55636843H32560152H18191872H08970581G97299938G77312974G49516074
523G20628250F99370761F91526482F96988509G10146245G23154650G29335555
516G24517151G07835722F83843419F62828965F55533708F65866796F89353612
509G18178554G46176266G69897409G88258452H02797554H16820526H32716808
502H50143235H67021123H81665054H93597113I02886540I09216361I11795142
495I10618873I07689465I05888368I06530472I09200260I13754138I20698491
488I29498187I38188078I45019448I49381634I50913437I48851201I43268934
481I36841540I34135334I38048006I47210077I57519117I65741527I71159675
474I74686961I77488252I80194735I82698469I84537711I85495338I85624007
467I84702797I81881604I75877603I65318065I49012694I26852515I01447473
460H77966669H60123345H46598881H34533522H26742314H31157779H51164299
453H80024898I07161243I27109370I40532392I49631787I55451629I58327551
446I58780935I57954120I57723522I59914637I64825154I70683556I75045121
439I76927275I77471115I78489553I80303088I80485174I74659251I59895357
432I38528617I17766803I03997092H96927939H89125743H71950437H44454273
425H17591991H06800544H18125810H43307719H69172709H88804070I02784959
418I14016038I24565902I35531695I47020528I58026470I67143486I73662442
411I78015576I81217595I84000367I86617015I89183150I91721712I94060084
404I96133584I98220905A000588921A003077177A005178871A006457896A006885504
397A006700998A005916060A003996037I99277764I88049587I66613536I37774428
390I13650830I06718293I17363933I33860857I44525431I46855096I45960490
383I48120784I56167051I68500804I81405762I92249313A000427151A006264684
376A010195116A012694566A014270664A015414662A016491146A017598588A018687580
369A019758813A020804477A021705924A022247414A022171055A021379620A020084909
362A018609287A017173881A015796593A013919829A010355297A004465868I97496016
355I91644248I86728824I78594382I63695737I46212647I37164457I43793425
348I62081149I81687840I95649035A003334032A006818958A007460094A005073765
341I97151814I77762591I41619104H94642570H57570270H50835646H75229022
334I12971963I46434536I69890808I85402533I95400334A000838521A001610883
327I96100553I82084905I60383707I37741812I24184454I25848451I40332547
320I59020031I73514631I80865585I84314647I89134985I97264866A006307251
313A013155137A016858981A017959720A016645729A011752971A000156959I76239564
306I32601527H64171667G75904796F87829686F28557820F18244980F54493019
299G13833505G67244481G96696255H02421289G98843281H02851591H22573270
292H54664289H90184192I21794048I46700167I65481079I79487674I89227721
285I94379892I94221992I88031413I74851149I50199536I04307917H32989972
278G52770474F92362903F63758537F55389352F57970966F79274477G25697359
271G85711320H40946751H82849408I12797064I34277478I49676704I60710771
264I68662643I74000148I75969579I71982206I56614423I24370686H79451828
257H41164978H30604817H50103431H82127007I07836516I19803332I18418028
250I05085255H81160880H48184791H07117726G60641773G17386566F89953977
243F85920789G02779881G31957385G64246178G90597721H02842194G99485108
236G89879950G87617799G98866361H19302839H40890778H58202355H69774941
229H76398587H76313384H61945311H27747139G83993907G55770989G61799315
222G97131120H41146320H78077165I04686324I23781308I37914154I48475074
215I56357291I62152256I66299326I69182849I71273970I73452922I76868469
208I81257675I84810114I87116491I88873846I90630647I92569881I94470624
201I95858278I96449799I96460510I96416697I96707138I97368936I98303690
194I99245216I98926445I94865477I85682952I74018114I65061279I60584589
187I56435861I48749205I40716759I39196081I45988684I56960628I68371513
180I79591812I90209811I98418332A003040552A004955116A005946258A007221689
173A008956102A010548232A011310920A011180246A010812688A010939768A011587539
166A012146581A012254658A012102769A011812054A011316794A011101676A012064348
159A014098182A015665091A015449628A013904834A012622077A012485392A013080437
152A013769599A014432227A015169139A016015442A016993247A018005603A018725932
145A018870634A018516205A018088666A018032969A018377585A018654204A018367910
138A017445526A015902321A013045125A007548891I99094848I90204765I85431349
131I87486122I94584713A002474323A008223750A011018062A010459089A005911016
124I97610657I87744290I80109531I78078736I82292352I90417120I98922851
117A005018276A007790821A008300039A008296308A008397682A007951899A006689874
110A005284529A003840418A001003607I95394391I86917682I76051120I63166824
103I49044896I35746467I26188989I21825006I21453786I23306571I27794663
96I36776859I49804060I63166548I73595896I80568374I84534601I85136210
89I81853825I75446332I68354099I63378832I61774194I63183893I67036722
82I72860918I79507161I85332532I89608685I92994518I95934222I97606580
75I97112771I94797688I91953000I89631489I87870472I85501281I81232867
68I75455661I70078699I66642214I65352409I66124634I69203649I74169795
61I79564931I83992834I87291459I90083076I92419029I93655625I93271620
54I91457878I89015714I86468652I82162300I72205961I55853738I40021377
47I33561020I39582919I54297611I70146005I81608164I88061334I91457117
40I93938117I96911060A000377121A003119605A004386952A004921325A005494809
33A006020820A007117551A009535598A011966982A012750954A011740394A009940818
26A007613295A004321166A001064349A000085507A002362584A007310556A014663652
19A023544336A028127514A022376636A011754284A003345849I96553867I88630534
12I79551525I70968122I64169437I60761769I62230550I67227792I73563141
5I81075865I90250374A000422038A008210620A009263817
##END=


$$ === CHEMSPECTRA PEAK TABLE AUTO ===
##TITLE=S. Marschner STM186
##JCAMP-DX=5.00
##DATA TYPE=INFRAREDPEAKTABLE
##DATA CLASS=PEAKTABLE
##$CSTHRESHOLD=0.93
##MAXX=3997.453
##MAXY=0.9261556873061031
##MINX=373.96442
##MINY=0.3840454823000596
##NPOINTS=163
##PEAKTABLE= (XY..XY)
3996.036468107897, 0.7919656640571544
3988.953808647381, 0.7929074768992862
3980.4546172947616, 0.792738498237758
3966.2892983737293, 0.7933872348053735
3960.6231708053165, 0.7930356276333146
3950.707447560594, 0.7939758309577062
3936.542128639562, 0.7939865593508748
3915.2941502580143, 0.7930780659411043
3902.545363229085, 0.7940398459462414
3888.380044308053, 0.7967079286683161
3884.1304486317435, 0.7963771831233014
3872.798193494918, 0.7985754617628268
3861.465938358092, 0.7973937402096867
3851.5502151133696, 0.7959645402093711
3837.3848961923377, 0.7972627292608531
3813.3038540265834, 0.7982668880578506
3806.2211945660674, 0.7991413478441082
3796.3054713213446, 0.7991923693839625
3783.556684292416, 0.8000662926643068
3777.890556724003, 0.8005499846595758
3766.5583015871775, 0.8004601604589172
3755.226046450352, 0.8024744399964386
3742.477259421423, 0.8003746283055658
3732.5615361767004, 0.801211775054351
3721.229281039875, 0.8032342203498823
3704.2308983346365, 0.8044512874646291
3685.8159837372946, 0.8057315354823511
3674.483728600469, 0.8068218241796421
3667.401069139953, 0.8049392111287262
3646.153090758405, 0.8053625832983748
3640.486963189992, 0.806121767629976
3633.404303729476, 0.8070175651707122
3626.32164426896, 0.8061615234081987
3617.822452916341, 0.8084019427758673
3606.4901977795153, 0.8065975319309523
3595.1579426426897, 0.8076468115653065
3582.4091556137605, 0.8077197677440319
3573.9099642611413, 0.8093425040583844
3563.994241016419, 0.8067235357787774
3552.6619858795934, 0.8087430009650952
3532.8305393901483, 0.8107247960183649
3525.7478799296323, 0.8092979197269411
3517.248688577013, 0.8092623361016172
3493.167646411259, 0.8108082425265417
3484.6684550586397, 0.8105767971531898
3474.7527318139173, 0.8102239375589665
3459.1708810007817, 0.8121361740167791
3435.0898388350274, 0.8142592918005459
3429.423711266614, 0.8144217142218044
3411.0087966692727, 0.8130887756305585
3398.260009640344, 0.8138070112777018
3381.2616269351056, 0.8158519872339468
3368.512839906177, 0.8145505196310551
3352.9309890930413, 0.8161079298813284
3334.5160744956997, 0.8186823733454214
3314.6846280062546, 0.8005182747449547
3270.7721393510556, 0.8163736469419104
3255.1902885379204, 0.8193825489269461
3243.8580334010944, 0.8192995198928241
3226.859650695856, 0.8214120274527312
3219.77699123534, 0.8219127660177213
3204.1951404222045, 0.8242392549072044
3188.6132896090694, 0.8233612785058199
3174.4479706880375, 0.8245460396841028
3164.532247443315, 0.8242166052146321
3148.95039663018, 0.8251608021441347
3136.2016096012508, 0.8187229640717537
3126.2858863565284, 0.8177294146360662
3117.7866950039092, 0.8203327664533547
3096.538716622361, 0.8175280696595952
3083.789929593432, 0.8204821359100031
3061.125419319781, 0.8254509578253668
3041.2939728303363, 0.8242761504706219
3020.045994448788, 0.8242713219174013
3000.2145479593432, 0.8247581725696717
2974.7169739014853, 0.792353631149267
2950.635931735731, 0.7997482429883264
2926.5548895699767, 0.8095744264217204
2895.391187943706, 0.8107689033598241
2872.7266776700544, 0.817785621824717
2850.0621673964033, 0.8216831690883765
2841.562976043784, 0.8214347970397118
2799.067019280688, 0.8324094421098139
2790.5678279280687, 0.8328388340138188
2780.6521046833464, 0.8333720570630606
2770.7363814386235, 0.8338875780048093
2748.0718711649724, 0.8362830889838361
2742.4057435965597, 0.8367670190428222
2711.2420419702894, 0.8338348279153561
2670.1626170992963, 0.8405019049589564
2655.997298178264, 0.8409887564737765
2646.0815749335416, 0.8423905377442285
2637.5823835809224, 0.8429325829518018
2620.584000875684, 0.8436480765534489
2609.2517457388585, 0.8445956719287695
2603.5856181704457, 0.844382048557319
2590.836831141517, 0.8465547569109879
2579.504576004691, 0.8492839944067926
2571.005384652072, 0.8502188930505292
2562.5061932994527, 0.8506067997641629
2551.1739381626267, 0.8517327911186363
2542.6747468100075, 0.8516883861975306
2537.0086192415947, 0.8516319995985422
2522.843300320563, 0.8535857807626553
2515.760640860047, 0.8541081555243202
2505.8449176153244, 0.8565193424815948
2487.430003017983, 0.8568196900500821
2476.097747881157, 0.8569903386078295
2464.7654927443314, 0.8568074116551025
2453.433237607506, 0.8579283959085675
2443.517514362783, 0.859395027978214
2436.434854902267, 0.8597882997509817
2429.352195441751, 0.8596708782726716
2416.6034084128223, 0.8604077708698259
2396.7719619233776, 0.8606157911184252
2381.1901111102425, 0.8602240098315391
2352.859473268178, 0.8594174396070691
2197.0409651368254, 0.8278294213721228
1715.4201218217354, 0.4730805163994865
1602.097570453479, 0.6285221581888938
1565.267741258796, 0.8434533481957266
1555.352018014073, 0.7820106156985804
1518.52218881939, 0.8530347952274414
1476.0262320562938, 0.8190814267888282
1454.7782536747459, 0.8590632689373018
1433.5302752931975, 0.7739043839685767
1402.3665736669273, 0.7729530934303414
1365.5367444722438, 0.8007367853230054
1304.625873111806, 0.7840671549961036
1269.2125758092257, 0.3840454823000596
1222.4670233698198, 0.7459700710596497
1191.3033217435495, 0.7868431815003848
1177.1380028225171, 0.7687876830824463
1168.638811469898, 0.7491500382139379
1158.7230882251756, 0.6888803250060085
1110.5610038936666, 0.5964759595911554
1097.8122168647378, 0.5654304031752876
1070.8981109147771, 0.7813737400518896
1052.4831963174352, 0.8057381521010998
1018.4864309069585, 0.7131063349180058
1001.4880482017197, 0.826084137446593
973.1574103596558, 0.6959055671870368
923.5787941360436, 0.7820895916116621
916.4961346755276, 0.815937936861353
868.3340503440186, 0.8083509212360129
848.5026038545734, 0.7338880312066062
830.0876892572319, 0.7971550235423638
798.9239876309616, 0.533267022025506
790.424796278342, 0.6890420323735656
762.0941584362781, 0.5653058889507944
735.180052486317, 0.7164379365844545
716.7651378889755, 0.5916407707757133
705.4328827521499, 0.6793594962421103
689.8510319390148, 0.6518900398306533
653.0212027443313, 0.8594589239348905
633.1897562548866, 0.8101032979077257
559.5300978655196, 0.8499835144505453
543.9482470523844, 0.8436415203131792
512.7845454261137, 0.7947996866781641
492.953098936669, 0.8295780425024418
464.62246109460466, 0.8326644307772273
439.12488703674717, 0.805242777732694
385.29667513682534, 0.8287047756224193
##END=

##END=

