##TITLE=NiW-X13997
##JCAMP-DX=4.24
##DATA TYPE=INFRARED SPECTRUM
##DATE=27/2/2020
##SAMPLING PROCEDURE=Diamant-ATR
##ORIGIN=Marie
##XUNITS=1/CM
##YUNITS=TRANSMITTANCE
##RESOLUTION=4
##FIRSTX=3997.453
##LASTX=373.96442
##DELTAX=-1.4165319
##MAXY=1.0097578
##MINY=0.35897502
##XFACTOR=1
##YFACTOR=9.404102e-010
##NPOINTS=2559
##FIRSTY=0.9974255
##XYDATA=(X++(Y..Y))
3997+1060628119+1060124109+1059673720+1059312192+1058977537+1058854197
3989+1059210338+1059978268+1060715142+1060984514+1060724840+1060307979
3980+1060210308+1060536026+1060906808+1060924111+1060657972+1060500722
3972+1060638260+1060894892+1060997190+1060808186+1060383847+1059896887
3963+1059486681+1059232585+1059245895+1059587648+1060072073+1060387840
3955+1060478476+1060632429+1061088079+1061655851+1061914574+1061814115
3946+1061762269+1061962681+1062096733+1061845045+1061392754+1061115270
3938+1061090298+1061175292+1061244188+1061183468+1060864976+1060321543
3929+1059818357+1059581246+1059545182+1059453406+1059224599+1059177253
3921+1059674227+1060604098+1061431227+1061775515+1061713782+1061454424
3912+1061155390+1061017219+1061074135+1061014303+1060636739+1060317170
3904+1060567717+1061106016+1061087699+1060370727+1059670488+1059554943
3895+1059960331+1060562329+1061073185+1061275562+1061175419+1061060445
3887+1061149369+1061290900+1061110009+1060524681+1059819054+1059230937
3878+1058809449+1058627164+1058855908+1059444469+1059955198+1060116694
3870+1060243964+1060691945+1061324239+1061880919+1062262539+1062426380
3861+1062436775+1062471825+1062618363+1062781824+1062745633+1062257405
3853+1061386733+1060752791+1060678508+1060999408+1061506714+1061969653
3844+1062151621+1061957737+1061385782+1060391643+1059158935+1058348349
3836+1058396962+1058970375+1059659142+1060370283+1060973295+1061212117
3827+1061030275+1060684719+1060519230+1060737706+1061305478+1061849735
3819+1061995893+1061864186+1061797065+1061876862+1061874707+1061615984
3810+1061138087+1060593069+1060151300+1059915267+1059868555+1059995445
3802+1060344424+1060813764+1061085607+1060969049+1060620450+1060501990
3793+1060930132+1061584230+1061809171+1061391233+1060796271+1060547878
3785+1060709058+1061079903+1061549243+1062094705+1062636934+1062992251
3776+1062991554+1062680730+1062322815+1062129565+1062046598+1061919962
3768+1061790537+1061763219+1061767402+1061697366+1061593610+1061568575
3759+1061668464+1061781537+1061658196+1061148355+1060421242+1059981945
3751+1060388093+1061573709+1062798874+1063494169+1063371082+1062582236
3742+1062018837+1062121959+1062418268+1062428092+1062226855+1062247011
3734+1062466818+1062448501+1062177544+1061870524+1061484594+1060949717
3725+1060505603+1060431256+1060602703+1060694036+1060552505+1060194716
3717+1059787046+1059720306+1060379600+1061620231+1062569749+1062553904
3708+1061981062+1061455058+1061066339+1060752030+1060613668+1060814524
3700+1061330514+1061905257+1062192122+1061958751+1061296731+1060535963
3691+1059890929+1059354657+1059004221+1059094983+1059596205+1060095524
3683+1060187111+1059816012+1059370947+1059347305+1059873816+1060539956
3674+1060751080+1060463834+1059978078+1059396806+1058794808+1058365842
3666+1058134626+1057921664+1057661737+1057577629+1057925974+1058553198
3657+1058882909+1058478154+1057612806+1056910158+1056666266+1056809952
3649+1057053527+1057271940+1057696977+1058292320+1058621713+1058456858
3640+1058127464+1058073717+1058271911+1058398484+1058291812+1057998419
3632+1057584411+1057095359+1056696182+1056673175+1057019428+1057387104
3623+1057498593+1057320617+1057098909+1057248172+1057903727+1058617213
3615+1058855718+1058504394+1057865825+1057368724+1057333801+1057845290
3606+1058549395+1058843295+1058444499+1057572115+1056726162+1056298717
3598+1056307590+1056554461+1056861798+1057058344+1057013914+1056802917
3589+1056601427+1056355380+1055794073+1054950148+1054233239+1053949607
3581+1054104384+1054432574+1054618345+1054626395+1054657071+1054766595
3572+1054825223+1054775215+1054584119+1054125364+1053518549+1053268889
3564+1053460681+1053568747+1053312052+1053013778+1053046230+1053260523
3555+1053212353+1052716455+1052035674+1051681942+1051982941+1052726596
3547+1053271995+1053169253+1052730526+1052595840+1052850951+1053046483
3538+1052848986+1052336800+1051759775+1051296772+1051057317+1051088818
3530+1051275033+1051332710+1051007562+1050285710+1049399763+1048638234
3521+1048147914+1047901804+1047829232+1047874233+1047912515+1047744174
3513+1047321609+1046923256+1046877558+1047071886+1047036519+1046591010
3504+1046038006+1045678823+1045502622+1045412557+1045422762+1045552630
3496+1045781628+1046094162+1046393513+1046446754+1046126233+1045666400
3488+1045450840+1045453438+1045156432+1044254703+1043170182+1042589163
3479+1042701348+1043217274+1043837843+1044402255+1044802637+1044934787
3471+1044685888+1044030079+1043183619+1042495105+1042111900+1041867691
3462+1041509459+1040967546+1040417585+1040041289+1039720261+1039128911
3454+1038220084+1037363545+1036847239+1036508465+1036017322+1035299272
3445+1034519806+1033862476+1033440672+1033234999+1033073820+1032818202
3437+1032463265+1031954818+1031190310+1030352026+1029921602+1030143184
3428+1030706773+1031126992+1031245072+1031232332+1031266558+1031332475
3420+1031278411+1030998962+1030583812+1030280088+1030228305+1030280088
3411+1030207136+1030035879+1030001970+1030216770+1030556812+1030847289
3403+1030968221+1030785619+1030202636+1029323407+1028370466+1027419996
3394+1026453111+1025605383+1025038688+1024676716+1024417866+1024393021
3386+1024615870+1024626708+1023898835+1022451581+1020781984+1019328709
3377+1018197032+1017316725+1016618768+1015919923+1014861325+1013307209
3369+1011669240+1010477857+1009754738+1009088090+1008135783+1006820426
3360+1005286656+1003872043+1002834424+1001940111+1000607831+998667975+996693260
3350+995334233+994537210+993675095+992327667+990621055+988806062+986859171
3340+984731326+982750019+981386872+980611970+979816088+978502252+976774027
3330+975009739+973344516+971659074+969858721+967986557+966171120+964549123
3320+963157771+961890141+960604636+959233440+957748284+956107082+954308695
3310+952466383+950783604+949433577+948476642+947897208+947608379+947359226
3301+946853188+946082215+945288488+944503697+943512093+942360704+941462461
3291+941033051+940820660+940545520+940276656+940219232+940375594+940582915
3281+940722482+940721911+940506034+940102990+939661728+939279221+939035899
3271+939209754+940134174+941773157+943654131+945234677+946278317+946972472
3261+947738564+948843178+950202965+951599451+952998408+954613813+956666931
3251+959054007+961368004+963359895+965164051+966954896+968731544+970568468
3241+972638572+974806981+976626158+977929029+979100700+980579772+982368779
3231+984208808+985980132+987659426+989116378+990270936+991274899+992254778
3221+993091541+993665651+994088152+994520288+994990135+995489455+996088410
3211+996870919+997831973+998882966+999932184+1000896153+1001682148+1002328640
3201+1003127310+1004345884+1005827237+1007123263+1008009590+1008671801
3193+1009419829+1010375433+1011428707+1012450671+1013495769+1014665159
3184+1015852041+1016861900+1017742142+1018707126+1019805275+1020907987
3176+1021891858+1022595520+1022836370+1022735593+1022769186+1023256273
3167+1024030352+1024756324+1025322448+1025848324+1026492724+1027282078
3159+1028046142+1028578040+1028845701+1028942421+1028929554+1028865856
3150+1028848109+1028898941+1028991225+1029200193+1029544735+1029681323
3142+1029158805+1028079101+1027148850+1026937789+1027348565+1027910886
3133+1028347648+1028690606+1028998323+1029217370+1029334816+1029435276
3125+1029463797+1029115642+1028187166+1026918902+1025749512+1024843600
3116+1024094240+1023425818+1022791179+1021998593+1020894233+1019667230
3108+1018669668+1017946294+1017145278+1015870676+1014031343+1011908189
3099+1009918135+1008224961+1006530329+1004261650+1001077361+997327076+993955178
3089+991769592+990810693+990497968+990240006+989795701+989256261+988876859
3080+988869253+989246944+989773010+989991677+989471821+988161345+986387042
3070+984495610+982748054+981513572+981209848+981981391+983629628+985833721
3060+988326010+990938850+993576473+996094875+998235396+999811695+1000948950
3050+1001998612+1003184417+1004387652+1005224479+1005258388+1004314320
3041+1002770409+1001338937+1000330663+999335700+997896495+996298266+995393622
3031+995769855+997343428+999683348+1002435818+1005377101+1008292082+1010941620
3021+1013089874+1014531234+1015155859+1015028842+1014382541+1013450832
3013+1012286323+1010831336+1009156035+1007416783+1005535809+1003202925
3004+1000288958+996980252+993351912+989070933+983702707+977090998+969242336
2995+960114887+949814373+938772865+927432704+915940300+904369113+893013169
2985+882202054+871942801+861938596+851987884+842329489+833620612+826715383
2975+822508370+821722186+824554897+830653278+839522384+850669231+863301806
2965+876339959+888895017+900506832+910980821+920238519+928215466+934767659
2955+939815872+943556334+946257274+947839658+947941829+946436200+943608306
2945+939768399+935012502+929505787+923704158+918077145+912771984+907698735
2935+902900246+898819742+896221416+895738893+897426553+900801810+905321421
2925+910691104+916711020+923052406+929370911+935508526+941363206+946666402
2915+951171118+955024145+958689880+962462983+966191592+969515066+972279769
2905+974653535+976895403+979132454+981318864+983291361+984897069+986182193
2895+987379660+988637023+989824603+990646661+990884025+990540244+989816427
2885+988919261+987885698+986632582+985111805+983299600+981089486+978420870
2876+975573518+973150948+971653750+971176550+971573572+972790751+974935899
2866+978056553+981928911+986157537+990495687+994936451+999424054+1003644694
2856+1007230251+1010070631+1012349134+1014325751+1016143280+1017822954
2847+1019368513+1020792252+1022048664+1023008134+1023569187+1023837165
2839+1024161425+1024869396+1025957657+1027145491+1028186469+1029026148
2830+1029741535+1030425866+1031075970+1031606981+1032011925+1032369651
2822+1032679079+1032900788+1033175167+1033737995+1034560624+1035271194
2813+1035546207+1035497086+1035524720+1035841184+1036330173+1036841408
2805+1037346496+1037809625+1038186301+1038560062+1039083023+1039781107
2796+1040501756+1041031055+1041290412+1041431753+1041679892+1042124006
2788+1042739948+1043492920+1044289753+1044935865+1045268871+1045310006
2779+1045233441+1045200039+1045256385+1045416106+1045737197+1046225045
2771+1046776274+1047310581+1047829168+1048280825+1048517492+1048450181
2762+1048174598+1047917649+1047879810+1048121738+1048575613+1049089067
2754+1049458011+1049574062+1049594281+1049794313+1050197610+1050533595
2745+1050620491+1050604012+1050716007+1050952991+1051160122+1051317562
2737+1051526974+1051783226+1051993589+1052142472+1052229495+1052157874
2728+1051862199+1051416120+1050931378+1050505644+1050292936+1050446763
2720+1050956287+1051599673+1052070851+1052165733+1051902383+1051487868
2711+1051200876+1051261405+1051665716+1052134803+1052376857+1052391625
2703+1052373688+1052402653+1052420464+1052428260+1052499374+1052621827
2694+1052695413+1052684891+1052658905+1052651680+1052612193+1052532205
2686+1052491514+1052502353+1052460964+1052324250+1052153944+1051936672
2677+1051599736+1051243659+1051085839+1051163291+1051353689+1051628701
2669+1052004617+1052348843+1052499057+1052451204+1052266890+1051973624
2660+1051681752+1051593335+1051784557+1052107486+1052362026+1052476556
2652+1052497726+1052457922+1052322286+1052101401+1051923045+1051874305
2643+1051831269+1051591940+1051147826+1050710366+1050484601+1050494869
2635+1050613900+1050694648+1050676394+1050601223+1050561737+1050605850
2626+1050704789+1050810890+1050889419+1050889039+1050813742+1050821855
2618+1051078043+1051515185+1051932489+1052252503+1052498930+1052654658
2609+1052713033+1052727420+1052738322+1052792133+1052984496+1053333538
2601+1053711799+1054012418+1054229500+1054349608+1054352016+1054335981
2592+1054502104+1054946788+1055544983+1056092663+1056521249+1056843481
2584+1056963779+1056810459+1056646554+1056918208+1057707625+1058569931
2575+1058995348+1058892099+1058563085+1058282939+1058022821+1057657046
2567+1057295011+1057202727+1057429507+1057697357+1057710477+1057470324
2558+1057198798+1057025576+1056904961+1056803931+1056762226+1056755127
2550+1056700872+1056661513+1056871686+1057439267+1058064970+1058237368
2541+1057798894+1057184030+1056945335+1057124705+1057269595+1057055619
2533+1056667344+1056428142+1056282744+1055974710+1055565899+1055373980
2524+1055480651+1055669401+1055784059+1055895230+1056166756+1056628364
2516+1057038823+1057062971+1056698084+1056380859+1056550975+1057163051
2507+1057732914+1057890164+1057764668+1057693047+1057757189+1057885854
2499+1058186472+1058796710+1059563373+1060162582+1060443489+1060504906
2490+1060533047+1060626408+1060717741+1060687825+1060558019+1060470173
2482+1060451792+1060334346+1059984226+1059511337+1059182830+1059170344
2473+1059398834+1059580803+1059460188+1059118878+1058957002+1059275811
2465+1059971677+1060669444+1061050811+1061040480+1060784165+1060484307
2456+1060283260+1060294479+1060608091+1061179222+1061835094+1062446472
2448+1062959990+1063262827+1063232974+1062946489+1062628504+1062373964
2439+1062157833+1062091409+1062325540+1062666406+1062627743+1061975167
2431+1061011197+1060270521+1060030178+1060117518+1060146990+1059886112
2422+1059358651+1058719638+1058192177+1057992842+1058150218+1058466555
2414+1058694095+1058648524+1058242565+1057584348+1056983237+1056717098
2405+1056843354+1057247728+1057721886+1057966919+1057723407+1057036541
2397+1056267343+1055769100+1055641450+1055772270+1055942956+1055952653
2388+1055806876+1055719092+1055837743+1056075360+1056222278+1056135192
2380+1055881413+1055747614+1055969830+1056446269+1056923278+1057355160
2371+1057787169+1058028969+1057873177+1057597848+1057803394+1058574177
2363+1059234359+1059280184+1059072610+1059116660+1059254388+1059078251
2354+1058546036+1057865825+1057308448+1057181812+1057655335+1058597185
2346+1059551521+1059950761+1059670171+1059233535+1059187647+1059531238
2337+1059881802+1060003304+1059996332+1060047544+1060164990+1060185970
2329+1059999501+1059725883+1059649128+1059988156+1060691311+1061389965
2320+1061612625+1061176053+1060379474+1059773926+1059751616+1060314761
2312+1061127186+1061756437+1061956153+1061803467+1061563314+1061433889
2303+1061433382+1061445044+1061317203+1060971394+1060469539+1059972184
2295+1059633790+1059500498+1059498787+1059608501+1060004445+1060804827
2286+1061723416+1062270462+1062330294+1062249736+1062289920+1062256011
2278+1061847010+1061178018+1060664437+1060442411+1060269316+1060016361
2269+1059890231+1060048178+1060246119+1060036453+1059293621+1058465414
2261+1058189832+1058616770+1059175731+1059046813+1057912284+1056270512
2252+1054862301+1053776575+1052392132+1050178025+1047167148+1043709178
2244+1040206905+1037021349+1034146742+1031024758+1027225035+1023394445
2235+1020938283+1020483140+1021159612+1021664953+1021535084+1021229078
2227+1021630917+1023481721+1026625572+1029948920+1032539513+1034455854
2218+1036151057+1037959902+1040178066+1042711553+1044885730+1046387492
2210+1047779224+1049426003+1050788452+1051328843+1051394570+1051951821
2201+1053902704+1057311173+1060861934+1062723006+1062383408+1061017979
2193+1059927436+1059449413+1059475716+1059980930+1060673564+1060962901
2184+1060764960+1060719579+1061262949+1062009203+1062224954+1061499045
2176+1060195477+1059560204+1060678825+1063068689+1065231964+1066525455
2167+1067288695+1067462741+1066741205+1065805567+1065663339+1066029684
2159+1065844483+1064956381+1063950136+1063086055+1062390443+1061947279
2150+1061846503+1062202517+1062955996+1063482507+1062965694+1061386670
2142+1059609388+1058374906+1057730062+1057490036+1057590369+1057754844
2133+1057547650+1057124388+1057234355+1058133485+1059098343+1059318910
2125+1058815407+1058217529+1058029096+1058394110+1059250205+1060272295
2116+1060825173+1060527026+1059826660+1059390468+1059069567+1058331426
2108+1057480719+1057324293+1057791542+1057993476+1057559439+1056995343
2099+1056743909+1056674506+1056690351+1057229538+1058645672+1060481074
2091+1061959258+1062858579+1063383378+1063589368+1063413801+1062888178
2082+1062105480+1061367021+1061250843+1062066690+1063436619+1064709700
2074+1065425785+1065286599+1064346651+1063435224+1063643750+1064995551
2065+1066211082+1066242519+1065502223+1065087454+1065422743+1066126404
2057+1066705965+1066955562+1066786840+1065979613+1064496612+1063012596
2048+1062461240+1062986927+1064163098+1065768172+1067262835+1067607251
2040+1066737022+1065845244+1065443912+1064714644+1063385280+1062675470
2031+1063390604+1064367567+1064057377+1062877657+1062746330+1064733912
2023+1068202403+1071631471+1073633060+1073741823+1072542771+1070828300
2014+1069055899+1067619293+1066727642+1066011177+1064977044+1063747061
2006+1062983187+1063090555+1063682159+1064128238+1064499654+1065219668
1997+1065990388+1066203983+1066027910+1065909132+1065844990+1066039825
1989+1066871137+1067572011+1066587695+1063703962+1060675909+1059542964
1980+1060842159+1063209903+1064728841+1064969945+1064954733+1065057538
1972+1064465681+1062867516+1061291534+1060547435+1059695714+1057451627
1963+1054657071+1053603734+1055051178+1057307624+1058417308+1057984666
1955+1056602061+1054790046+1052929164+1051443881+1050681274+1050885806
1946+1052217579+1054343396+1056193186+1056771416+1056164601+1055203167
1938+1054568718+1054623543+1055366564+1056373570+1057274539+1058091400
1929+1058743913+1058755765+1057948411+1056996040+1056833340+1057582066
1921+1058424407+1058634009+1058325722+1058085252+1058182860+1058482464
1912+1058814647+1059005425+1058815407+1058187423+1057455873+1057074126
1904+1057109240+1057120078+1056662653+1055833876+1055103975+1054762982
1895+1054707777+1054560668+1053949163+1052910213+1051981356+1051654625
1887+1051881150+1052349730+1052807345+1052997489+1052790295+1052399041
1878+1052191022+1052366399+1052908628+1053647467+1054274944+1054434666
1870+1053965515+1053210578+1052857099+1053193085+1053913226+1054547485
1861+1054753221+1054449117+1053836407+1053213493+1052821415+1052839986
1853+1053270981+1053822463+1054160033+1054221133+1054145139+1054052665
1844+1053982819+1053943015+1053977114+1054111800+1054228295+1054162505
1836+1053955184+1053761110+1053570268+1053268762+1052843409+1052394287
1827+1052004427+1051636561+1051206580+1050783509+1050548110+1050506151
1819+1050468883+1050295281+1050005183+1049720917+1049561639+1049505927
1810+1049418777+1049269134+1049157582+1049187752+1049461560+1049989338
1802+1050526370+1050750424+1050613519+1050284823+1049908970+1049578879
1793+1049397354+1049492870+1049865681+1050270372+1050511031+1050626830
1785+1050664161+1050527701+1050216497+1049919301+1049761925+1049694170
1776+1049611964+1049477849+1049373206+1049323895+1049065489+1048423244
1768+1047663426+1047122464+1046851318+1046681012+1046399725+1045957195
1759+1045541792+1045246434+1044921287+1044454355+1043891971+1043317417
1751+1042840851+1042482302+1042096182+1041706575+1041454380+1041208840
1742+1040744697+1040119501+1039515285+1038954866+1038304571+1037306185
1734+1035933721+1034816558+1034244793+1033779066+1033162934+1032439244
1725+1031632650+1030897044+1030534565+1030584573+1030832395+1031036990
1717+1030925122+1030568284+1030347716+1030206122+1029872798+1029384570
1708+1028830235+1028077263+1027103152+1026032321+1024741746+1023015106
1700+1020887324+1018437628+1015321221+1010991058+1005517111+999317953+991865679
1690+982301024+971097450+958634358+941917731+917488394+890438358+867904256
1680+848956409+831004665+812862334+793974952+775588792+759825170+746021051
1670+731733965+716896283+703777066+692576977+681474053+669423068+657268960
1660+646284369+636683651+628231913+620550007+612757057+604804512+599324417
1650+597333730+598123527+602553960+611286542+621981606+632521956+643039361
1640+653726059+664410729+676008726+690238389+705778464+719029516+730234928
1630+742034352+755930755+771297038+786806881+802674005+819716223+836438238
1621+850488340+862489381+875021116+888418452+899644400+907254114+912300235
1611+915607991+917578206+919036615+921191651+924905365+930142772+936068502
1601+941699128+946434489+950110111+952788679+954477226+955039420+954391154
1591+952583639+949817859+946534315+943130980+939452569+934810125+928579213
1581+920724782+911381013+899680020+884363871+867605412+853847308+843439489
1571+834162144+825209882+817631605+811797017+806766424+801874257+796996921
1561+791479811+783661762+773817849+765377519+758438255+751524787+744585079
1551+737952771+731593638+725700613+720723197+716921699+714441453+713323466
1541+713654254+715704140+718665833+721471923+724649303+729418701+735901555
1531+742657266+748904404+755284326+762387622+769729422+776623115+783518203
1521+791024605+798328377+804674643+810626677+816506519+821929507+826884105
1511+831647418+836289925+841473014+848703770+856875742+862176974+863313785
1502+859333741+848244000+831363342+818280695+820338947+836341137+856682808
1492+875406856+890652207+901335292+907268184+909732649+909906378+908057918
1482+904092833+898034445+889778303+878879023+864766933+846441936+823016627
1472+797601074+776756597+763024099+754989919+751369185+751025594+751439349
1462+749906656+744457872+732109817+710485304+687344198+675619183+675843617
1452+681926090+688814713+693456396+694709196+692835828+688721288+683066451
1442+676250337+668594164+659615662+647167591+629491494+608635862+587213917
1432+564498163+539227881+512802438+488250807+466890753+448419059+433158623
1422+422161863+416079612+415566253+421086246+431296061+444389768+459610242
1412+475962457+491225397+502776112+509107199+510471899+508543547+505921611
1402+505549372+510374038+522990988+544349299+573826975+610449018+650575870
1392+687375191+716497423+737560820+750220395+753202750+747297302+736130299
1383+723855006+713691333+706753843+701257966+693847967+681830638+664606324
1373+643606563+619882790+592745350+562716508+534262761+513351195+503824982
1363+506426445+518346326+535028283+553757021+573825200+594622902+614917860
1353+633275626+648509695+659732284+666458840+669003102+668536804+666525390
1343+664202140+662600552+662861177+666141805+672997279+682996668+695000117
1333+707727890+720385754+733033350+746232238+760210593+774438164+788036039
1323+800435306+811530371+821316607+829623075+836405153+842250705+848267768
1313+855226934+862771683+869581522+874318595+876354536+875778145+873020984
1303+868623130+863267263+857723597+852507803+847627044+842754208+837600212
1293+832082215+826281156+820400110+814746414+809652629+805330896+801758269
1283+798726349+796051458+793699370+791687196+789962457+788453913+787100908
1273+785713422+783905971+781280708+777585184+772598515+765991623+757423326
1264+746676670+733615129+718163978+700416133+680531253+658424850+633781537
1254+606521708+577190443+546926393+517286555+490210120+467923143+452521398
1244+445424820+447075466+456910569+473392780+494007720+515389704+533766611
1234+545704713+548940404+543077929+529910700+513076214+497050509+486007069
1224+483081630+490090773+507460230+534189809+567908978+605274739+642744384
1214+677352352+707142308+731253723+749853226+764007210+775391929+785718683
1204+796100199+806817130+817577667+827856821+837014249+844331838+849162399
1194+851141994+850369183+847439498+843191287+838311733+833180997+827987197
1184+822803031+817508264+811727297+804898570+796517756+786493459+775343125
1174+763901553+752631048+741170906+728671116+714602696+699165235+682855897
1164+665640267+646575861+624308469+598005891+567892942+535132736+501569233
1154+469724795+442792141+424142155+416363529+420475819+435834433+460531652
1145+491928806+527224241+563831390+599338995+631349524+657535226+675789046
1135+684464204+683051303+673152437+658836513+645641364+638514934+639994829
1125+649912012+666570011+688028972+712461984+737972863+762670430+785001711
1115+803915840+818770507+829178517+834949849+836136415+833022607+825931354
1105+815029983+800506800+783126125+764678167+747893215+735796024+730701543
1095+733261016+742256124+755421167+770636412+786584538+802631730+818330703
1085+832963472+845345753+854087334+858451407+859423743+859985303+863838394
1075+873179502+887300211+903281613+918074800+930076855+939223635+946242253
1065+951951599+956828618+960906649+964044099+966170676+967230923+967155182
1055+965989785+963776375+960223079+954805226+947270682+937765986+926335126
1045+912390427+894539904+870708762+838757178+797837867+749981890+700775633
1035+658094759+628924610+616494032+620570606+640025759+673363181+716310258
1026+760950129+798937473+825367258+839502609+843100271+838850856+829623455
1016+818094353+806660894+797577686+792936383+794319431+802185650+814830521
1006+827707494+835581827+837470533+838613302+845384859+858762800+874408470
996+887951140+898118616+905652145+911549354+916618799+921487896+926467403
986+931571328+936765128+942097988+947492644+952571977+956942768+960527501
976+963367501+965298293+966126689+966028131+965567094+965367379+965848571
966+967190992+969351289+972035053+974782072+977205529+979135560+980562849
956+981515600+981949003+981740541+980868792+979493983+977728870+975497840
946+972768694+969666802+966139873+961699996+955676278+947605526+937320287
936+924823349+910187094+893499243+874887824+854705875+833812658+813706323
926+796259477+783042968+774632301+770365203+768569033+766925423+762862350
916+754237897+740420024+723247304+706891381+696204113+694621095+703217660
907+721100318+746093179+775229926+805395228+834096417+859808849+881749890
897+899607702+913540675+924139273+932098536+937875827+941702550+943924580
887+945309023+946911562+949542340+953397331+958166412+963288020+968116109
877+972158457+975252934+977400174+978540851+978628698+977726905+975902975
867+973239492+970010266+966617770+963222547+959411796+954187002+946401531
857+935611268+922874684+910795177+902478061+899864460+902547464+907998783
847+913068800+915670358+915590751+914169927+913259515+914111362+916814015
837+920496292+923958508+926260779+927058880+926481854+924569380+920962336
827+915310097+907668312+898224970+887084397+874800484+862767183+852536008
817+844817341+839406269+835921488+834322752+834757296+837185696+841294024
807+846627834+852702891+859109434+865640014+872245131+878821599+885179085
798+891284501+897385418+903793925+910682041+918101991+925956865+933818331
788+940942732+946682565+950923804+954061950+956533006+958440410+959648653
778+960021716+959396901+957511617+954220975+949674744+943929461+936382938
768+926036979+912574994+896912528+880642931+865424897+852900008+844390339
758+840146312+839016852+838979204+838060742+835069260+829632709+821439758
748+809602938+792957996+770669307+742325274+707906753+668066766+624312652
738+578862385+534409236+493622836+458360358+429428556+407097877+391538882
728+382968462+381721748+388014076+401424944+420396528+441842623+461573295
718+476034554+483815430+485296878+481356100+472694854+460157447+445478916
708+431407993+420780018+415351643+415227479+419307222+426747992+437956479
698+453817962+474416677+499053493+527216477+558815882+592936572+626707777
688+656413880+679884698+697342001+710357781+720710648+729860470+738639574
679+747233920+755673109+764288751+773284556+782047181+789967908+798023702
669+808230538+819594658+828476946+834779607+840270286+845585335+850281590
659+853684355+855261224+854647754+851582623+845665005+836011870+821081081
649+799649818+773147716+746896097+728270608+722928241+731629449+749944939
639+771016638+789186160+801882940+809120795+812173820+812718458+812500742
629+813084486+815387898+819308490+823967984+828442403+832271472+835537586
619+838751791+842462336+846613257+850380592+852890437+853875260+853302417
609+850634181+845096980+836622171+825809598+813094881+798767801+783753348
599+769598730+757537033+748015224+741058277+736519018+734052715+733440069
589+734931564+738775337+744386568+750401286+755734589+760328102+764744084
579+769315668+773668078+776940530+778704882+779644450+780964751+783309551
569+786501128+789930513+792648757+792862923+787770977+775039464+755475675
560+734253191+718874421+715172686+724297980+742447283+763153144+780841157
550+793499844+802237560+808260200+811145455+810264261+806249041+800273873
540+793161957+785361972+776573107+765720477+752361550+737639857+723501020
530+711695575+703394114+698891807+697698523+699358422+703771678+710429085
520+718222352+726547454+735885963+746591612+757882399+768670380+778560879
510+787519289+795226674+801532630+807273920+813876819+822119208+831366764
500+839935124+846470014+850859313+853641699+854958450+854714241+853578064
490+852689455+852246671+851543580+850393775+849429425+848715812+846910199
480+842300460+834245300+823511827+811336170+798158641+783893992+769631625
470+757703156+749663778+745587078+744591037+744939952+744363877+740937662
460+733783914+724089454+716981025+719974408+736655668+764574602+797638152
450+829070578+855032480+874715807+887904808+895499754+900714787+906625622
441+913075328+917777604+919714924+920463967+922171910+924195936+923380279
431+918279079+911206650+905193643+900798704+896654249+891318918+884771098
421+879926593+882283753+892907196+903841208+908448476+906630693+902055307
411+899655491+901519352+904245519+902394715+895084922+887599942+885478879
401+888603716+892096165+893202110+896221480+905043493+916176079+924176414
391+927132022+927070795+927592806+930802827+935392158+938024520+938192607
381+938973405+941744509+943601968+940755250+934922944+933086527
##END=
