##TITLE=X8109
##JCAMP-DX=4.24
##DATA TYPE=INFRARED SPECTRUM
##DATE=30/10/2018
##SAMPLING PROCEDURE=Diamant-ATR
##ORIGIN=ComPlat
##XUNITS=1/CM
##YUNITS=TRANSMITTANCE
##RESOLUTION=4
##FIRSTX=3997.453
##LASTX=373.96442
##DELTAX=-1.4165319
##MAXY=0.91645408
##MINY=0.39515442
##XFACTOR=1
##YFACTOR=8.5351437e-010
##NPOINTS=2559
##FIRSTY=0.91525197
##XYDATA=(X++(Y..Y))
3997+1072333403+1072647728+1072798989+1072732088+1072861561+1073232940
3989+1073417931+1073294953+1073226725+1073380360+1073553340+1073668986
3980+1073741823+1073442303+1072455823+1071202296+1070524414+1070726514
3972+1071419970+1072177882+1072860373+1073398936+1073614445+1073341602
3963+1072705970+1072170131+1072116009+1072448700+1072736278+1072524610
3955+1071576399+1070194795+1069181638+1069154892+1070000795+1070986298
3946+1071328556+1070911855+1070559889+1071161373+1072342901+1072940124
3938+1072502542+1071236934+1069371448+1067522862+1066905736+1067993686
3929+1069568590+1070232227+1069887175+1069404270+1069556788+1070154641
3921+1070329715+1069660911+1068735396+1068589373+1069466004+1070585798
3912+1071237143+1071321782+1070773583+1069141553+1066321362+1063456197
3904+1062331584+1063358289+1065405903+1067850316+1070458769+1072248066
3895+1072330819+1070986787+1069586189+1069434648+1069930682+1069434858
3887+1067896267+1066715297+1066293707+1065512330+1064665449+1065584260
3878+1067904577+1069096301+1068192644+1066023728+1063584971+1061879895
3870+1062419785+1065157921+1067508127+1068002415+1067703035+1067966241
3861+1068521564+1068435178+1067384660+1065338792+1062460009+1060205616
3853+1061617248+1066190073+1069872021+1071485474+1071545602+1070380275
3844+1068125673+1065036060+1061633659+1058909769+1058396138+1060857939
3836+1064595545+1067243874+1068211429+1068238315+1068101510+1068091943
3827+1068290761+1068472540+1067818331+1065943697+1064243160+1064600573
3819+1066012414+1066823611+1068023435+1070450110+1072268178+1071760901
3810+1069201192+1066026381+1064198047+1064468865+1064669849+1062895147
3802+1060698577+1061006058+1063553965+1066411448+1069251263+1071775846
3793+1072980209+1072789282+1072119850+1071604682+1071292662+1071195522
3785+1071256837+1070896351+1069553925+1067763162+1066995613+1067868752
3776+1069157475+1069517332+1068790705+1067666023+1067031787+1067136399
3768+1067248273+1067056648+1067333052+1068246207+1068640212+1067763442
3759+1066436868+1065898026+1065867857+1064948837+1062260074+1058298998
3751+1055414210+1055434392+1056356625+1056127219+1055605346+1056577511
3742+1058288802+1058325745+1055704790+1050777696+1045358129+1042819091
3734+1045069085+1049993735+1054614047+1057636828+1058892171+1058816471
3725+1058196900+1057693674+1057748633+1058761790+1060636774+1062536688
3717+1063523727+1063012260+1060819251+1057659036+1055832727+1057384028
3708+1060932243+1063550264+1063777435+1062039537+1060079425+1059672710
3700+1060895370+1062494019+1063650965+1064183382+1064084497+1063497399
3691+1062884812+1063079720+1064448404+1065840412+1066104107+1065384534
3683+1064282268+1063130699+1061776680+1059709443+1057028152+1055701718
3674+1057259234+1058976601+1058634063+1058100459+1060329782+1064501757
3666+1067652335+1068620589+1067745774+1065889157+1063771080+1061739808
3657+1060516868+1061072889+1062401209+1061784990+1058129440+1053434405
3649+1051894208+1054645403+1058142290+1060441586+1061767183+1062467621
3640+1062695561+1062510919+1061760129+1060273006+1058234960+1055804723
3632+1052564478+1048541110+1046253126+1048651798+1053121407+1055749694
3623+1056114648+1055312601+1054574521+1054979700+1056309207+1056836526
3615+1055842504+1054613489+1054682834+1055947116+1057481936+1059082959
3606+1060449827+1060450735+1058671075+1056302922+1054917897+1054702597
3598+1054500985+1053564506+1052422505+1052105527+1052602189+1052653587
3589+1051476598+1050355547+1051716829+1055274750+1058160586+1058788886
3581+1057788718+1056832965+1056889880+1057373343+1057304487+1056613755
3572+1055606045+1053969755+1051339583+1048619883+1047861273+1049474726
3564+1051397825+1052398552+1052948567+1053711717+1054663700+1055259526
3555+1054936752+1053655710+1052252039+1051636309+1051446290+1050607509
3547+1049027786+1047776144+1047728797+1048886092+1050857796+1052939349
3538+1054156423+1054052928+1053141729+1052091839+1050919250+1049435479
3530+1047957853+1047040788+1046638333+1046211785+1045770711+1045971624
3521+1046962574+1048018609+1048587480+1048880226+1049215501+1049354960
3513+1048767374+1047361189+1045833282+1045117201+1045283825+1045424402
3504+1044905114+1044249578+1044393647+1045309245+1046127913+1046352920
3496+1046315768+1046540984+1047015578+1047276410+1047054336+1046606698
3488+1046428620+1046698390+1047025355+1046847208+1046132383+1045508552
3479+1045450450+1045708279+1045872948+1045968272+1046087410+1045949417
3471+1045304496+1044360964+1043456330+1042717412+1042219004+1042074098
3462+1042226337+1042471665+1042738921+1043134952+1043706127+1044275557
3454+1044549238+1044415225+1044119756+1044052715+1044323253+1044618793
3445+1044588065+1044317667+1044204814+1044375001+1044445952+1044027226
3437+1043276506+1042734731+1042725164+1043098568+1043498789+1043769048
3428+1044089518+1044655106+1045223349+1045250095+1044635204+1044041891
3420+1044161308+1044914960+1045677412+1045984893+1045793477+1045330056
3411+1044893800+1044723893+1044970199+1045673431+1046660820+1047517268
3403+1047811690+1047407628+1046533093+1045524125+1044543790+1043632033
3394+1042929848+1042604280+1042648206+1042978104+1043558427+1044208585
3386+1044587437+1044626824+1044775850+1045545774+1046820461+1047822794
3377+1047975033+1047593178+1047313073+1047154968+1046662775+1045691518
3369+1044665372+1044251953+1044717888+1045438648+1045584323+1045428941
3360+1045998441+1047310349+1048166449+1047876147+1047050076+1046490633
3352+1046359135+1046610190+1047287513+1048129995+1048597257+1048501095
3343+1048110372+1047630121+1047075007+1046515005+1046003678+1045502616
3335+1045169087+1045367836+1046156615+1047036948+1047376273+1047016975
3326+1046421637+1046180778+1046428690+1046850839+1047081223+1046956638
3318+1046603486+1046378479+1046545523+1047008525+1047409514+1047352320
3309+1046654674+1045626922+1044953229+1045101907+1045936777+1046828422
3301+1047101894+1046567940+1045616377+1044705038+1044061165+1043944332
3292+1044611320+1045810865+1046842389+1047299106+1047365937+1047308952
3284+1047106712+1046822486+1046928984+1047716087+1048574910+1048578681
3275+1047759524+1047103220+1047277317+1048051362+1048896148+1049410688
3267+1049227023+1048291452+1047318590+1047224662+1047946680+1048475955
3258+1048186840+1047479698+1046973678+1046705514+1046355155+1045867571
3250+1045643263+1046155847+1047365867+1048602076+1049235054+1049420325
3241+1049829485+1050587746+1050919879+1050196813+1048937071+1048155275
3233+1048049616+1048008344+1047602955+1046972909+1046500131+1046544476
3224+1047190932+1048002478+1048394737+1048358214+1048388941+1048689159
3216+1048953203+1048990215+1049022129+1049214733+1049349513+1049155094
3207+1048702358+1048331048+1048273156+1048353256+1048159745+1047661826
3199+1047427252+1047972589+1049122272+1050195487+1050588514+1050175025
3190+1049386874+1048774008+1048422531+1048140331+1048030132+1048286354
3182+1048666044+1048784972+1048703056+1048713252+1048805224+1048759971
3173+1048541599+1048305699+1048214285+1048399626+1048872404+1049378145
3165+1049613696+1049608110+1049532828+1049233867+1048448300+1047363284
3156+1046444263+1045924975+1045864428+1046322053+1047152384+1048004712
3148+1048644395+1048974223+1048908998+1048503260+1047914347+1047184438
3139+1046453202+1046181686+1046612704+1047281857+1047559937+1047374527
3131+1047041068+1046801536+1046823045+1047181644+1047595413+1047579072
3122+1047074798+1046595943+1046586306+1046913969+1047155806+1047131643
3114+1046922629+1046521500+1045835307+1045107773+1044979208+1045757302
3105+1046815154+1047199522+1046765990+1046179800+1045850182+1045591725
3097+1045362389+1045518958+1046112620+1046568289+1046360183+1045667356
3088+1045211337+1045554643+1046550970+1047451205+1047599882+1047006849
3080+1046193139+1045554573+1045048204+1044589322+1044490716+1045090943
3071+1046039154+1046482044+1046016597+1045058749+1044366621+1044462154
3063+1045242204+1045990689+1046122047+1045817988+1045499544+1045041919
3054+1044164729+1043157857+1042518524+1042182411+1041668081+1040829649
3046+1040075927+1039746658+1039544208+1038942585+1038024332+1037330388
3037+1036932891+1036376311+1035522027+1034726055+1034158580+1033523367
3029+1032522221+1031281195+1030230048+1029592041+1029112837+1028479509
3020+1027746388+1026977162+1025865539+1024252644+1022620894+1021543629
3012+1020965540+1020397018+1019501113+1018238647+1016687206+1014910201
3003+1012942478+1010818465+1008508344+1005828170+1002637647+999151724+995769087
2993+992597489+989416882+986021465+982318567+978231789+973716159+968729775
2983+963152452+956888238+949994328+942648660+935217514+928310126+922359329
2973+917164280+912250174+907625951+903815369+901217530+899747027+899106087
2963+899178366+899942424+901051464+901825717+901774459+900886236+899445692
2953+897884684+896719218+896264177+896443372+897038012+897879586+898610403
2944+898571715+897292139+894974476+892273143+889716227+887514838+885660246
2934+883865363+881669910+879058872+876858182+876162073+877410362+880171543
2924+883792037+888137970+893529743+899952201+906684165+912921562+918462361
2914+923605873+928657831+933621309+938174022+942010723+945312492+948621594
2904+952152281+955550002+958386395+960575703+962269536+963644296+964841815
2894+965906441+966755906+967302011+967532185+967432950+966995857+966309385
2884+965479054+964526234+963535214+962736588+962273586+962083078+962118903
2874+962513118+963506512+965330237+967988203+971044575+973817209+975884376
2864+977301665+978372226+979346206+980272070+980992482+981281107+981091507
2854+980734095+980674945+981039969+981477621+981651858+981644246+981762545
2844+982219123+983076130+984277910+985736610+987473810+989541746+991808500
2834+994059541+996270079+998509597+1000650370+1002458243+1003948857+1005405114
2825+1006994265+1008553666+1009823255+1010729007+1011375534+1011956975
2816+1012707555+1013700600+1014713198+1015531866+1016296762+1017290785
2808+1018539843+1019816764+1020861207+1021442718+1021416460+1020889350
2799+1020233466+1019846653+1019936391+1020482775+1021258425+1021885398
2791+1022097904+1022036869+1022091270+1022405455+1022752252+1022912383
2782+1022945763+1023036478+1023219724+1023360300+1023393192+1023466867
2774+1023722880+1024067792+1024347828+1024572206+1024820048+1025160491
2765+1025691511+1026362620+1026840217+1026883305+1026692657+1026617515
2757+1026750689+1026965081+1027076816+1026919270+1026504314+1026077416
2748+1025878388+1025961072+1026288525+1026732044+1026960681+1026663466
2740+1026002833+1025576075+1025779084+1026402146+1026978699+1027301962
2731+1027365022+1027070740+1026426169+1025827758+1025654290+1025689696
2723+1025426490+1024825705+1024336864+1024285815+1024624023+1025156440
2714+1025714277+1026176371+1026513392+1026815426+1027234083+1027833611
2706+1028437748+1028709334+1028495012+1027978517+1027411392+1026863402
2697+1026344602+1025979229+1025875176+1025949200+1026069176+1026270438
2689+1026594889+1026840915+1026789238+1026582738+1026540069+1026683648
2680+1026776807+1026710814+1026546075+1026277003+1025839211+1025320342
2672+1024960066+1024930596+1025208537+1025628241+1025969382+1026058072
2663+1025894869+1025643326+1025432216+1025261122+1025138702+1025188145
2655+1025542974+1026177209+1026837494+1027214040+1027278498+1027341628
2646+1027632698+1027983755+1028065461+1027730675+1027043854+1026216945
2638+1025555055+1025204626+1025012582+1024890721+1025118241+1025910861
2629+1026937915+1027716848+1028230201+1028673230+1028905010+1028717365
2621+1028387956+1028364073+1028540754+1028424270+1027941575+1027515446
2612+1027328429+1027144136+1026957958+1027135407+1027704417+1028200311
2604+1028397035+1028541103+1028724069+1028626441+1028058478+1027350776
2595+1027009426+1027136385+1027386950+1027503644+1027631091+1027931379
2587+1028179920+1028059735+1027678299+1027494845+1027730466+1028075587
2578+1028125030+1027892831+1027606929+1027309015+1027108940+1027410904
2570+1028308555+1029258023+1029955179+1030933559+1032597642+1034174503
2561+1034389593+1033007081+1031035866+1029493435+1028580769+1028029497
2553+1027633955+1027346935+1027227588+1027279545+1027238832+1026844477
2544+1026346488+1026286919+1026821082+1027606580+1028174054+1028230410
2536+1027918111+1027805468+1028298987+1029202714+1030039190+1030514134
2527+1030588926+1030439760+1030315455+1030151833+1029551467+1028437958
2519+1027428083+1027182406+1027601761+1028050866+1028243539+1028492149
2510+1029067096+1029723888+1030059023+1030109164+1030320204+1030868404
2502+1031205424+1030564205+1028920723+1027149514+1026169737+1026214711
2493+1026850692+1027315719+1026930932+1025692768+1024508028+1024459074
2485+1025750452+1027532136+1028644947+1028454509+1027257408+1026059539
2476+1025702056+1026119945+1026689654+1027178425+1027926142+1029143704
2468+1030387105+1030825455+1030036118+1028553464+1027369981+1026839938
2459+1026495864+1025989006+1025557080+1025418319+1025414129+1025461267
2451+1025753035+1026326865+1026900694+1027238552+1027295258+1027016758
2442+1026399143+1025719375+1025316012+1025121523+1024774796+1024255856
2434+1024021073+1024363122+1024979131+1025358681+1025299461+1024914394
2425+1024450275+1024187768+1024212210+1024329811+1024441336+1024710338
2417+1025119498+1025286053+1024969424+1024377159+1023892997+1023816598
2408+1024246149+1024951127+1025557220+1025915750+1026042778+1025842773
2400+1025236750+1024368709+1023435372+1022528992+1021804181+1021554034
2391+1021937634+1022672990+1022988362+1021895943+1018712054+1013453526
2383+1006691533+999033984+990839827+982325550+973679705+964996848+956229700
2373+947235033+937867170+928210123+918711670+909950808+902452341+896801623
2363+893406834+891985914+891991850+893777375+898425691+906151119+915965084
2353+926757568+937117009+944636286+946919381+943152166+935143350+927103108
2343+922623093+921892975+923123666+924941665+927002267+929389765+931723700
2333+933272696+934076979+935083990+936766370+938537789+939924141+941413290
2323+943862940+947689445+952827439+958840109+964721910+969273156+972063738
2313+973698211+975151046+977152569+979995666+983528447+987321292+990918600
2303+994014079+996587965+998898645+1001210372+1003599336+1005940883+1007843800
2293+1008859820+1009132314+1009466890+1010457910+1011996361+1013683560
2285+1015128503+1015906807+1015899125+1015544786+1015286049+1015053571
2276+1014661241+1014289303+1014186088+1014244889+1014265560+1014415005
2268+1015051336+1016167569+1017331359+1018110780+1018323635+1018050443
2259+1017641703+1017456362+1017404615+1017126395+1016686438+1016446906
2251+1016267851+1015830478+1015754848+1017086240+1019440846+1020997733
2242+1020817631+1019944421+1019630725+1019617387+1019031407+1018191229
2234+1018350033+1019869769+1021670518+1022472985+1021919687+1020696468
2225+1019992328+1020463361+1021611368+1022496519+1022622221+1021824712
2217+1020325228+1019238047+1019866905+1022181845+1024669904+1025782017
2208+1025231931+1023889854+1022566493+1021265688+1019793370+1018380760
2200+1017312643+1016684413+1016641395+1017182542+1017940594+1018502202
2191+1018498920+1017551058+1015683337+1013521125+1011987632+1012103906
2183+1014321218+1017577734+1020148547+1021477635+1021832394+1020732642
2174+1017460552+1012955816+1009805168+1009852935+1012294973+1014594829
2166+1015085415+1014073236+1013221047+1014578069+1018494799+1021948040
2157+1022011938+1020313217+1020116493+1022101675+1024940024+1027277939
2149+1028423712+1028215116+1026578198+1023571549+1020134231+1017437088
2140+1015141213+1012220739+1009644689+1009848954+1013205125+1017180237
2132+1019372478+1019575207+1018730071+1017493514+1016144244+1014965370
2123+1014386722+1014844207+1016189986+1017310688+1017131004+1016009883
2115+1015209581+1015075289+1014728562+1013587119+1012338271+1012083654
2106+1012849877+1013354151+1012513555+1010784386+1009442029+1008988525
2098+1008976304+1008992366+1009067717+1009267094+1009468008+1009623250
2089+1009915297+1010523066+1011436779+1012504756+1013348076+1013444098
2081+1012847363+1012446654+1012822153+1013392840+1013363788+1012772710
2072+1011979182+1011034323+1010138907+1009903355+1010655541+1011938748
2064+1012864123+1012733812+1011362405+1009167022+1007248951+1007121224
2055+1009547410+1013152819+1014932129+1013173141+1009659005+1008128096
2047+1010338214+1014559143+1018315046+1021067917+1023162669+1023394240
2038+1019692180+1012453497+1005339399+1001649770+1001253600+1002377723
2030+1004566263+1007788840+1010697233+1012424586+1014499086+1018362812
2021+1022302519+1023415609+1021755087+1020250156+1021127555+1024109623
2013+1027143228+1027550433+1024067024+1018742642+1014973890+1013390116
2004+1011933999+1009702372+1008059239+1008252820+1009807473+1011139424
1996+1011044170+1009839806+1009280223+1010916024+1014337140+1017533250
1987+1018685796+1017181354+1013840757+1010615526+1009527646+1011560246
1979+1016296553+1021861096+1025320342+1024746163+1021072316+1016775477
1970+1013271956+1010723141+1009530859+1010182134+1011892378+1013275867
1962+1014194468+1015568599+1017577595+1019087065+1018893344+1016954253
1953+1014525623+1013313228+1014227919+1016683994+1019094677+1020207138
1945+1019934714+1018905635+1017679623+1016696983+1016424909+1016927227
1936+1017505875+1017271022+1016076854+1014601393+1013721759+1013965202
1928+1015022425+1015737599+1015291566+1014303131+1013913874+1014082524
1919+1014194189+1014637009+1015982997+1017265505+1017064033+1015557566
1911+1014332461+1014498527+1015513710+1016165125+1016124132+1015886974
1902+1015714553+1015371946+1014705446+1013927561+1013456389+1013618125
1894+1014155710+1014296566+1013685096+1012856791+1012723547+1013895647
1885+1016249345+1018620152+1019508655+1018765478+1017702040+1017349236
1877+1017578014+1017747641+1017427171+1016584410+1015443456+1014270658
1868+1013428665+1013408762+1014401178+1016065331+1017694288+1018523711
1860+1018302895+1017546239+1016990078+1017025344+1017642192+1018467494
1851+1018882310+1018434113+1017130585+1015414196+1014087063+1013991879
1843+1015065373+1016305073+1017094131+1017439812+1017415509+1016872128
1834+1015552817+1013493261+1011281327+1009917043+1010050915+1011224133
1826+1012428008+1012971319+1012691702+1011683503+1010114674+1008395631
1817+1006850336+1005092465+1002393785+998393602+993040728+986490053+979186704
1807+971513792+963496386+954988185+946043379+937352909+930050259+924428452
1798+919475309+913882553+906420610+895917520+882559739+868583087+855256802
1788+841576457+826624917+811345365+798143385+788913306+784187125+783600167
1778+786189346+790783750+796868000+805138904+816087468+827965248+839168009
1768+849912587+859743591+867640114+874006355+879854705+884685707+886968803
1758+885895309+881406285+873640772+861803705+843471972+816333634+781927284
1748+745340425+709257282+672987890+636147602+599684211+564333490+531845525
1738+505859978+487287037+473603375+464446517+462973360+469367152+481822776
1728+499026929+518972710+540313048+562297643+582510052+598677129+611837417
1718+625320620+640840542+656094954+669317046+681473465+693425409+704875035
1708+715440697+725677858+735896303+744675393+750998756+756079416+761198276
1698+765079531+766583345+766472657+765001875+761603385+755985489+748466491
1689+739990833+730809218+719225162+704188493+689748280+678780652+669008727
1679+658828830+648289217+638174964+630111817+625569929+625076549+629689808
1669+639635131+651479670+662726566+675097098+691299581+710360176+728175345
1659+742709485+753986480+763005380+774267500+793929788+813269930+822406781
1649+826369673+831125114+837945279+842998844+843995590+842018509+838795373
1639+835869103+835276908+840333755+851081335+861474646+868738119+874283667
1629+879477739+884468313+888741618+892350729+896009072+899540737+901710700
1619+902350034+903026240+905397327+908457609+910088800+909980906+908872914
1609+907473433+905915009+903894281+901488348+899397716+898348105+898511029
1599+899556868+901221510+903659847+907046954+910924229+914424118+917110996
1589+919191502+921055870+922886788+924676783+926445408+928147900+929365463
1579+929665262+929571893+930874444+934220349+937133490+938016685+937866541
1570+938567888+940535052+942328539+943096996+942722964+940793230+937029786
1560+933445955+934934335+939622178+942574286+943836193+944302058+944438096
1550+944611844+944573784+943451266+940864112+937415272+934142414+932718351
1540+935594899+940729681+943590167+943686957+942932117+943297002+944470289
1530+944757867+943779628+942290060+940743648+938806442+936782642+936211955
1520+937384894+938776832+940178408+942336919+944662753+945750284+944815551
1510+941761693+937722682+937162262+943343931+949984831+952942247+953075002
1500+951745425+950218497+949759894+950431003+950638551+949092697+945862717
1490+942502706+941398974+942800550+944564845+945150616+944301500+942440833
1480+939959338+936497787+931178852+923514529+913719978+902802700+892765056
1470+884440798+876062978+865384463+851127635+834344130+818587818+805801074
1460+794750133+784099902+775745056+773635220+775522983+776847392+776492563
1451+774676520+771827697+768478580+764696420+759627282+751913865+740797699
1441+726878451+711130519+694550790+681113818+676475349+680723863+691161379
1431+706508042+724156097+739351569+749414214+754784198+756740818+756276559
1421+754291237+752462624+753156848+756742075+761690608+767353967+774095289
1411+782200686+791163998+800104055+808984893+818464351+828111482+836517795
1401+843449625+849838074+856134411+862035137+867495277+872381030+875637686
1391+876196571+873822202+868973322+862661202+855840129+848621699+840733277
1381+832290231+823746065+815390870+807253140+799645732+793597447+790000837
1371+788412314+787728635+787266541+786679723+785775508+784941057+785296374
1361+787627725+791385652+795581581+799804745+804112758+808515955+812643307
1351+815988373+818383413+820045401+821332798+822593239+824035947+825711833
1341+827841991+830978392+835295134+839933324+843830432+846680024+848672398
1332+849913285+850347446+850022856+849151043+847858758+846036849+843474975
1322+840055325+835859466+831171694+826268622+821142150+815633894+809857194
1312+804216672+798987124+794158496+789709697+785735073+782218075+778883413
1302+775449028+772002632+769040677+767089923+766287736+766327402+766777275
1292+767324986+767624715+767054587+764871355+760639042+754387748+746451770
1282+737439643+728363339+720459065+714588718+710748176+708181832+705997483
1272+703722000+701391696+699237236+697386136+695892099+694888579+694536335
1262+694864347+695765909+697102399+698745462+700535038+702220072+703512217
1252+704300647+704808483+705480010+706720408+708718510+711430458+714654152
1242+718102085+721451621+724396746+726673417+728057883+728419486+727769607
1232+726177034+723688067+720378337+716314674+711397775+705409198+698179385
1222+689544015+679344425+667815258+655872741+644732482+635255887+627716428
1213+621987704+617753995+614583235+611962351+609390211+606488244+603047225
1203+599029374+594612908+590242114+586529998+584011630+582989569+583580962
1193+585728264+589066801+592951129+596706054+599694057+601154573+600292887
1183+596660591+590393166+582201384+573228399+564689785+557437799+551869869
1173+548160686+546383017+546439967+548070216+550960451+554795930+559254785
1163+564065501+569071229+574144347+579038375+583454212+587303693+590790244
1153+594146554+597365919+600299312+603020129+606020284+609966415+615243799
1143+621744192+629043979+636672687+644223459+651376175+657933903+663815564
1133+668998671+673503338+677432429+680973102+684269285+687249886+689641085
1123+691154884+691528009+690373507+687277889+682260778+676088397+670072165
1113+665526506+663236357+663272811+665330620+669242672+675068535+682732509
1103+691719006+701140572+710071620+717894677+724397934+729582298+733463413
1094+736087161+737608712+738222417+738047482+737191033+735930383+734720991
1084+733937589+733601476+733425004+733209216+733239943+734213854+736664412
1074+740456418+744855984+749061550+752602921+755216403+756541929+756243946
1064+754399201+751464761+747945527+744401991+741523697+739655488+738348957
1054+736752822+734373844+731314819+728006834+724913591+722422179+720861940
1044+720398589+720736168+721080032+720579460+718702381+715163943+709844310
1034+702989227+695313382+687750808+681109977+675869326+672095197+669560000
1024+668097109+667825174+668854952+670830217+672973295+674572921+675295008
1014+675129501+674233177+672851015+671340148+670164277+669700576+670075098
1004+671291124+673343277+676009274+678739868+680965350+682342973+682603246
994+681401745+678496146+673972345+668281612+662232279+656939182+653435102
984+652010481+651957686+652122705+651745320+650863242+650155820+650486835
975+652458469+656257598+661745603+668517163+675955502+683436021+690469390
965+696664537+701770967+705815914+709055181+711825860+714540183+717681682
955+721652814+726601487+732345854+738437018+744453110+750310678+756145200
945+761850250+766939500+770957421+773854081+775884027+777383790+778782223
935+780528083+782747838+785177376+787560754+789815566+791693412+792717324
925+792707827+791998170+790857495+788958628+785709863+781063293+775796734
915+770980955+767332737+765117242+764350600+764789509+765859232+766896901
905+767525969+767738475+767657188+767290697+766531877+765401747+764171475
895+763038412+761682927+759420433+756004973+752180842+749268120+748267882
885+749429857+752407664+756501705+760818866+764512825+767033427+768243797
875+768433257+768130246+767633793+766741589+765099015+762715149+759908994
866+756797453+753035056+748090433+741718395+734142902+725821647+717136276
856+708392383+699971474+692234454+685306185+679154266+673804394+669328010
846+665869253+663958165+664572010+668478964+675421618+684005730+692373983
836+698944630+702626578+702845508+699925733+695323228+690918844+687929165
826+686634016+686962377+688941973+692475243+696940104+701391138+705295159
816+708853290+712501438+716363209+720333224+724449541+728915450+733722988
806+738373818+742144246+744707586+746444018+748039594+749763944+751299882
796+752391742+753305525+754315679+755175690+755559848+755687296+756169084
786+757506621+759820863+762839314+766234871+769983161+774108278+778190516
776+781554718+783917494+785606089+787165351+788823988+790405666+791789435
766+793225648+795027096+797208862+799572965+801951244+804333155+806823589
756+809360253+811552214+813037522+813900744+814552299+815281021+815983206
747+816303466+816103111+815701983+815471180+815372294+815114047+814576322
737+813864850+813029840+811972897+810774818+809895813+809678488+809835336
727+809871999+809741828+809648320+809626671+809742107+810244356+811130624
717+811917588+812107467+811680570+811033973+810449110+809705305+808453803
707+806971289+806091445+806172034+806548302+806284817+805109434+803380684
697+801459261+799371283+796989512+794387273+791853962+789506060+787133716
687+784686161+782716622+782027078+782904826+784958795+787765019+791290189
677+795427107+799525617+802354678+802062421+796894886+787506772+780418722
667+783678730+792499022+797843517+798467766+797022264+795683469+794928699
657+794423797+794093271+794359130+795522361+797111024+798528662+800084013
647+802451259+805524460+808650386+811500816+814029729+815936347+816762348
637+816474630+815541224+814348453+812847083+810931666+808905701+807339036
628+806656126+807109351+808926512+812007395+815588851+818948443+822468934
618+827054957+832329129+836513465+838238095+837307831+833924076+828493755
608+822225351+816874222+813458693+811495229+809887363+808535858+808475731
598+810271731+813086964+815646115+817538976+819459491+822397214+826471142
588+830546606+833066929+833159739+830964495+827044901+821833441+815776915
578+809669479+804607395+801632171+801236490+803114266+806324762+809693084
568+812415158+814442729+816027201+817068432+817453359+817863287+819303830
558+821664511+823718899+824797840+825544859+826695031+827752812+827289740
548+824545878+820377464+816247040+812842684+810281159+808779510+808172929
538+807690234+807114728+807278909+808825461+811328465+813893202+815974337
528+817472912+818344236+818418959+817859236+817270183+816892449+816528123
518+816768144+819212417+824320103+830101133+833925543+834883531+834023381
509+832677742+831355498+830341433+829883878+829162978+826857605+823654372
499+822051813+823193046+825608687+826989313+826445652+824903290+823924352
489+824426391+826092919+827543868+827488629+826358429+826067988+827670827
479+830179417+831897832+832203357+831646149+831010865+830809463+830977694
469+830831740+829831712+828330831+826962706+825338847+822411320+818481461
459+815923986+816766049+819609425+821753271+823085711+824583169+825528727
449+824788622+823640755+824962580+829779336+835864354+839766420+839778362
439+836786308+832791921+829625980+828067486+827021227+824465219+820209023
429+816805296+816057509+815882923+812940452+807516695+802782832+800711405
419+802816981+810391707+819904685+826402076+828905498+829869213+831887426
409+834318012+834792048+833613243+833736431+836508088+839742327+839632059
399+833404229+823391446+817910006+819568852+821874084+819791553+813571824
390+804769131+793591511+781461279+773850100+776209176+786396335+797502795
380+805544712+810169284+812676338+814821790+816912631
##END=
