##TITLE=CZ-190.S-10
##JCAMP-DX=5.0
##DATA TYPE=LINK
##BLOCKS=1


$$ === CHEMSPECTRA SPECTRUM ORIG ===
##TITLE=CZ-190.S-10
##JCAMP-DX=5.00
##DATA TYPE=INFRARED SPECTRUM
##DATA CLASS=XYDATA
##ORIGIN=Marie
##OWNER=
##XUNITS=1/CM
##YUNITS=TRANSMITTANCE
##XFACTOR=1
##YFACTOR=8.2247942e-010
##FIRSTX=3997.453
##LASTX=373.96442
##MAXX=3997.453
##MAXY=0.8831305518107827
##MINX=373.96442
##MINY=0.43683400786696974
##NPOINTS=2559
##XYDATA= (X++(Y..Y))
2559I64596356I65110455I65787610I66008352I65528386I64807460I64437069I64540917
2551I64836883I65075162I65286411I65625423I66049732I66279387I66166842I65953275
2543I65941027I66058283I66038934I65929360I66020599I66332942I66574048I66596369
2535I66511652I66369902I66111766I65851528I65837106I66120605I66520276I66844649
2527I66958716I66769716I66371713I66065675I66063428I66309607I66635357I66868637
2519I66858998I66589847I66209962I65921968I65936317I66449908I67460712I68559132
2511I69181210I69136857I68706244I68323968I68187871I68124677I67912994I67565503
2503I67221418I66987124I66942048I67083146I67253812I67224027I66813270I66032194
2495I65243219I65063495I65705429I66506217I66877405I67163515I67731023I68253383
2487I68387742I68271356I68197944I68204249I68091921I67804000I67471365I67119453
2479I66592455I66014367I65975740I66733698I67465205I67300989I66438240I65637018
2471I65435480I65957912I67017054I68036482I68588627I68902057I69249693I69426157
2463I69298465I69210342I69294697I69157077I68475067I67687397I67769070I68454921
2455I68655444I68341506I67919879I67515427I67030171I66522667I66362945I66869434
2447I67791535I68299546I67977419I67445783I67416868I67841829I68190842I68251064
2439I68226859I68194828I67995899I67712688I67749286I68063731I67926328I67252725
2431I66941831I67632392I68803354I69728209I70301660I70719881I71065851I71195064
2423I71071938I70999541I71128030I71042805I70544288I70232742I70457614I70670820
2415I70264556I69474711I68946988I68987861I69427026I69876192I69977649I69626825
2407I69080695I68770308I69016777I69757559I70505082I70741405I70368550I69867061
2399I69921558I70604510I71257243I71486898I71438489I71148104I70530446I69821333
2391I69493625I69715455I70155489I70458629I70554434I70540012I70441671I70052365
2383I69231721I68126851I67116410I66762396I67128657I67572460I67673627I67480206
2375I67362806I67808421I68887563I69969388I70312748I69761473I68825747I68298459
2367I68599280I69291436I69667552I69583053I69242302I68732986I68166565I67825451
2359I67945823I68549421I69423620I70244337I70856269I71224414I71249054I70906635
2351I70469789I70365723I70686908I71096795I71305870I71331959I71324784I71314711
2343I71299637I71556179I72317906I73070356I73246964I72995278I72609958I72117093
2335I71593791I71463418I72162459I73428500I74037099I73395817I72354648I71877726
2327I72103179I72388926I72400303I72270001I72115354I72049479I72254640I72769316
2319I73366032I73666562I73432486I72852223I72433712I72690399I73586266I74339224
2311I74562720I74488729I74227331I73707435I72984045I72333487I72002374I71983749
2303I72058465I71966646I71678580I71661767I72613144I74126236I74764185I74297844
2295I73571772I73323492I73722436I74395170I74885861I75178420I75468588I75685489
2287I75582800I75123851I74507136I73875927I73231238I72617277I72271453I72495963
2279I73290373I74206750I74844554I75244223I75511418I75466122I74979347I74317773
2271I73971949I74352413I75320316I76033125I75895939I75109574I74308859I74117612
2263I74786651I75972758I76952401I77236336I76899570I76260172I75607802I75316765
2255I75627369I76130090I76323076I76366123I76564399I76768473I76594836I75986960
2247I75312561I74996305I75144142I75491996I75731652I75783975I75770134I75917102
2239I76377355I77018130I77541070I77755797I77658326I77381202I77091832I76842827
2231I76626940I76558239I76696728I76765139I76452651I75942031I75745639I76101464
2223I76713324I76978562I76544470I75730855I75243136I75424382I76054285I76740790
2215I77141763I77052046I76627592I76302639I76330685I76598460I76838189I76794345
2207I76276188I75399307I74747010I74896512I75755422I76687235I77203145I77229161
2199I76939139I76664189I76763690I77315762I78056690I78653404I78889291I78686667
2191I78200107I77798482I77743765I77945595I78089302I77944290I77561941I77176983
2183I76917760I76780575I76884569I77399247I78163220I78760224I79025100I79149530
2175I79318094I79541590I79801755I80078226I80254689I80200120I79930606I79572679
2167I79250625I79113513I79311064I79808857I80309694I80440139I80049166I79385345
2159I78974444I79197867I79995828I81048012I82092515I82945770I83418706I83425808
2151I83079114I82572335I82079760I81791259I81835321I82083746I82202306I82014175
2143I81720384I81654437I81921052I82347100I82686692I82786555I82630601I82264412
2135I81659365I80709942I79366286I77653543I75545116I72877298I69337816I64418951
2127I57374701I47281879I33223455I14540464H91171452H64181359H36194013H11028484
2119G92436297G82801916G82511314G90041761H02656666H17518559H32643879H47058346
2111H60286850H71941390H81787961H89963386H96927630I03143263I08834291I14011437
2103I18598535I22555442I26026657I29320684I32578259I35550449I37913316I39711864
2095I41306989I42965306I44674138I46286728I47674446I48764749I49601699I50379441
2087I51295963I52361844I53427580I54353087I55076477I55627680I56203595I57101927
2079I58346807I59465446I59939106I59868811I59889392I60396171I61172826I61807297
2071I62163991I62365311I62536412I62710628I62937096I63364303I64091969I64956311
2063I65642961I66000452I66071833I65900082I65535488I65173286I65049001I65225174
2055I65633105I66258879I67082059I67880093I68351797I68465284I68481734I68660299
2047I69107001I69753356I70264846I70205928I69548920I68818500I68577320I68898289
2039I69362311I69485147I69201646I68922494I69046706I69584720I70318038I71008600
2031I71388485I71339785I71168757I71335510I71861203I72267974I72168039I71736556
2023I71529293I71866493I72506616I73019772I73310013I73536045I73697000I73645619
2015I73441037I73345015I73468938I73661055I73740554I73696927I73708885I73986878
2007I74523296I75047323I75347274I75546783I75915870I76504247I77100963I77503024
1999I77708040I77802467I77730650I77356418I76821666I76631143I77145242I78089519
1991I78795661I78909728I78669130I78470998I78403094I78364613I78429473I78780153
1983I79348314I79829221I80086488I80290054I80538842I80609500I80349117I80074095
1975I80194540I80619066I80934670I81000545I80965760I80884304I80708783I80543190
1967I80569279I80740235I80787847I80577831I80313462I80302952I80635516I81190922
1959I81872932I82647486I83340439I83593068I83206516I82472979I81947721I81914602
1951I82278254I82866416I83536831I84113761I84511328I84784538I84928317I84886793
1943I84792290I84831353I84891068I84722432I84383420I84165939I84198043I84361896
1935I84482558I84396464I83968315I83237098I82491967I82036424I81876266I81733139
1927I81315207I80461952I79150037I77562883I76045300I74808754I73791210I72879979
1919I72049841I71230067I70303255I69323177I68533768I68071340I67734792I67151123
1911I66224528I65304311I64776950I64685711I64905656I65391419I66050456I66706015
1903I67332659I67940025I68176129I67558981I66203367I64774052I63601494I62274435
1895I60189996I57156929I53424898I49507489I46174835I44358098I44658337I46764664
1887I49540100I51897025I53468163I54308374I54377075I53697456I52657592I51668963
1879I50723889I49548867I47963454I46019678I44063220I42665284I42263658I42855517
1871I44104455I45668999I47374712I49157389I50923107I52470186I53396780I52895799
1863I49874909I43910165I36318698I29863988I26968253I28097400I31837621I36369789
1855I40731002I44835165I48727138I52125883I54716956I56662182I58507254I60558430
1847I62614099I64301406I65358880I65655135I65354747I65030521I65212419I65851600
1839I66499550I66875159I66983936I66826170I66251921I65074220I63178636I60522558
1831I57135118I53187126I49022304I45027354I41456928I38382121I35674662I33025323
1823I30208580I27410099I25112962I23696401I23314560I23916127I25019042I25668295
1815I25026868I22963083I19869796I16102181I11788363I06961027I01545167H95190392
1807H87350427H77712061H66562416H54728514H43293195H33458581H26483322H23399312
1799H24582521H29587479H37404978H46827458H56673595H66017953H74459486H82090014
1791H89084042H95360477I00667417I04903402I08260115I11024028I13249638I14649458
1783I14777439I13296381I10167584I05786950I01023749H96989519H94567589H94068419
1775H95309242H97960465I01720036I06222274I11025115I15752226I20077566I23634585
1767I26226310I28110589I29804273I31601661I33452821I35210930I36798734I38151596
1759I39068478I39093119I37603147I34036635I27883397I18560490I05976602H91694030
1751H79100793H71680137H70859783H75532686H83320545H91997967I00081718I06864063
1743I12318115I16878112I21043799I25023824I28685127I31814866I34376879I36479869
1735I38211673I39648453I40935293I42177565I43304247I44216274I45034673I46022070
1727I47254196I48510019I49509083I50160221I50580907I50992388I51616785I52523813
1719I53501209I54227208I54642095I54996689I55478319I55990535I56371507I56662399
1711I57057358I57640882I58260713I58723576I59057878I59440009I59901710I60310440
1703I60597201I60810044I60957302I60957665I60756127I60436682I60170719I60024838
1695I59886204I59668650I59507043I59636546I60128686I60813160I61446689I61927451
1687I62309220I62631129I62883611I63147474I63553159I64043994I64361990I64321987
1679I64022035I63764624I63765277I63937247I64035443I63986019I63926304I63962973
1671I64068344I64190093I64339815I64582368I64978053I65505776I66038934I66407948
1663I66506507I66371569I66194888I66232572I66628545I67251638I67746314I67873353
1655I67791100I67872846I68286357I68869953I69352673I69569574I69529136I69370935
1647I69268535I69323757I69499061I69650015I69682119I69648928I69648203I69702845
1639I69804230I69964025I70163244I70307965I70288326I70116791I69989027I70077730
1631I70293833I70433265I70476964I70517619I70546824I70538708I70560666I70610960
1623I70559869I70400074I70346519I70548781I70853370I71003889I70990120I71032007
1615I71255938I71568354I71845622I72084844I72359503I72704313I73022091I73143550
1607I73083111I73101880I73330304I73499158I73284214I72767724I72282975I71942804
1599I71648578I71504653I71830838I72672861I73624095I74260015I74514165I74562720
1591I74576562I74676280I74975144I75559972I76420040I77401421I78281853I78910453
1583I79276931I79482020I79629350I79670440I79389476I78667968I77733549I77033929
1575I76866959I77180897I77706373I78190252I78478680I78503392I78333596I78148074
1567I78027483I77884213I77696807I77626873I77795291I78129740I78507088I78857768
1559I79092424I79146776I79134529I79267510I79603913I80024889I80415499
1552I80724364I80931047I81075478I81227519I81365139I81391590I81276146
1545I81093016I80944091I80880173I80844953I80714797I80438978I80060544
1538I79582028I78974154I78326712I77825368I77578247I77558898I77654920
1531I77737535I77819860I78096621I78634344I79130905I79264104I79138804
1524I79098801I79280917I79588695I79877631I79995973I79874225I79670368
1517I79666382I80076485I80987283I82221653I83244127I83575458I83354861
1510I83168686I83347903I83739528I84096658I84352693I84509299I84577928
1503I84684820I84952740I85257981I85342263I85140146I84775914I84405016
1496I84221233I84346895I84600321I84650470I84434583I84200724I84260656
1489I84832875I85861942I86926518I87593165I87802964I87705420I87342565
1482I86762230I86200881I85904916I85896437I85998329I85965356I85637939
1475I85141088I84869472I85072749I85520900I85781138I85746136I85668811
1468I85747947I85934701I86141239I86430610I86921808I87572439I88105959
1461I88183429I87708681I86993263I86558371I86688166I87186539I87607079
1454I87650416I87279734I86608450I85836070I85207035I84908026I85023470
1447I85524306I86171241I86575547I86555692I86293135I86024781I85840926
1440I85854550I86179938I86649902I86953041I87116243I87449893I87975804
1433I88333151I88321700I88184153I88282349I88734486I89399466I90016687
1426I90334032I90247069I89843269I89331417I88989289I89055526I89451644
1419I89695939I89370044I88668539I88264739I88592954I89399394I90079012
1412I90423822I90861320I91716460I92389991I91841325I90124523I88857177
1405I89534767I91651310I93237594I93192301I92205919I91358968I90857045
1398I90335552I89587451I88757242I88201256I88316120I89304241I90907338
1391I92501522I93556025I93787927I93135122I91838281I90319031I88895079
1384I87717160I86948839I86796146I87201757I87693825I87770208I87361915
1377I86852165I86733242I87242195I88211982I89159737I89553029I89193436
1370I88443522I87943845I87978775I88226620I88220243I87933699I87807095
1363I88286843I89439397I90945385I92324044I93185416I93416086I93182952
1356I92745599I92313536I92024165I91861182I91623844I91202652I90817984
1349I90803200I91250989I91950102I92523190I92689870I92550003I92438039
1342I92453547I92500870I92702480I93298758I94226875I95120206I95549443
1335I95254057I94540450I94295069I95070274I96291168I96829181I96285515
1328I95320584I94706768I94458995I94063239I93210634I92073879I91214971
1321I91365345I92767630I94587410I95532630I95165717I94245862I93929098
1314I94749452I96033249I96483139I95802651I95264493I96132097I98083048
1307I99639257I99742961I98704546I97835564I98148850I99471200A001034149
1300A002545065A004120189A005407247A005503124A003946987A001588251A000099221
1293A000371344A001600716A002286132A001871242A000970738A000287931I99987908
1286I99973196A000004503I99498666I98013404I96153041I95328628I96310227
1279I98427928A000336123A001233803A001354682A001584482A002491220A003443759
1272A003038582A000866237I98362490I97360962I98281831A000197779A002117350
1265A003651457A004867494A006250139A008522202A011585341A013957702A014401577
1258A013242356A011203282A008191161A004098811A000129006I98313573I99667737
1251A003258600A007016359A009262188A009656929A009071086A008613296A008591120
1244A008328998A007173907A005520444A004386732A004148162A004245271A004068591
1237A003651094A003451368A003764219A004422677A004982141A005047798A004404704
1230A003167940A001999877A001707246A002316134A003002347A003114168A002793271
1223A002573473A002829218A003544274A004271578A004459998A003967133A003150113
1216A002514990A002463175A003235699A004792343A006626401A007902588A008086878
1209A007499803A007100351A007561112A008521187A008930422A008280226A007174197
1202A006454865A006286446A006348770A006343045A006104693A005770174A005768000
1195A006178104A006505594A006450227A006236515A006013671A005809742A006070052
1188A007259856A008863968A009666132A009242331A008652647A009434230A011924498
1181A014742763A015958149A014758924A012300035A010762306A011231255A012909213
1174A014358313A014643770A013417949A011142118A009167615A008688519A009805998
1167A011871088A014145108A016175702A017981931A019561186A020291026A019662498
1160A018301377A017174766A016278754A015157289A014177429A014310483A015467096
1153A015897275A014230912A011589834A010371331A011318434A012942260A013767614
1146A014062927A014959447A016790388A018885843A020497999A021232477A020732365
1139A018845332A016274623A014379329A014040027A015043874A016569139A017776045
1132A017960043A016942429A015503548A014751460A015046338A016072433A017569870
1125A019204490A020206526A019920417A018274418A015698853A013264459A012293368
1118A012978712A014103800A014651669A014830089A015129461A015407381A015380712
1111A015299474A015685229A016572183A017169911A016567400A014772331A012631221
1104A010965437A010068773A009740414A009492133A008815921A007499150A005700531
1097A003733564A001952627A000750359A000317644A000503383A001153651A002230620
1090A003482458A004544208A005227522A005202158A003984599A001799499I99718031
1083I98383289I97507133I96919188I97060503I98162112I99720060A001054876
1076A001906537A002432230A002938719A003587466A004173237A004261939A003755233
1069A003186203A003194392A003973583A005268105A006662200A007852729A008791571
1062A009630767A010465326A011210892A011838405A012536648A013416209A014148296
1055A014334978A014214533A014373531A015040323A015989673A016842494A017212739
1048A016830101A015881186A014978507A014529921A014414332A014365850A014302509
1041A014238666A014145253A013921322A013485346A012976755A012649410A012578318
1034A012647091A012787465A013046398A013425269A013931540A014734285A015932132
1027A017261657A018361235A019086801A019526906A019887443A020368930A021073913
1020A021911081A022654762A023165600A023427286A023416344A023158208A022839777
1013A022601280A022372784A022122329A022069934A022424020A022932973A023001746
1006A022426773A021659249A021257696A021252333A021032823A020169277A019069045
999A018275505A017914897A017807135A017710823A017528345A017330721A017201288
992A017097876A016900252A016496814A015815891A014989812A014466220A014591302
985A015305054A016354194A017605380A019124702A020859549A022399887A023437505
978A024070091A024398883A024384246A024075816A023642159A023292131A023254520
971A023628535A024258367A024845732A025187208A025375846A025669637A026094381
964A026473976A026897848A027632690A028447102A028659727A028353109A028042070
957A027776250A027315781A026591811A025806170A025224312A024977769A025126478
950A025746310A026594203A027003945A026779290A026354256A026147428A026255988
943A026552388A026902415A027228163A027499709A027832198A028469423A029455080
936A030505307A031589813A032761789A033699254A034322781A035004212A035912689
929A036816526A037665363A038940028A040902500A042598360A043249933A043308995
922A043363855A043724897A044440387A045316834A046197121A047180604A048313447
915A049199386A049461001A049388749A049510063A050099094A051055836A052071568
908A052856340A053262169A053481534A054124266A055603875A057011087A057847022
901A058813620A060435269A062384553A063896701A065060053A066317326A067655257
894A068851873A070014428A071443671A072849869A073616813A073741823A073464192
887A072882915A071965089A070697091A069243063A067813893A066411392A064867067
880A062896622A060014149A055978470A051105985A044935282A035461929A019598073
873I94489069I60708515I24305290H93656213H73638769H62242366H52186285
866H36473238H12560126G82370070G50856434G24230064G07071396G00446020
859G02297978G08694205G16099208G24245645G36229414G54517953G77264959
852H00316047H21900861H42462332H59928706H71158285H77004614H79234282
845H77702060H72115244H64048885H56029631H50598842H49454549H54061650
838H67877664H89682422I07987267I20602825I31471505I41891528I51997684
831I61941872I71261518I79463757I86824699I93571968I99425617A004748427
824A010360535A015349912A018922945A022107616A026226927A031310878A035993275
817A039775022A043352042A047120817A050693996A053667853A056230518A058761730
810A061001111A061996841A060956977A057453223A050818064A039828142A023431418
803A000326992I65808481I16149286H70990373H52841192H51641388H50324110
796H36349316H01130459G45118736F83609986F35876378F08563288E99275239
789F03504448F13239960F19274491F18940553F15539489F13744853F17108380
782F26657537F41210638F59130018F79226816G00990338G24060992G45779078
775G62470245G74240229G83708654G92956701H02404255H10979929H17992002
768H24050088H30175207H36360331H40158309H39806037H36863776H33861874
761H33749546H39438689H51315709H65551612H76773871H80911878H74833791
754H56111812H22013551G70205854G10711972F68250880F52239621F53356158
747F64540298F84309969G10084822G37602348G63944200G86914631H04974167
740H18914609H30521031H39484200H44449590H45759186H44185511H40004675
733H34094356H28614504H26238376H28925471H36755724H47277711H57520690
726H66554299H74712332H81870866H87464277H91098041H92602000H92451915
719H92061595H93227629H97223305I03598299I10313900I15894918I20146122
712I23291369I25654744I27683019I29880583I32701022I36131220I39495035
705I42267717I44593262I46792565I49052743I51548591I54440775I57713496
698I61076514I64125377I66687390I68906840I70984612I72947738I74704325
691I76187413I77392000I78327291I78871320I78748846I77739999I75658819
684I72079119I66613472I59857506I53582518I49537056I48449143I49980280
677I53106033I56534636I58820902I58310935I53735358I45599355I36840984
670I30970596I28756364I27064347I21585945I10361005H93945076H73089886
663H47339890H15912781G80215119G45778788G20854871G11654220G18470552
656G36216007G58084538G78743844G95154410H05907284H10611784H09649462
649H04106128G95731049G86525688G77932041G70333545G63326979G56393898
642G49463933G43191845G38798094G37425450G39456986G44399621G51320236
635G59284415G67540934G75603234G83258257G90458968G97217470H03545068
628H09363860H14419113H18330217H20875635H22372854H23730280H25920524
621H29285789H33355529H37227935H39954816H40574575H38084017H31875993
614H22514242H11987109H02986547G97739250G97160364H00725860H07057592
607H14759502H22893475H30946063H38605652H45635191H51908655H57529024
600H62801106H67968976H72995530H77636185H81663821H84975168H87559647
593H89460376H90744317H91459374H91677362H91624387H91693233H92281830
586H93652445H95875011H98789950I02050351I05224514I07808993I09328677
579I09673342I09259904I08664350I08151338I07608035I06773766I05451054
572I03579747I01063390H97199100H90168982H77948094H61138221H44992676
565H36883923H40553487H53365291H69251830H83184085H92642438H96524555
558H94588678H88409713H81543449H76798583H73017271H66255145H55015856
551H42965923H35615417H35540484H41590452H51317883H62776828H74596019
544H85735880H95613831I04122906I11374128I17499682I22639072I26932163
537I30522010I33631313I36531469I39346183I42000304I44380345I46364705
530I47611035I47212091I43244895I33061051I15605910H94302133H76323908
523H67572205H68662219H76111790H86143521H96560499I06280104I14643588
516I21312228I26280010I29627375I31002483I29047619I21314692I05788544
509H84293883H64463990H55838817H62270919H79022599H97664644I12395438
502I21561161I25262466I23278035I15653885I04866442H96093724H93999356
495H99286004I08951111I19364104I28465182I35716404I41192342I45104824
488I47798152I49786424I51590479I53464757I55313380I56968510I58517763
481I60196373I61997094I63637368I64963922I66163726I67465423I68800962
474I69939530I70858226I71762645I72772289I73744177I74350239I74171312
467I72383635I66782613I53842975I32474555I08835957H94257130H95525708
460I08815159I24847071I37669312I46647191I52870360I56906839I59343914
453I61336680I64027689I67722689I71804240I75451630I78265475I80160117
446I80733205I78355047I70018087I53981391I33821763I17986387I13122454
439I18467729I27862164I35932798I41062767I43868712I45102215I45231790
432I44565868I42547449I37213261I26982747I13969694I04184650I02677864
425I09009957I18802611I28721360I38244937I47535593I55621448I60639016
418I61151882I57903656I54528898I55175543I60751272I68325635I74404519
411I77499907I76608026I68569930I50000571I23141503H97393029H82214371
404H78924113H80799840H80148919H74400206H67081732H64493195H70734990
397H84831099I02198624I18379534I31307362I41047548I48405880I53929286
390I57858725I60519369I62346832I63542069I63879271I62763169I59385801
383I53154877I44409479I34700600I25974479I19304752I14447341I10195992
376I04571057H95034003H79807153H59982768H40345789H27301648H24825076
369H31658439H42192166H49876176H50088005H41227380H24771449H04563628
362G85225803G70584362G62965500G62702655G67291059G71857433G72630899
355G70924896G72612854G82697343H00808983H22189579H41989614H58023049
348H70465839H80261102H88055483H94176761H99134180I03732078I08551732
341I13507557I18017549I21496373I23696836I24769457I25025924I24543859
334I23032364I20178226I16140735I11757926I08342438I07145245I08676162
327I12282025I16398726I19402006I20415564I19493027I17294738I14742654
320I12694522I11492471I10793140I10056850I09125471I08165687I07256775
313I06297714I05301404I04763318I05661867I08609853I12371380I12976935
306I04829626H84369468H54733225H26798927H13075529H18709233H38618117
299H63102724H85021186I02008319I14550755I23886704I31140972I37095281
292I42211046I46747634I50814403I54431644I57702554I60839177I63877313
285I66463460I68139679I68794150I68658488I67920458I66502446I64205166
278I60977449I56960682I52213426I46433986I39058914I29758327I18955449
271I07886028H97960030H89751341H82207052H72338740H55259281H24764854
264G75794626G09746244F39082282E84054694E60889902E71565451F04838321
257F45958910F84640357G16740055G42619264G64806733G85596846H05437972
250H22789914H34985730H38730952H29661326H03465353G61135358G13650682
243F77874608F65966930F78679019G07245540G40802599G72415230G99551567
236H21450390H37159524H45161603H43770841H30799964H02297507G53780939
229F86576451F13743985E56339580E31118466E41588384E78866062F28448330
222F77329855G18263291G49873385G73817224G92266211H07108176H19543429
215H29767059H37623908H43357040H47322207H49351063H48171187H41169115
208H27535507H10045436G89063351G63723170G37788739G19631080G15655187
201G25817291G44730807G65340109G82618424G94691763H01510634H03235480
194G99750858G91361430G79823494G68666167G62349149G64527581G76048487
187G94317460H15208015H35067331H50383680H57815279H57330386H54226373
180H55095790H61893641H71455264H79872158H84999445H84657245H75662842
173H58286765H41074107H35886163H46407933H65586470H84442952H99361734
166I10802996I19521361I25991944I31016397I35216945I38552062I40570989
159I40653459I37851500I30681298I17599473H98842345H78591550H64035551
152H60488243H67497705H79963760H92791507I04010433I13585026I21187363
145I26011004I27395678I25443568I22161788I21271500I25282758I32929011
138I40520188I45768934I49119632I51724692I53795942I55011835I55539702
131I56197000I57549353I59120564I59964978I59840548I59315941I58984031
124I59033745I59492767I60529950I62080651I63165229I62450825I59864173
117I56678850I53636147I50050213I45084387I39050145I33299330I29225023
110I27068623I25447409I22464928I17654477I12283690I07563538I02664675
103H93149507H71265467H31341675G77452003G23907503F85524992F66775112
96F62664354F68943106F85735588G12178827G43079735G70580738G88031386
89G93198676G87310604G72408635G52002900G33724362G27310886G36660462
82G56088439G76565267G92692910H03494631H10252118H14991984H19185575
75H22672441H24508892H24835801H24624191H24012256H22671211H21203849
68H20124127H18495013H15195116H10535474H05771476H01965235G99447501
61G97358061G94152302G90006686G87210234G86778968G86886078G85368278
54G82666109G80751031G79902341G78118722G73842082G68122139G63279367
47G60570168G60177092G61585828G63153995G63457569G63268352G64226833
40G66424034G68803569G70700458G71427616G69990112G66196046G59441674
33G47201001G30593753G17329522G11517905G10756396G10585296G08108724
26G03942310G00503851F99015183F99038663F99964315G02174632G06795215
19G13997376G21393320G26143186G28241612G27745413G23487252G16517284
12G09910967G04203780F95917836F82494174F68845347F64363980F71268654
5F82332495F88674805F87118596F83046391F84086401
##END=


$$ === CHEMSPECTRA PEAK TABLE EDIT ===
##TITLE=CZ-190.S-10
##JCAMP-DX=5.00
##DATA TYPE=INFRAREDPEAKTABLE
##DATA CLASS=PEAKTABLE
##$CSTHRESHOLD=0.93
##MAXX=3997.453
##MAXY=0.8831305518107827
##MINX=373.96442
##MINY=0.43683400786696974
##$CSSOLVENTNAME=- - -
##$CSSOLVENTVALUE=0
##$CSSOLVENTX=0
##NPOINTS=53
##PEAKTABLE= (XY..XY)
375.380951892103, 0.5617915995027732
382.46361135261895, 0.5464257009392917
406.54465351837325, 0.5749256022850339
432.0422275762312, 0.6277725114573158
437.708355144644, 0.6252300153704055
453.2902059577791, 0.6471095092688386
491.5365670445658, 0.5981982356769662
508.5349497498041, 0.5450277935325947
572.2788848944483, 0.7577268489825301
587.8607357075839, 0.7077338710194591
614.7748416575446, 0.6874991665302655
628.9401605785765, 0.7025836118137437
641.6889476075057, 0.6270164859070136
658.687330312744, 0.5886116631237516
692.6840957232212, 0.43683400786696974
715.3486059968723, 0.5477440959705394
740.8461800547302, 0.46132040128081686
800.3405195230648, 0.6687378895081132
813.0893065519936, 0.7441492090259156
838.586880609851, 0.746108294963358
875.4167098045345, 0.6340698613256404
881.0828373729473, 0.6273072373168601
896.6646881860825, 0.6784016501099359
937.7441130570755, 0.7110278616175469
944.8267725175915, 0.7228969946842545
975.9904741438622, 0.7424339660295589
995.821920633307, 0.7510244263548967
1026.9856222595777, 0.7355080856132646
1075.1477065910867, 0.7352960718032535
1090.7295574042219, 0.703909815464605
1113.394067677873, 0.7135602839765212
1150.2238968725565, 0.6872148526668393
1172.8884071462076, 0.6883198035963647
1206.8851725566847, 0.7333427086776155
1236.6323422908522, 0.655647993829709
1277.7117671618448, 0.606517256409239
1304.625873111806, 0.5853209501061525
1391.0343185301012, 0.733702303259875
1408.03270123534, 0.679564060274222
1433.5302752931975, 0.5364536651810998
1450.5286579984358, 0.6857418430193434
1483.1088915168098, 0.5047925123683841
1491.608082869429, 0.4928915509930814
1562.4346774745895, 0.6986588847778816
1590.7653153166534, 0.5761024362709084
2850.0621673964033, 0.7162642492231659
2888.3085284831895, 0.735352874699437
2922.305293893667, 0.6772289885621591
2949.219399843628, 0.7594072237863553
3005.880675527756, 0.7624123110858533
3025.7121220172007, 0.7749924669189184
3049.7931641829555, 0.7767151007153432
3371.3459036903832, 0.6435994516821579
##END=


$$ === CHEMSPECTRA PEAK TABLE AUTO ===
##TITLE=CZ-190.S-10
##JCAMP-DX=5.00
##DATA TYPE=INFRAREDPEAKTABLE
##DATA CLASS=PEAKTABLE
##$CSTHRESHOLD=0.93
##MAXX=3997.453
##MAXY=0.8831305518107827
##MINX=373.96442
##MINY=0.43683400786696974
##NPOINTS=176
##PEAKTABLE= (XY..XY)
3988.953808647381, 0.7932296411376201
3974.788489726349, 0.7944666156411644
3970.5388940500393, 0.7944570197737713
3957.79010702111, 0.7943811427573586
3946.4578518842845, 0.7945672879446518
3936.542128639562, 0.7944509400058986
3915.2941502580143, 0.7952899348126522
3905.3784270132915, 0.7937448636307729
3892.6296399843627, 0.7963228834263125
3881.297384847537, 0.7944951663692709
3872.798193494918, 0.7940508136378216
3860.049406465989, 0.7971555599461617
3854.383278897576, 0.7959029690258698
3841.6344918686473, 0.794813634513092
3833.135300516028, 0.7956804644908566
3823.2195772713058, 0.795923770352881
3816.13691781079, 0.7952897563346181
3803.3881307818606, 0.7986271393019463
3797.722003213448, 0.7979964629051697
3790.639343752932, 0.796938956700987
3780.7236205082095, 0.7967936410370614
3772.2244291555903, 0.7976956978083847
3759.4756421266616, 0.7973885543836975
3743.893791313526, 0.7951421747398904
3736.81113185301, 0.7956359996084525
3726.8954086082877, 0.7964055549452138
3715.563153471462, 0.7960165155997184
3701.39783455043, 0.7981058370409208
3691.4821113057073, 0.7988739620859706
3678.7333242767786, 0.7990086685878576
3670.2341329241594, 0.799349428391399
3661.7349415715403, 0.7994906916992223
3651.819218326818, 0.7998067154342071
3636.2373675136823, 0.7994366301269457
3630.5712399452696, 0.7991718065583352
3622.0720485926504, 0.8005385411725346
3603.657133995309, 0.7996732607459973
3589.491815074277, 0.8010718837097897
3579.576091829554, 0.801191688529545
3568.2438366927286, 0.8021779671934763
3554.0785177716966, 0.8019143954385431
3546.9958583111807, 0.8025508538656423
3531.414007498045, 0.8031990540089414
3524.331348037529, 0.8025307072322494
3515.83215668491, 0.8021174088562611
3505.9164334401876, 0.8029888282691894
3496.000710195465, 0.8017093554315342
3486.084986950743, 0.8032861957034905
3473.336199921814, 0.8041741255682957
3463.4204766770913, 0.8033819207932665
3440.75596640344, 0.8053007142864025
3430.840243158718, 0.8051863328959425
3415.2583923455823, 0.8075031052633899
3406.759200992963, 0.8073905719841866
3371.3459036903832, 0.6435994516821579
3313.2680961141514, 0.7894723429473697
3286.3539901641907, 0.7937329426140595
3263.6894798905396, 0.7966349132012338
3256.6068204300236, 0.7969188108900735
3246.691097185301, 0.798766315979481
3238.1919058326816, 0.7990628494196501
3225.443118803753, 0.8005562433970913
3219.77699123534, 0.8008456837747424
3197.1124809616886, 0.8032590160485771
3185.780225824863, 0.8046847594487645
3171.614906903831, 0.8060907732126249
3160.2826517670055, 0.8064765941961498
3151.7834604143864, 0.8062790042077272
3137.618141493354, 0.8076045523424908
3124.869354464425, 0.8099713923221512
3117.7866950039092, 0.8094562306924754
3075.290738240813, 0.7934341440655677
3049.7931641829555, 0.7767151007153432
3025.7121220172007, 0.7749924669189184
3005.880675527756, 0.7624123110858533
2981.7996333620013, 0.7937177431943778
2949.219399843628, 0.7594072237863553
2922.305293893667, 0.6772289885621591
2888.3085284831895, 0.735352874699437
2850.0621673964033, 0.7162642492231659
2770.7363814386235, 0.7891747962125552
2749.4884030570756, 0.7926765689640382
2742.4057435965597, 0.7928095474366638
2725.4073608913213, 0.794675411089205
2716.908169538702, 0.795988262609162
2705.5759144018766, 0.7972034224910497
2697.076723049257, 0.7975156916074823
2685.7444679124314, 0.7977960123333244
2675.828744667709, 0.7982481136433894
2668.7460852071927, 0.798090042146139
2663.07995763878, 0.7986193907233304
2648.914638717748, 0.8003408327470757
2636.165851688819, 0.7990425835267413
2603.5856181704457, 0.8034529698554839
2588.0037673573106, 0.8040779834814537
2578.088044112588, 0.8053179995138933
2544.0912787021107, 0.8040220754428792
2531.342491673182, 0.8052886139691755
2521.4267684284596, 0.8057554376608584
2511.511045183737, 0.8086360106234421
2491.6795986942925, 0.8095017088695249
2484.5969392337765, 0.8094848406391001
2467.5985565285378, 0.8108795296838266
2460.515897068022, 0.8100348721062662
2453.433237607506, 0.8106923119833697
2437.8513867943702, 0.8114239575987042
2425.1025997654415, 0.810066581977825
2413.770344628616, 0.810833873028743
2399.605025707584, 0.8127611290126313
2386.8562386786552, 0.8134233368029324
2378.357047326036, 0.8128274093391714
2364.1917284050037, 0.8133146774017974
2348.6098775918686, 0.8127751958781516
2330.1949629945266, 0.8116195218203154
2321.6957716419074, 0.8115677845748797
2311.780048397185, 0.81256348062817
2304.697388936669, 0.8124510065674849
2283.449410555121, 0.814915241270144
2274.950219202502, 0.8162598627026574
2260.78490028147, 0.81778723165998
2245.2030494683345, 0.8152539144433969
2235.287326223612, 0.8174862280441632
2228.2046667630957, 0.8185845629492341
2219.7054754104765, 0.8206992159340929
2187.125241892103, 0.8186373126668358
2170.1268591868647, 0.820308865556402
2147.462348913213, 0.8210923684991677
1903.818863471462, 0.819945515533111
1590.7653153166534, 0.5761024362709084
1562.4346774745895, 0.6986588847778816
1491.608082869429, 0.4928915509930814
1483.1088915168098, 0.5047925115459047
1450.5286579984358, 0.6857418430193434
1433.5302752931975, 0.5364536651810998
1408.03270123534, 0.679564060274222
1391.0343185301012, 0.733702303259875
1334.373042845973, 0.7800799018566165
1304.625873111806, 0.5853209501061525
1277.7117671618448, 0.606517256409239
1236.6323422908522, 0.655647993829709
1206.8851725566847, 0.7333427086776155
1172.8884071462076, 0.6883198035963647
1150.2238968725565, 0.6872148526668393
1113.394067677873, 0.7135602839765212
1090.7295574042219, 0.7039098146421255
1075.1477065910867, 0.7352960718032535
1026.9856222595777, 0.7355080856132646
995.821920633307, 0.7510244263548967
975.9904741438622, 0.7424339660295589
961.8251552228303, 0.7850803744002792
944.8267725175915, 0.7228969946842545
937.7441130570755, 0.7110278616175469
896.6646881860825, 0.6784016501099359
881.0828373729473, 0.6273072373168601
875.4167098045345, 0.6340698613256404
838.586880609851, 0.746108294963358
813.0893065519936, 0.7441492090259156
800.3405195230648, 0.6687378895081132
740.8461800547302, 0.46132040128081686
715.3486059968723, 0.54774409514806
692.6840957232212, 0.43683400786696974
658.687330312744, 0.5886116631237516
641.6889476075057, 0.6270164859070136
628.9401605785765, 0.7025836118137437
614.7748416575446, 0.6874991665302655
587.8607357075839, 0.7077338710194591
572.2788848944483, 0.7577268489825301
549.6143746207972, 0.7887446296061421
508.5349497498041, 0.5450277935325947
491.5365670445658, 0.5981982356769662
453.2902059577791, 0.6471095092688386
437.708355144644, 0.625230014547926
432.0422275762312, 0.6277725114573158
406.54465351837325, 0.5749256022850339
382.46361135261895, 0.5464257009392917
375.380951892103, 0.5617915995027732
##END=

##END=

