##TITLE=X7688
##JCAMP-DX=4.24
##DATA TYPE=INFRARED SPECTRUM
##DATE=29/10/2018
##SAMPLING PROCEDURE=Diamant-ATR
##ORIGIN=ComPlat
##XUNITS=1/CM
##YUNITS=TRANSMITTANCE
##RESOLUTION=4
##FIRSTX=3997.453
##LASTX=373.96442
##DELTAX=-1.4165319
##MAXY=0.96688467
##MINY=0.677046
##XFACTOR=1
##YFACTOR=9.0048152e-010
##NPOINTS=2559
##FIRSTY=0.95465678
##XYDATA=(X++(Y..Y))
3997+1060162541+1060163864+1060109058+1059663122+1059031717+1058644163
3989+1058711149+1059246444+1060125275+1060995567+1061527022+1061784376
3980+1061974943+1061943700+1061366175+1060307435+1059230227+1058572808
3972+1058488612+1058855315+1059368303+1059720577+1059801861+1059718723
3963+1059670006+1059832375+1060275464+1060874899+1061281516+1061076784
3955+1060187826+1059168933+1058806201+1059362677+1060326101+1060906075
3946+1060741522+1060169292+1059950462+1060588486+1061666025+1062325562
3938+1062260164+1061598046+1060379055+1058822286+1057739584+1057851183
3929+1058794353+1059645383+1059972834+1059926434+1059846805+1059855939
3921+1059730572+1059265375+1058647274+1058332465+1058530710+1059096718
3912+1059937422+1061054875+1062102958+1062345684+1061407810+1059892146
3904+1058968239+1059104594+1059768367+1060567900+1061436273+1062026904
3895+1061911928+1061091677+1060150494+1059889168+1060291019+1060515344
3887+1060077153+1059133984+1058075177+1057114070+1056416737+1056400388
3878+1057177614+1058175855+1058769464+1058674876+1058032285+1057392539
3870+1057468594+1058459554+1059599843+1060055574+1059718194+1059074609
3861+1058545537+1058154673+1057884147+1057805312+1057908307+1058028644
3853+1058124556+1058598623+1059466532+1060240118+1060478210+1060041608
3844+1059176413+1058312740+1057745144+1057513141+1057569073+1057976882
3836+1058749673+1059502077+1059597327+1058779857+1057635596+1057085475
3827+1057496659+1058461076+1059234595+1059374525+1058896818+1058168772
3819+1057708937+1057894936+1058908865+1060330337+1061181765+1061010526
3810+1060100254+1059078713+1058709296+1059231418+1059718194+1059154900
3802+1057684049+1056667605+1057204488+1058976050+1061098627+1062622565
3793+1063009921+1062542738+1061818928+1061247030+1061006952+1061080689
3785+1061229423+1061179977+1060865963+1060353504+1059780083+1059390080
3776+1059324352+1059521008+1059889565+1060276987+1060305648+1059651870
3768+1058670838+1058201868+1058689240+1059797293+1060788783+1061143307
3759+1060763630+1059929677+1059025429+1058138721+1057133927+1056009259
3751+1055099054+1054735991+1054662518+1054529869+1054305478+1054065466
3742+1053868214+1053589546+1052930274+1051761191+1050559741+1050291200
3734+1051318963+1053085626+1055030413+1056695008+1057660881+1057844829
3725+1057492820+1056875514+1056256950+1055996948+1056283029+1056969771
3717+1057812461+1058531372+1058747753+1058258529+1057546303+1057514796
3708+1058165198+1058686989+1058546199+1057813454+1057019415+1056771791
3700+1057199325+1057913139+1058472660+1058725513+1059007557+1059860308
3691+1061287804+1062365409+1062034714+1060671027+1059491817+1058910321
3683+1058555598+1057917441+1056946670+1056081475+1055634348+1055668569
3674+1056165208+1056576988+1056156338+1055034384+1054810126+1056519335
3666+1058932429+1060462655+1060511637+1059476858+1058085635+1056771261
3657+1055971067+1056307719+1057498380+1058251181+1057857472+1056666016
3649+1055456954+1054715339+1054741087+1055682470+1057145709+1058433275
3640+1059134579+1059347056+1059226719+1058609809+1057358715+1055813199
3632+1054415622+1053116670+1051925413+1051765891+1052919617+1054285819
3623+1055170342+1055720530+1056230804+1056549915+1056405749+1055964050
3615+1055450798+1054954226+1054705741+1054948467+1055756605+1057026829
3606+1058161955+1058364502+1057609781+1056609422+1055911295+1055415584
3598+1054833558+1054149133+1053565518+1053434127+1053880790+1054408142
3589+1054366573+1053863978+1054022772+1055442921+1057134854+1057888780
3581+1057538492+1057047679+1057280873+1057837680+1057915522+1057701060
3572+1057782675+1057895069+1057357987+1056306660+1055749324+1056042289
3564+1056386885+1056398336+1056523174+1057254992+1058489208+1059563702
3555+1059835685+1059177670+1058075111+1057218057+1056859694+1056758950
3547+1056566066+1056066184+1055501302+1055672342+1057108509+1059179391
3538+1060512895+1060424528+1059571248+1058885499+1058455251+1057921214
3530+1057271540+1056754515+1056376095+1056068965+1056250264+1057523334
3521+1059602027+1061180044+1061297270+1060405267+1059699726+1059608911
3513+1059496252+1058844791+1058121644+1058177245+1059058790+1059859977
3504+1059733881+1058828243+1058107412+1058092652+1058335708+1058337694
3496+1058297119+1058731139+1059671926+1060536525+1060738808+1060280892
3488+1059706213+1059487383+1059573829+1059581640+1059289402+1058866436
3479+1058568241+1058366620+1058189888+1058260117+1058733787+1059272192
3471+1059448462+1059203882+1058652636+1057991709+1057649430+1057878521
3462+1058278452+1058310820+1058100793+1058257602+1059083943+1060175514
3454+1060769058+1060565319+1060111705+1060103431+1060474305+1060527126
3445+1059901612+1059049523+1058717371+1059150929+1059759895+1059686620
3437+1058793889+1057829671+1057496394+1057695036+1057913801+1058014479
3428+1058258065+1058707244+1058975785+1058640324+1057774864+1056968977
3420+1056742600+1057088784+1057717674+1058413683+1058958178+1059092415
3411+1058848101+1058646745+1058884440+1059545168+1060267455+1060676918
3403+1060619861+1060124348+1059290130+1058320749+1057505992+1056979435
3394+1056598434+1056200819+1055845302+1055690214+1055732114+1055763356
3386+1055593772+1055294121+1055209396+1055685514+1056658338+1057536110
3377+1057727404+1057296693+1056802107+1056595455+1056574142+1056487960
3369+1056267011+1056128868+1056269923+1056427924+1056254633+1056157132
3360+1056902123+1058280372+1059115847+1058761852+1057784462+1057062837
3352+1056926018+1057218520+1057667567+1058076037+1058364767+1058447507
3343+1058157983+1057541074+1057031263+1056919730+1056844734+1056332409
3335+1055659633+1055623228+1056561234+1057975227+1059035027+1059320579
3326+1059135506+1059076926+1059345997+1059627577+1059526568+1058991340
3318+1058419838+1058319293+1058750798+1059284703+1059519022+1059327529
3309+1058699698+1057802334+1057140083+1057226927+1058038904+1058912836
3301+1059084406+1058380984+1057313771+1056513907+1056282500+1056591021
3292+1057153917+1057563050+1057643605+1057606736+1057709731+1057893943
3284+1057914463+1057806967+1058004285+1058742789+1059530804+1059663255
3275+1059125114+1058500460+1058186048+1058186843+1058430363+1058783100
3267+1058952485+1058794617+1058601999+1058750335+1059144641+1059346063
3258+1059190512+1058931436+1058763706+1058539646+1058066704+1057474485
3250+1057183439+1057518171+1058355831+1059192034+1059647964+1059929876
3241+1060529310+1061344001+1061527551+1060659378+1059585744+1059391669
3233+1060009174+1060532620+1060421550+1059835817+1059252269+1059128093
3224+1059538814+1059992626+1059960721+1059563636+1059393125+1059694299
3216+1060084633+1060148442+1060001297+1060043660+1060347282+1060588486
3207+1060530965+1060317099+1060196696+1060113095+1059816158+1059424765
3199+1059484536+1060259247+1061316333+1062011084+1062077210+1061679263
3190+1061119147+1060504753+1059755857+1059037012+1058821293+1059235721
3182+1059808414+1060145331+1060393749+1060801028+1061200431+1061181434
3173+1060562870+1059579456+1058747423+1058595247+1059273185+1060310612
3165+1061037929+1061311633+1061412642+1061338375+1060830682+1059946159
3156+1059012521+1058309761+1058143090+1058685334+1059536629+1060048293
3148+1060054648+1059763535+1059243730+1058513963+1057761030+1057208128
3139+1057066742+1057548156+1058540043+1059444424+1059689533+1059329515
3131+1058938254+1058965194+1059349108+1059712435+1059765587+1059473284
3122+1059015963+1058703670+1058732926+1058930907+1058944277+1058669912
3114+1058248931+1057713305+1056953289+1056058109+1055482437+1055657383
3105+1056383244+1056883920+1056708644+1056234444+1055942538+1055723376
3097+1055354819+1055094950+1055236799+1055499383+1055365741+1054785370
3088+1054246369+1054251664+1054815487+1055435176+1055537377+1054952571
3080+1053961412+1052929479+1051996437+1051174797+1050593896+1050381751
3071+1050352295+1050118174+1049505237+1048654802+1047916298+1047754128
3063+1048374016+1049344655+1050015974+1050243740+1050257442+1050096331
3054+1049748360+1049532243+1049807866+1050503676+1051227022+1051700626
3046+1051959436+1052139677+1052160329+1051828111+1051305261+1051081400
3037+1051315256+1051629535+1051709628+1051675539+1051725845+1051771848
3029+1051583466+1051109730+1050528631+1050016172+1049619351+1049445929
3020+1049691170+1050218521+1050448141+1050043112+1049356238+1048868404
3012+1048599664+1048379510+1048218266+1048116132+1047901736+1047475460
3003+1046959162+1046551221+1046332655+1046130042+1045612950+1044729817
2995+1043877397+1043440530+1043426497+1043658765+1043962453+1044135347
2986+1044071604+1043808690+1043263466+1042192613+1040491744+1038279145
2978+1035832623+1033613472+1031925576+1030357025+1028074859+1024806299
2969+1021039182+1017229966+1013305908+1009014550+1004405471+999786198+995365899
2959+991166217+987254669+983866765+981298451+979794701+979484791+980321987
2949+982162454+984888107+988251255+991649551+994358523+996079514+997069018
2939+997739807+998372603+999201326+1000366305+1001607007+1002333861+1002251651
2929+1001731448+1001478595+1001985625+1003219708+1004714058+1006102037
2921+1007522716+1009209817+1010852900+1011872653+1012272982+1012756448
2912+1013923942+1015613757+1017129024+1018053924+1018717829+1019735862
2904+1021219952+1022689877+1023667135+1024075871+1024116910+1024051049
2895+1024130479+1024510951+1025163603+1025963798+1026819859+1027614758
2887+1028157003+1028340222+1028247222+1027980601+1027521361+1026823235
2878+1025858156+1024538486+1022810810+1020877144+1019173561+1018092249
2870+1017749044+1017983363+1018548047+1019303628+1020228727+1021344062
2861+1022709205+1024349839+1026066065+1027486544+1028449704+1029194959
2853+1030053535+1031039862+1031856340+1032301613+1032592990+1033210098
2844+1034420087+1036014453+1037557454+1038884934+1040216385+1041709014
2836+1043163715+1044362584+1045390016+1046374092+1047228762+1047891873
2827+1048507194+1049212072+1049969308+1050657705+1051163412+1051405078
2819+1051386081+1051234237+1051158910+1051298708+1051601669+1051956987
2810+1052405702+1053048228+1053793218+1054389740+1054675028+1054681647
2802+1054513453+1054186531+1053699491+1053264212+1053228005+1053645213
2793+1054170711+1054474532+1054549197+1054589177+1054765314+1055112491
2785+1055515600+1055805057+1055880715+1055750647+1055517188+1055331785
2776+1055270491+1055239248+1055056956+1054686678+1054351018+1054314877
2768+1054614727+1055163856+1055946112+1056831231+1057430269+1057496858
2759+1057260883+1057084879+1057032984+1056956665+1056767687+1056511392
2751+1056329761+1056355179+1056563220+1056791516+1056931512+1056989496
2742+1056948523+1056732870+1056398865+1056238019+1056505898+1057091432
2734+1057608854+1057781748+1057570993+1057024909+1056296466+1055725097
2725+1055583182+1055758855+1055931616+1055986953+1056056984+1056245168
2717+1056509009+1056747763+1056905763+1057015113+1057171326+1057457606
2708+1057889773+1058388331+1058784490+1058913498+1058730676+1058321543
2700+1057841453+1057453899+1057260486+1057262538+1057354744+1057345146
2691+1057139222+1056957790+1057091101+1057402534+1057478986+1057289213
2683+1057202899+1057341770+1057435167+1057344749+1057261280+1057307880
2674+1057329789+1057175827+1056935086+1056795554+1056839638+1057019415
2666+1057201906+1057249962+1057154645+1056997042+1056767157+1056418988
2657+1056096236+1056060161+1056411376+1057053371+1057787573+1058327501
2649+1058456641+1058282755+1058125483+1058133161+1058217556+1058286065
2640+1058315321+1058257602+1058048568+1057667765+1057182049+1056845463
2632+1057032124+1057803988+1058687453+1059196138+1059384388+1059510219
2623+1059456736+1058980882+1058287521+1057834371+1057707811+1057657108
2615+1057642414+1057874152+1058334385+1058733191+1059015037+1059418940
2606+1059907635+1060074638+1059819600+1059565754+1059539939+1059363537
2598+1058728161+1058054393+1058025798+1058731272+1059669344+1060372568
2589+1060683670+1060628995+1060335434+1059993817+1059816952+1060032540
2581+1060666990+1061313420+1061539466+1061493595+1061566274+1061668143
2572+1061502994+1061244184+1061259275+1061521197+1061932779+1062800158
2564+1064261280+1065539645+1065515287+1064021268+1061981628+1060347812
2555+1059488243+1059440850+1060019963+1060694393+1060937980+1060723385
2547+1060383225+1060189216+1060289894+1060750987+1061442561+1062061985
2538+1062345883+1062232363+1061923181+1061788282+1062066155+1062732907
2530+1063655756+1064606603+1065164999+1065027849+1064388037+1063603398
2521+1062717617+1061777360+1061296144+1061789010+1063003699+1064085077
2513+1064455288+1064304437+1064288220+1064838738+1065734978+1066379158
2504+1066472356+1066191835+1065676332+1064723233+1063249072+1061791128
2496+1061168526+1061636768+1062588278+1063161963+1063025939+1062505207
2487+1062112424+1062170342+1062807704+1063955274+1065161093+1065723328
2479+1065361589+1064614480+1064230765+1064297884+1064301988+1063946802
2470+1063540515+1063552165+1064007169+1064428745+1064375792+1063983538
2462+1063788470+1064012199+1064335216+1064437086+1064333958+1064040728
2453+1063454466+1062801350+1062628522+1063053541+1063535088+1063630272
2445+1063465851+1063308711+1063189764+1063048378+1062796451+1062233224
2436+1061312428+1060461066+1060272155+1060877348+1061811780+1062470125
2428+1062612967+1062507987+1062585895+1062892628+1063001183+1062662347
2419+1062309146+1062516128+1063169178+1063640531+1063592211+1063165472
2411+1062660890+1062387120+1062512422+1062855627+1063150380+1063406013
2402+1063633449+1063576458+1063170767+1062817170+1062804990+1062933204
2394+1062985562+1063125095+1063609951+1064402202+1065029239+1064645458
2385+1062568155+1059063158+1055271351+1052101947+1049523969+1047029525
2377+1044311153+1041304449+1038025034+1034571600+1031020467+1027373555
2368+1023697915+1020030681+1016371126+1013328479+1012113658+1012971109
2360+1014457847+1015359977+1016387012+1018833930+1022598797+1026538344
2351+1029816237+1032022018+1032699162+1031497116+1028821901+1026105647
2343+1024701914+1024613416+1025042009+1025528189+1026219630+1027417837
2334+1028969112+1030268460+1030963211+1031287552+1031526306+1031654189
2326+1031728324+1032051275+1032719946+1033539601+1034644345+1036521285
2317+1039077221+1041432729+1042894115+1043556763+1043905859+1044356693
2309+1045224006+1046672684+1048531288+1050318471+1051611796+1052444094
2300+1053258056+1054400728+1055788708+1057041457+1057754344+1057792140
2292+1057571390+1057807033+1058781975+1060153274+1061436140+1062256722
2283+1062340323+1061827269+1061357239+1061366837+1061592883+1061562236
2275+1061177330+1060600003+1059961052+1059380615+1058989354+1058813879
2266+1058867429+1059339311+1060287908+1061144101+1061156744+1060438760
2258+1059805435+1059519949+1059174625+1058808716+1058844989+1058955861
2249+1058535807+1058209282+1059160924+1061043225+1062326952+1062748198
2241+1063579436+1065242178+1066321968+1065477491+1063197442+1061110873
2232+1060298499+1060671888+1061464073+1062030743+1062451525+1063284352
2224+1064598064+1065802891+1066513859+1066630489+1065643831+1063321486
2215+1061013174+1060609866+1062203901+1064145047+1065283615+1065914159
2207+1066611028+1067220325+1067180015+1066240684+1064604816+1062709674
2198+1061175675+1060571673+1060835978+1061170644+1060715839+1059168139
2190+1056968911+1055047821+1054023434+1053739007+1054001326+1055147506
2181+1057192507+1059474872+1061828262+1064652739+1067140498+1067218671
2173+1064422192+1061239352+1060281090+1061371405+1062564912+1063049305
2164+1063708444+1065535343+1068564883+1071649826+1073012123+1072132961
2156+1070342667+1068901204+1068284891+1068617638+1069375073+1069684454
2147+1069487069+1069169017+1068291775+1066274707+1063652976+1061323349
2139+1059536034+1058561489+1059215466+1061841963+1065535872+1068865792
2130+1070845660+1071146701+1069936050+1067748802+1065440821+1064089313
2122+1064381286+1065697645+1066385579+1065649921+1064585951+1064518965
2113+1065080207+1064956957+1063912845+1062946840+1062788442+1063109870
2105+1063104972+1062432925+1061542974+1061043490+1060891049+1060622641
2096+1060314120+1060579815+1061500744+1062378383+1062761370+1062956570
2088+1063341675+1063880676+1064409682+1064686497+1064311917+1063443015
2079+1063154418+1064011008+1064859457+1064313704+1062843911+1062000956
2071+1062233224+1062853575+1063581223+1064748585+1066166020+1066827542
2062+1065994119+1064010677+1061846133+1060377400+1060372766+1062272608
2054+1064998724+1065779988+1062801283+1057865944+1055057750+1056364048
2045+1059928287+1063161699+1065739545+1068361210+1070057313+1068801122
2037+1064679083+1060572865+1059070108+1060031944+1061894917+1063950641
2028+1066220297+1068291709+1069585828+1070212600+1070621269+1070640134
2020+1069625080+1067518256+1065272428+1064267568+1065318233+1067693664
2011+1069319273+1069073039+1068445075+1069221044+1070250660+1068876846
2003+1065063593+1061789672+1061660332+1064314961+1067036179+1067597686
1994+1066224401+1064701258+1064310791+1065088415+1066321306+1066884070
1986+1065716378+1062787251+1059175618+1056228222+1055404530+1058274547
1977+1064722638+1071246915+1073741823+1072032548+1069298687+1067744500
1969+1066924712+1065901583+1064929024+1064371489+1063844866+1063380529
1960+1063927672+1065804215+1067625089+1067513821+1064991642+1061548534
1952+1059530275+1060319747+1063293156+1066451506+1068250802+1068685749
1943+1068418532+1067647264+1066601232+1066132460+1066662460+1067400037
1935+1067374884+1066659878+1065993259+1065830228+1066159533+1066589053
1926+1066501017+1065747951+1065099866+1065300560+1065893838+1066033305
1918+1065986573+1066574689+1067379054+1067174190+1065890794+1064871967
1909+1065186710+1066351688+1067234888+1067547115+1067673873+1067656266
1901+1067193518+1066404576+1065831155+1065786343+1066122465+1066378430
1892+1066008748+1064793529+1063219948+1062384274+1063199494+1065503240
1884+1067876553+1068730694+1068016747+1067075166+1066795903+1066928948
1875+1066960257+1066816687+1066767241+1066936428+1066902670+1066134049
1867+1065084311+1064784527+1065471004+1066548808+1067265402+1067288967
1858+1066905516+1066623075+1066723886+1067227938+1067902963+1068258480
1850+1067941288+1067171873+1066559796+1066552118+1067066892+1067580211
1841+1067850605+1068116035+1068459042+1068553035+1068022241+1066824365
1833+1065165528+1063356700+1062041929+1062076150+1063524563+1065437379
1824+1066774986+1067198813+1066969987+1066433502+1066061503+1066287416
1816+1066892940+1067275000+1067189017+1066664379+1065795345+1064984890
1807+1064713437+1064950934+1065227153+1065166918+1064858464+1064722241
1799+1064917573+1065186379+1065349939+1065382836+1065206766+1064896061
1790+1064714298+1064634205+1064465879+1064135184+1063562756+1062765341
1782+1061975208+1061269403+1060493302+1059648097+1058752255+1057455289
1773+1055125332+1051348815+1046490523+1041063709+1034849871+1027516265
1765+1018898269+1008131218+994325096+978914812+963991965+948886891+932819519
1755+917482310+903870263+890304417+875242435+860227846+848118555+839228775
1745+832155236+826065443+820800865+816006845+811571255+808279330+806446408
1735+805208486+804062240+804127703+806265174+810295471+815942176+822811313
1725+830795918+840042539+849987816+859873653+870381562+883528875+899781188
1715+915844125+929321935+940879185+951412909+961011473+969602131+977579455
1706+985231048+991947414+997294534+1001965106+1006677113+1010935640+1014487302
1696+1017845353+1020757005+1022715096+1023889342+1024589520+1024842639
1687+1024347390+1022336213+1018234893+1013414992+1009077234+1004394086
1679+998544834+990722135+979982488+967278594+955048371+943020297+928989850
1669+914015837+901885364+892690572+883944230+874623143+866354442+861007720
1659+858340382+857258077+857145418+858237122+861496547+866098478+870241764
1649+874502144+880538918+888974687+897810057+905692131+913162887+920689311
1639+928326143+936826979+947661678+959543600+968849065+975415573+980958820
1629+986425813+991690722+996163777+999665199+1002367023+1004092979+1004337690
1619+1002701888+999166774+995429377+994573912+997265145+1002212730+1008243215
1609+1014171103+1018630919+1020678634+1020139302+1017186677+1011963469
1601+1004787928+996396772+987784734+980006913+974101332+970901546+970881423
1591+974187116+980496402+988737170+997280634+1004639658+1010014380+1013274864
1581+1014603271+1014211215+1012238231+1009196380+1006584114+1005213344
1572+1004274477+1003378039+1003489904+1005586733+1009151899+1013314182
1564+1017371154+1020511235+1022575828+1025124285+1030141107+1035203800
1555+1038312704+1040281187+1041786856+1043072569+1044232715+1045144311
1547+1045544309+1045349175+1044742592+1043916582+1043163450+1043577084
1538+1045346263+1046843062+1047322159+1047255570+1047523979+1048220318
1530+1048641100+1048430279+1047771867+1047026612+1046321800+1045672457
1521+1045370952+1045513000+1045706413+1045985412+1046730337+1047679066
1513+1048108454+1047615588+1046135734+1043962784+1042730422+1044315323
1504+1046708163+1047794373+1047382857+1045565424+1042227496+1037170032
1496+1030875176+1024613482+1018976442+1013804797+1009608557+1007991222
1487+1009204521+1011175056+1011964528+1010870838+1008297029+1005333152
1479+1002790983+1000711628+998903462+997409377+996492354+996304501+996322836
1469+995658533+993664169+989974364+984876126+979515835+974552165+969308834
1459+962396606+953358159+945409893+941377809+939563421+938170809+936685328
1449+935197863+934020969+933221966+932108882+929391900+924134206+916473346
1439+906741406+894684472+881978196+873323861+870455498+871505634+874968864
1429+879729456+884206482+887330015+889080065+889831012+889672946+888204543
1419+885277137+882247332+880737560+880463393+880573669+881055083+882505547
1409+885319169+889413076+894873715+902131929+910841800+919780893+928442310
1400+937075265+945345886+952341516+957625422+961117446+962657402+962316381
1390+960620344+958643852+957789115+958571637+960074128+961034441+960655294
1380+958706801+955276203+950314983+943699228+936120910+929360260+924767597
1370+922507737+922350531+923903328+926606211+930287544+935189390+941051946
1360+946879554+951870825+955822353+958946151+961608657+963959663+965821378
1350+967017136+967680843+968213556+968989127+970068983+971202984+972196128
1340+973209130+974426798+975466740+975655982+974658072+972374317+968643009
1330+963419272+957051803+950108398+943107207+936596168+931172398+927164011
1320+924467747+922770850+921748912+921084411+920579366+920337766+920667402
1310+921716015+923319648+925209825+927180559+928975619+930147018+930184350
1300+928765526+925831434+921524521+916167407+910257391+904383515+899064660
1290+894544675+890748367+887579559+885240335+884058212+884002942+884534066
1281+884936580+884722052+883756576+882172866+880259985+878360871+876718450
1271+875302802+873771914+871720096+869102931+866418913+864339294+863068540
1261+862092010+860575288+857975267+854239591+849595761+844387909+839117903
1251+834480560+831196247+829628093+829456590+829844673+830023061+829657813
1241+828764487+827638098+826898270+827220360+828864635+831604982+835054246
1231+838883187+842782357+846415369+849557171+852269519+854755160+856943334
1221+858424247+858916186+858576555+857689252+856160482+853403785+848657357
1211+841466527+832016961+821058550+809514538+798190350+787791327+779044455
1201+772614965+768886305+767887468+769355805+772750394+777311814+782271711
1191+787024890+791130910+794225120+795873168+795449539+792277686+786070667
1181+777385619+767742905+759197522+753563659+751871064+754312091+760401951
1171+769174439+779479866+790293052+800897535+810937335+820353076+829244444
1162+837748789+845885834+853356127+859558711+863994897+866700229+868248724
1152+869370479+870604165+872264458+874556819+877537906+881042374+884928041
1142+889411091+894906944+901487749+908688244+915875831+922674739+928996205
1132+934780191+939849437+944044750+947375398+949948478+951874069+953323606
1122+954496793+955406204+955848367+955678915+954982179+953917481+952522353
1112+950705582+948371123+945560215+942481693+939307060+935901483+931895016
1102+927167585+922222780+917995497+915276992+914287952+914691260+915935867
1092+917524077+918909277+919364545+918299318+915677255+911943830+907736602
1082+903853847+901157650+900158019+900838803+902943112+906133962+909935301
1072+913946070+918163624+922791767+927736704+932549588+936845182+940542798
1062+943649253+946072938+947828151+949173635+950258654+950820954+950537322
1052+949529350+948281433+947131215+945985631+944554958+942808152+941031295
1043+939389403+937740428+936057498+934680241+933918504+933734888+933938362
1033+934348951+934771785+935202165+935994417+937441307+939283827+940929690
1023+941951561+942073355+940984497+938603307+935405242+932187584+929558373
1013+927740344+926717347+926403267+926658900+927165732+927377149+926754349
1003+925096637+922669709+920314135+919621568+922432477+929352582+938791888
993+948008656+955103575+959735424+962339879+963347056+963077986+961884611
983+960290973+959090317+959108586+960682763+963433371+966580865+969435526
973+971694393+973450532+974967851+976416065+977775317+978878737+979448385
963+979103326+977440054+974233318+969658858+964290755+958811185+953756370
953+949563439+946700372+945551345+946137211+947970199+950169162+951795962
943+952291144+951793248+951036475+950776937+951253916+952210588+953221869
933+953804623+953538002+952504282+951399075+950880924+951089032+951990302
924+953653838+955820434+957621914+958120472+956993885+954638708+951866456
914+949567146+948385421+948454922+949425495+950791036+952191525+953476047
904+954642217+955694007+956466070+956682650+956317337+955742129+955350338
894+955087490+954493616+953292430+951850835+950805267+950281424+949854353
884+949228442+948505030+947832122+947185559+946447916+945533606+944622209
874+944261330+944965547+946751340+949201171+951840973+954421864+957023936
864+959864763+962907939+965831572+968411205+970632541+972367234+973272343
854+973114012+971928911+969801237+966796783+963296022+960162958+958325403
844+958170712+959396852+961400086+963759167+966370970+969182606+971845774
834+973736084+974470881+974432027+974538861+975325353+976382174+976873517
824+976492384+975691527+975016171+974457577+973528705+971779384+969116083
815+965774514+962116481+958376304+954565434+950665867+946769344+942886920
805+938763822+934035863+928499169+922108070+914718531+906085311+896383157
795+886512147+877483099+869736455+863434913+859070082+857292232+858290341
785+861592526+866425599+872177350+878329893+883984342+888058061+890353201
775+892076840+895057398+900536107+908399117+917186829+925052884+930969321
765+935016166+937805760+939953094+941860746+943656600+945292005+946611211
755+947241756+946648742+944553568+941275477+937538080+933921284+930612215
745+927707447+925470423+924065102+923301048+922949105+923179718+924455303
735+926980725+930421185+934277265+938346813+942548944+946576527+950224763
725+953807404+957685525+961599654+964953006+967556402+969691755+971517528
715+972715007+972764850+971406789+968550605+963779290+956501946+946713213
705+934948385+921355930+905510632+887337098+867750034+848470167+831754709
696+820046078+815059969+816992245+824609153+835775672+848088702+859674944
686+869736653+878455658+886438608+894156856+901823276+909591301+917523945
676+925416344+932668270+938180870+940984563+941803821+944349895+951656562
666+959890313+964996362+967501860+969487685+972168129+975113208+977191835
656+978056302+978430353+978953137+979301968+978918982+978079932+977572769
646+977632739+977808016+977706212+977341693+976756821+975853698+974884118
636+974589034+975371820+976710553+977812583+978417379+978648587+978623633
626+978432471+977986602+976753842+974204128+970795175+968154447+967850030
616+969961223+973191192+976181745+978059413+978211588+976688511+974692492
606+973802938+974627094+976384359+977722760+978057096+978137387+979018071
596+980686175+982161594+982634668+982171258+981593865+981687792+982317344
586+982574433+981881006+980570670+979276021+978280957+977558340+976904297
577+976080471+975353684+975619246+977354865+979671783+980964711+980664398
567+979903389+980031933+980998138+981754116+981971557+982457538+983547323
557+984211890+983718495+983219408+984311178+986528741+987645665+986449377
547+983956455+981715261+980321126+979912655+980781822+982883616+985653419
537+988716584+992000368+995037984+996956028+997177639+995631064+992313456
527+987151873+980691669+974575332+970389749+968244666+967095243+966312324
517+966487071+968206606+970818739+973270755+975422523+977836875+980631566
507+983348813+985909913+988419647+989755004+988283557+984818738+982350837
497+982364605+983474445+983593260+982439269+981494842+982167551+984554103
487+987505536+989357985+989208457+987969476+987353162+987691469+987557695
477+985497073+981706458+977783194+975227058+974447780+974979103+976343320
467+978142484+979729833+980514208+980293987+979110012+977352019+976023149
458+975846483+975708804+973986224+971142749+968789029+967034147+964754695
448+962363642+961656646+962569102+962362186+958798410+952668240+946530325
438+942489967+941408523+942770555+945194968+947357526+948847044+950762507
428+954461248+959151809+961928827+960748492+956018811+949189653+943381374
418+943371578+948383700+953045269+954369903+952425381+948810903+944551648
408+939358690+933943326+931531556+934656743+941323731+946272838+945385998
398+939971429+936362709+936906079+938211450+937940063+936153873+932329500
388+925203802+916472817+912068337+916238365+925385234+933185958+936962209
378+936298701+930826876+921472097+912503152
##END=
