##TITLE=X8079
##JCAMP-DX=5.0
##DATA TYPE=LINK
##BLOCKS=1


$$ === CHEMSPECTRA SPECTRUM ORIG ===
##TITLE=X8079
##JCAMP-DX=5.00
##DATA TYPE=INFRARED SPECTRUM
##DATA CLASS=XYDATA
##ORIGIN=ComPlat
##OWNER=
##XUNITS=1/CM
##YUNITS=TRANSMITTANCE
##XFACTOR=1
##YFACTOR=8.2419599e-010
##FIRSTX=3997.453
##LASTX=373.96442
##MAXX=3997.453
##MAXY=0.8849737039876938
##MINX=373.96442
##MINY=0.5069343447819912
##NPOINTS=2559
##XYDATA= (X++(Y..Y))
2559A072480949A073026882A073627849A073741822A073405253A072958469A072594779
2552A072364372A072321125A072446743A072640050A072861417A073033897A072879280
2545A072246131A071482954A071039713A070896233A070828616A070939841A071432692
2538A072142643A072618932A072481673A071708370A070779511A070306765A070367585
2531A070531965A070404684A069788964A068680610A067455245A066806548A067183038
2524A068154782A068609738A068116888A067774170A068907184A070996467A072365746
2517A072463014A071733610A070389424A068756400A068004866A068975092A070642902
2510A071300783A070515766A069247299A068642716A068705633A068515434A067683844
2503A066927175A067186148A068424675A069827655A070936949A071835434A072302178
2496A071485846A068927578A065605771A063404178A063146796A064136620A065918404
2489A068286474A070168781A070397742A068997366A067422268A067429860A068639389
2482A068964388A067657665A065758652A064251751A062984369A062313615A063480546
2475A065854836A067112962A066398527A064443034A062110472A060327531A060702357
2468A063431080A065888030A066276815A065548856A065313387A065496786A065100192
2461A063815598A061804275A059376397A057867399A059833594A064516292A068187832
2454A069805308A069824256A068605038A066409013A063590471A060698091A058642943
2447A058602806A060859433A063854506A065961506A066938095A067210664A067121929
2440A066898103A066783478A066703711A065969677A064198814A062494122A062374145
2433A062925574A062819338A063311972A065698917A068367471A069171364A067714941
2426A064890613A062599128A062371469A062892741A062083641A060662149A060950121
2419A062948354A065260233A067754210A070216584A071612403A071593312A070782909
2412A069825413A069077350A068839856A069140556A069301610A068541904A067196345
2405A066718319A067853503A069402783A069883340A068971114A067248125A065742236
2398A065282580A065604686A065952105A066261194A066598415A066453272A065481166
2391A064190859A063344009A062861283A061906678A059698070A056321084A053746183
2384A053986497A055211211A054975959A053829204A054000961A055586111A056254696
2377A054698545A051051377A046794708A044792787A046742350A050895530A054709248
2370A057037471A057719652A057371655A057165837A057709961A058549290A059290266
2363A060144999A061257619A062176860A062019495A060225778A057631062A056720138
2356A058908496A062314627A064625349A064964161A063555324A061665424A061027140
2349A062015445A063383133A064095326A064008689A063426669A062702327A062229508
2342A062720623A064567856A066535498A067196779A066519371A065007986A063014887
2335A060779232A058342604A055827798A054663905A056244065A058274624A058399880
2328A057948685A059794471A063674505A066930140A068195136A067503265A065614666
2321A063431514A061499091A060482799A061157820A062497231A061939728A058415935
2314A053646745A051530053A053727741A057437537A060493719A062497521A063429273
2307A063548887A063410325A063166538A062227483A060034496A056741761A052754985
2300A048591318A046395872A048772186A053372730A056207110A056475122A055255686
2293A054021499A053928353A054853307A055458613A055050664A054262826A053998502
2286A054330227A054993171A056196118A057752629A058542637A057916720A056416183
2279A054975308A053988088A053200901A052223516A051023317A050119697A049798169
2272A049380891A048247371A047341653A048523772A051463665A053908610A054701293
2265A054289584A053764768A053674370A053579199A053091989A052658946A052538463
2258A051869589A049760057A046964874A045740738A046870860A048540622A049485970
2251A049914096A050257754A050654565A050966981A050702802A049431659A047635194
2244A046385602A045859268A045297208A044319028A043314234A042853782A043324431
2237A044724663A046303448A046880406A045957621A044248445A042790865A041886160
2230A041208246A040460762A039540509A038329100A036917371A036043401A036506818
2223A037853100A038556615A037844856A036509205A035633861A035173265A034267330
2216A032584623A030835744A029901750A029720592A029481145A028795421A028090460
2209A027688658A027078579A025720870A024009670A022877161A022692532A022946081
2202A022924096A022350032A021507159A020952259A020873070A020708762A019743743
2195A017988646A016081895A014422980A013031716A012115730A011952724A012189350
2188A011991342A010998192A009525714A007861375A005989916A004043969A002408919
2181A001247556A000405045I99844070I99685765I99760253I99557617I98744033
2174I97466237I96066078I94672644I93137467I91330516I89420800I87781050I86668791
2166I86015827I85396418I84289004I82560520I80639377I79068908I77979719I77122527
2158I76279655I75449293I74637952I73623540I72094726I70074291I68031871I66453301
2150I65487994I65051118I64872202I64395695I63158687I61411326I59947527I59248568
2142I59079777I58907369I58429416I57628488I56503718I55001445I53239260I51553587
2134I50171580I49047678I48120554I47481620I47197408I47161321I47125017I46805731
2126I46155225I45642342I45909849I46885932I47650194I47590531I47240293I47388690
2118I47906057I48110646I47834317I47541355I47749776I48565964I49500102I49912390
2110I49923021I50310865I51256069I52015052I52142983I52118250I52407163I52802311
2102I53013626I53165133I53428300I53727120I53971991I54182583I54370538I54604489
2094I55024370I55562999I55969357I56274324I56877460I58044682I59589333I61043659
2086I61982715I62300049I62329264I62578041I63187542I63681188I63455626I62589901
2078I61902007I62066604I62970586I64035549I64796122I65052636I64887027I64723443
2070I65047647I65893412I66762391I67162458I67050725I66676115I66288126I66139440
2062I66438766I67115378I67897358I68640648I69314078I69757174I69765129I69379599
2054I68974181I69044330I69810328I70906243I71642590I71723081I71547203I71708617
2046I72373659I73250015I73909415I74026933I73614282I73192304I73363699I74039010
2038I74523472I74478924I74232824I74013192I73530538I72575066I71542213I71102660
2030I71585387I72733009I73873617I74426203I74527955I74939303I75986186I76935295
2022I76915480I76099437I75363235I75140638I75157561I74974233I74433435I73831890
2014I73759209I74502209I75601886I76299543I76435934I76578475I77125999I77726893
2006I77854825I77542770I77210828I77139450I77377233I77820908I78246936I78464759
1998I78417969I78143376I77876592I78097381I79131102I80732162I82247091I83108766
1990I83180506I82719403I82027026I81304998I80905872I81230726I82142591I82996962
1982I83422195I83598073I83750955I83838894I83790947I83711107I83740830I83894651
1974I84140029I84503646I84980732I85486093I85982343I86448581I86742411I86755645
1966I86553009I86145783I85525073I85058619I85275574I86141082I87060106I87540229
1958I87452651I86875766I86016550I85110977I84373256I84151816I84806878I86192284
1950I87587670I88343399I88404002I88225447I88370301I89092908I90100088I90787042
1942I90823852I90451990I90183471I90294625I90682325I91128024I91495619I91611256
1934I91219579I90305617I89365187I89125524I89875033I91085139I91848389I91786122
1926I91328780I90974853I90663594I90132270I89481982I89003812I88699567I88309120
1918I87722037I87150142I86857904I86803159I86642467I86077514I85135493I84142487
1910I83407876I82853699I82127765I81195580I80440140I79956835I79241750I77864733
1902I76054455I74510093I73882079I74272526I75059063I75477281I75317746I74728350
1894I73728619I72506508I71760036I72115408I73473913I75311527I77397121I79873308
1886I82643903I85041479I86459935I87132136I87758125I88508213I88988986I89024639
1878I88799656I88310060I87180227I85022893I81733991I77438849I72205663I65918073
1870I58593073I50608890I42305204I33658511I24750025I16227141I08950450I03437030
1862H99796804H97866188H97319750H97948125H99862469I03185361I07564682I12167106
1854I16164513I19212450I21509359I23388050I24928290I26066655I26879227I27537904
1846I28196003I29053700I30204722I31342365I31976309I31949913I31504575I31050054
1838I31055984I31725653I32530414I32507055I31217253I29020072I26331052I23076935
1830I19064341I14530042I09989378I05693802I01593920H97758868H94473726H91948869
1822H90193120H89091275H88426016H87934974H87392729H86440800H84453198H80964118
1814H76316567H71657663H68215807H66637093H66892812H68532562H70926450H73490504
1806H75913030H78135740H80103672H81632052H82463426H82417287H81652156H80744414
1798H80256481H80294809H80704061H81454582H82625709H84217729H86060333H87752514
1790H88822322H89089756H88650059H87454055H85212109H81721438H77042862H71402668
1782H65078340H58315037H51268320H44101048H37108786H30608579H24682798H19192519
1774H14113011H09726675H06416800H04389784H03652497H04150988H05892852H08941368
1766H13266016H18711602H25232998H32902667H41463084H50157435H58281555H65671496
1758H72496847H78841641H84623146H89722688H94107360H97903722I01325473I04434375
1750I07022800I08851229I09950398I10553390I10784231I10513687I09428837I07213504
1742I03868193H99834120H95620987H91496806H87764157H85022706H83795244H84065571
1734H85452351H87753236H91135720H95779003I01497230I07839203I14403557I20894217
1726I27079260I32875012I38249219I42988903I46873927I50051459I52903702I55620998
1718I58153015I60431916I62373958I63766452I64450440I64672386I65028265I65906646
1710I67141630I68309068I69161486I69729114I70246843I70989048I71978944I72919085
1702I73545725I73919323I74282723I74752866I75236460I75600584I75841983I76029577
1694I76186726I76365859I76710529I77319089I78169411I79187945I80202501I80894445
1686I81046025I80814172I80596059I80660350I80964811I81285399I81487528I81633613
1678I81820556I82021457I82170433I82300028I82491817I82729456I82896294I82952848
1670I83056480I83402669I83956846I84446297I84639027I84527222I84234477I83899280
1662I83658532I83574715I83551211I83458933I83319792I83247329I83297807I83483883
1654I83797456I84142632I84400520I84583486I84776432I84952600I84992881I84838843
1646I84510878I84019401I83339462I82490515I81608374I80922288I80621370I80691881
1638I80923807I81149368I81398722I81679969I81774417I81540828I81286629I81478056
1630I82120461I82740520I82982715I82933322I82791577I82529423I82093342I81701592
1622I81647932I81952393I82401057I82790420I83028999I83162354I83312849I83499359
1614I83629243I83702357I83849670I84186023I84746492I85421079I85906119I85986537
1606I85878132I85989937I86383060I86749788I86874174I86848068I86813861I86705962
1598I86369464I85872708I85591245I85911326I86812198I87799563I88417814I88752722
1590I89116050I89377988I89144760I88536345I88168605I88332189I88732906I89068609
1582I89354556I89605719I89696551I89711159I90008750I90693462I91392276I91792342
1574I91999028I92093404I91797260I90988738I90202636I90091193I90568351I91004214
1566I91138727I91242432I91478769I91723205I91958458I92293220I92647364I92811527
1558I92766039I92746368I93054590I93761792I94561274I95114438I95468871
1551I95795751I95964398I95864960I95825329I96126102I96387606I96003595
1544I94983831I93832231I92817095I91928011I91381573I91530476I92266101
1537I92965782I93083228I92575552I91869723I91569094I92004669I92943725
1530I93807425I94115647I93734745I92967156I92444076I92627187I93379010
1523I94164028I94542182I94390168I93957993I93724187I93817188I93732865
1516I93104200I92410159I92310649I92674193I92901708I92851591I92937434
1509I93569136I94715457I95813325I96212089I95883329I95349329I94844761
1502I94123240I93140215I92288158I91899084I91987674I92362501I92607589
1495I92244477I91316631I90581873I90808376I92036417I93628509I94802673
1488I95089054I94564022I93743496I93071801I92543008I91960338I91452879
1481I91453674I92126453I93003243I93396656I93191272I93011126I93420521
1474I94149781I94412515I93914095I93174494I92805018I92899611I93284779
1467I93883360I94493945I94634894I94028648I92993046I92100852I91689650
1460I91770791I92096586I92246358I91952310I91461702I91347872I91873483
1453I92729084I93446122I93787176I93694609I93241027I92715777I92410087
1446I92341167I92454635I92815938I93282538I93385591I92900117I92217719
1439I91937702I92287290I93024794I93785296I94451133I95071987I95506405
1432I95481744I95051377I94627301I94507975I94635762I94789294I94797828
1425I94595697I94177552I93358472I91559476I88143944I83088445I76985267
1418I70278663I62929654I54955812I46745634I38554186I30214196I21645607
1411I13148758I04927370H96718059H88254622H80056231H73470761H69545166
1404H67995019H67871498H69201581H73128260H80256915H89835649I00484698
1397I10438332I17395881I19375022I15912555I08907493I02154243H98404383
1390H97446741H98010102H99447650I01587989I04291329I07015206I08891510
1383I09697790I10264839I11420273I13095387I14828211I16559517I18744187
1376I22013202I26689608I32357211I37871427I42014700I44375249I45637208
1369I46970038I49192315I52506528I56675547I61133478I65102753I68037223
1362I70089550I71977642I74268766I76863844I79175361I80660784I81249529
1355I81484347I82163274I83644285I85625451I87599169I89192201I90143407
1348I90428414I90297373I89889135I89171157I88389972I87937909I87757691
1341I87566698I87503707I87887503I88593549I89191406I89446690I89288457
1334I88524123I87104076I85627982I84907545I84873772I84774551I84550292
1327I84750469I85192480I85414064I86199010I88662830I91991290I93952063
1320I93691571I92594065I92260459I92680558I92739787I91892575I90713494
1313I90064724I90364123I91429809I92606793I93416471I94070520I94778012
1306I95046748I94408682I93140938I91724507I90412287I89541572I89468964
1299I90160763I91203741I92061293I92437279I92625307I93107310I93723825
1292I93876416I93430357I92755191I92099696I91356550I90345537I89282527
1285I88745996I88800958I88575975I87284294I85202677I83228092I82117495
1278I82398743I84212275I87075366I90231491I92896646I93969202I92562245
1271I89446546I86903754I86513306I87834421I89436493I90313211I90244219
1264I90020538I91131567I93556842I94506818I92032512I88527522I87707213
1257I90562709I95013554I97901378I97723763I95780854I94018885I92615687
1250I90932041I89163708I87515785I85619232I84107558I84767970I87937836
1243I91549206I93567545I93757453I92829751I91415490I90023575I89104190
1236I89009380I89875539I91154782I91638882I90786174I89624015I89407421
1229I89890003I89914302I89223660I88607795I88555147I88740717I88714754
1222I88427288I88047327I87596421I86924148I86059652I85400758I85232762
1215I85190094I84671570I83715085I83028276I83201189I84205622I85537584
1208I86522707I86701696I86353988I86419725I87354804I88289883I88042192
1201I86822540I85987839I86189753I86846188I87462993I88352582I89676663
1194I90641030I90284717I88571491I86230613I84115296I83174938I84143355
1187I86192935I86701840I83921120I79641527I77842531I80286753I84731811
1180I88188999I90206974I91784893I92662695I91676777I89229735I87411936
1173I87436090I88454335I89430419I90610512I92075831I92593919I91587970
1166I90659472I91172138I91799791I90581729I88069022I86479316I86947506
1159I89007066I91331744I92138241I90566470I88075748I86725344I86234084
1152I84759148I82207894I80628458I81543359I84248650I86611298I87055189
1145I85867067I84688565I84701437I85554001I86237772I86072524I84587753
1138I81741584I78511550I76488366I76982519I80567710I86128571I90276545
1131I90138200I86635235I82751874I79592855I76403464I73667654I73420686
1124I75924498I78688151I79694608I79575500I79914095I80744457I80710178
1117I79012862I76450833I74666156I74772464I76681312I79140938I80350971
1110I79380963I77306723I76317549I77372677I79554166I81536055I82545694
1103I82517924I81860621I80879548I79750148I78887100I78455575I77849835
1096I76663377I75608756I75435481I75637611I75473014I75352531I76028782
1089I76987219I77043266I76132270I75488201I75997396I77001249I77391625
1082I77107991I76803313I76832169I77050354I77097144I76711035I76087794
1075I75800834I76031458I76234601I75863822I75041200I74514432I75043948
1068I76608560I78095790I78196819I76988521I75836053I75578888I75829834
1061I75997974I75952848I75658366I74962156I73855755I72709144I72110998
1054I72348564I73217037I74207440I74782951I74767257I74513130I74506115
1047I74853678I75299956I75547790I75383339I74729941I73824585I73149203
1040I73098797I73767454I74800235I75606803I75978231I76172334I76418796
1033I76389724I75465204I73587019I71512996I70339988I70570830I71706014
1026I73159833I74674111I75887616I76415975I76328036I76131474I76199671
1019I76256947I75745510I74611917I73388071I72652881I72580707I72917856
1012I73122878I72642394I71436266I70166208I69497985I69279366I68888050
1005I67989637I66574653I64963468I63975741I64080169I64562896I64583362
998I63943415I62855744I61645349I60593981I59833336I59224558I58427897
991I57186984I55510929I53760025I52584342I52305555I52591213I52937980
984I52758486I51590831I49641774I47734807I46375725I45138644I43651630
977I42175971I40807704I39080954I36615688I33712967I31345981I30108249
970I29493614I28748516I27674803I26525734I25499461I24488592I23185268
963I21375063I19338572I18072999I18044795I18366323I18624066I18862573
956I18742813I17986000I16819719I15417969I13440851I10599023I07633240
949I06504203I07846146I09923062I11583351I12710290I13188461I12872718
942I12203482I12074972I12549816I12788394I12463178I12106431I12167685
935I12897885I14781420I17120202I18372614I18243815I17462992I16488066
928I15007344I12997467I12080975I13645225I15841466I17047378I17214723
921I16644274I15708689I14618198I13042160I10875569I09273208I09562482
914I10607123I10337519I08343842I05493263I02646444H99487715H95283115
907H90077627H84572740H80592473H81841776H86893153H89775625H90606637
900H92409177H96848161I01488335I03937112I04445222I03800647I02449809
893I00995628I00964604I03170970I05394186I05941493I05231108I04282867
886I03728329I03396676I03061046I03209154I04091295I04800234I04682283
879I04569321I05940191I08286132I09734817I09847272I09280150I08735013
872I08284541I07172571I04342530H98788177H89109137H73199783H49110769
865H16726819G79438372G44602317G20439105G10771201G13767141G25367974
858G42482661G63468559G86720631H09722190H29663086H44605831H54140162
851H58692975H57454665H48328066H31875744H10456007G87447793G72083794
844G74369493G91888224H15315089H36602990H50822621H58433641H65264632
837H76572937H86703678H92214567H95507737H97911315H99768093I01431058
830I02842427I03383297I02688098I01028533H99085913H98666465I02684483
823I08980606I12662850I13341196I13208638I14358430I16326868I17328841
816I17018089I16085324I14925552I13332158I11713090I11486877I12753826
809I13933125I14881654I16501734I18316857I18932505I17612402I14305203
802I09966019I08548865I13194029I18398577I20314367I19536509I17031540
795I13544268I09654543I05149677H98972734H89663387H75353502H55528605
788H34788156H19844327H11926460H08954819H09362985H11839895H14217005
781H13440448H06842178G93432586G74378388G54361776G42612401G44041487
774G54246211G68501061G85352003H03095355H17612722H26378017H30384174
767H31957535H34018904H37813168H40415623H40005432H37204969H33110149
760H28927318H25661774H23120139H19493076H12341279H00071428G82634344
753G59756955G29869514F96328540F70966792F59640552F58825667F64903751
746F75113753F86363118F97839057G11225217G26769869G41767069G54143880
739G64207293G71986815G76369318G77279663G75353820G71009213G64736592
732G57227036G48951554G40028749G30817103G22211342G14635615G07642122
725G01078059F95662703F92173839F90971834F92069484F94645615F97523965
718G00363914G03748927G08212427G13287886G18162083G22734638G27434549
711G32603154G38184626G43935034G49935737G56460966G63073845G68831412
704G73466741G77269900G80285293G82428020G84116079G86189307G88976391
697G91789437G93830627G95092152G96309345G98235839H00945614H03980606
690H06924621H09609447H12058080H14364101H16480358H18216220H19654129
683H21442059H24200578H27540393H30423371H32273496H33093733H32999719
676H32117650H30709608H29062843H27323148H25540207H23659636H21454137
669H18746459H15709587H12671269H09643798H06392284H02939074G99697541
662G97112370G95443186G94889588G95620945G97612453H00589590H04166031
655H07990379H11797661H15345391H18326867H20454984H21684255H22228814
648H22265407H21730105H20529256H18867014H17225962H16088825H15744662
641H16223410H17293146H18556261H19591935H20086449H20004079H19676186
634H19540806H19691952H19824946H19660999H19220290H18608114H17746366
627H16479056H14845381H13087606H11396365H09708812H07763371H05391902
620H02801886H00481546G98741634G97441492G96254094G95061127G93952629
613G92976546G92091439G91272793G90476277G89557758G88405870G87124891
606G85966493G85103010G84531621G84155637G83860216G83483436G82795904
599G81615449G79976349G78173882G76626482G75635429G75160152G74805357
592G74134675G73042014G71742667G70426615G69087782G67770644G66882428
585G67136121G69179192G73240529G78973942G85564041G92104890G97991836
578H02999388H07130801H10515887H13349761H15772215H17802413H19410054
571H20618497H21536074H22279364H22847354H23097865H22875124H22116647
564H20857582H19240829H17542139H16111823H15261791H15176021H15809170
557H16764786H17266460H16343097H13160720H07231541G98345401G86518284
550G72355856G57619002G45159966G37718027G36293424G39638663G45455387
543G52013086G58601233G64933877G70703739G75679833G79881033G83547655
536G86978953G90359699G93719474G97027107H00247162H03353315H06373048
529H09322704H12034504H14194297H15576666H16083257H15591057H13915726
522H10817672H05958807G99103661G90575787G81430602G73152300G67187612
515G64448620G64773909G66771418G68543295G68996733G68712521G69522344
508G72998045G79162621G86594363G93546994G98766729H01559309H01659326
501G99085509G93775304G85335297G73330131G57729939G39036828G18314674
494F97323208F78364761F63589867F54236405F50487485F51928359F57893987
487F67354046F78864482F90965325G02511919G12499687G19903007G24039193
480G25074361G24115127G22793868G22469447G23396282G24478528G23846392
473G19764083G11315905F98754826F83531414F67899546F54170089F44013385
466F38158983F36502744F38453103F43309509F50380670F58872891F67953206
459F76965831F85345596F92483363F98126668G02834966G07629612G13128858
452G19010886G24085333G26861496G26276512G22034958G14464075G04352425
445F93111016F83150078F77743906F79401664F87554349F98609683G09354264
438G19807185G31865867G45909475G59950190G71738762G80556850G86958703
431G91699473G95261594G97946058H00029049H01804830H03509161H05213058
424H06844347H08293972H09446657H10183728H10439736H10207521H09498944
417H08407657H07206446H06328933H06277370H07462816H09956865H13404651
410H17275066H21143529H24715197H27789819H30325958H32390435H33962640
403H34922018H35304655H35426006H35654605H36175660H37007032H38011466
396H38813840H39021611H38634200H37925768H36910198H35328665H33191435
389H30874060H28592121H26121286H23144800H19736789H16511817H14330183
382H13668395H14095727H14433960H13605407H11377201H08328902H05304830
375H03010163H01874112H01962123H02957660H04408804H06091439H08056551
368H10276223H12441585H14337126H16228400H18497250H20942267H22731355
361H22986784H21334306H18206746H14809438H12460966H11732357H12300708
354H13475161H14591832H15114984H14755778H13521156H11604787H09393069
347H07438372H06011093H04707479H02789375G99773258G95546891G90382769
340G85118991G80795357G77699400G75091883G72085385G68510173G64907915
333G62102318G60916655G61924920G65063834G69393400G73362385G75421294
326G74601853G71045227G66318488G62824272G62340390G65092400G70256666
319G76946781G84462991G91995038G98599456H03529121H06495844H07655038
312H07316949H05551437H02132650G96963249G90409889G83183531G76159594
305G70293259G66293610G64329005G64246345G65766770G68245126G70782277
298G72823685G74116089G74086728G71992745G67825823G62618310G57762916
291G54146556G51796492G50220672G49053234G48338437G48254331G48698945
284G49228389G49454312G49370929G49056416G48186641G46142413G42476152
277G37103392G30263216G22326691G13379514G03074629F91067582F77318167
270F61979478F45639684F30050991F18479953F15065289F23120416F42962163
263F70878635G00662083G26771026G46446802G59645440G67858150G72888482
256G75957753G77502186G77677849G76787030G75042851G72265169G68126379
249G62435200G55027902G45848366G35449467G25086583G16015524G08840875
242G03619694G00324572F99023345F99640945G01706869G04611181G08180896
235G12630005G17756232G22623703G26338344G28829284G30657569G32238452
228G33345070G33337910G31861166G29186682G25811865G21973559G17833685
221G13917275G10916416G09068606G08046167G07484396G07311555G07411644
214G07198087G05549802G00986576F92152000F79228389F67522405F66068079
207F73572284F82122359F89451335F96644861G03997848G10400063G14645378
200G16468455G16586045G15764218G14193025G12193707G10833685G11054328
193G12649458G14680452G16532240G18220300G19887676G21427916G22860329
186G24744371G27557996G30644768G32270633G30688376G25053172G16085529
179G06557345G00386694G00015194G04752636G12110613G20214483G28587595
172G37483715G47308043G58072873G68563761G76643333G81222470G83463260
165G85496567G88505597G92291617G96009585G98897408H00579971H01136824
158H01075426H01052501H01345680H01705682H02005731H02642568H03852313
151H05154191H05913968H06094838H06081387H05976887H05456265H04329687
144H02973643H02026269H01813436H02271357H02977331H02953176H01264611
137G98207490G94922348G91713575G87906004G83398896G79141866G75792071
130G73079909G71067429G71080953G74277576G79474386G83617804G85005452
123G84967123G85601935G87181589G88640977G89279694G88929022G87539855
116G85617339G84352705G84543264G85733121G86809438G87190774G87187953
109G87305832G87381695G86688232G84847292G82049215G78703254G75558193
102G73736272G73710165G74451647G74327332G72639345G69868531G66602627
95G63034503G59504563G56222315G52400569G47410446G42838830G41183386
88G42867974G46084775G49052294G51642382G54770737G59011785G64164553
81G69495947G73884959G76355505G77293115G78572719G81511816G85080229
74G86947422G86400620G85311649G85982548G88742223G92257627G95796824
67G99450790H02666000H04214050H03578009H01544267G99568524G99043420
60H00633849H03369225H05457567H06035248H04933186H02010794G97674574
53G93425498G90970646G90532107G90726282G90553658G90791658G92710992
46G96226684H00013573H03143230H05762245H07826505H08828985H09138364
39H09846796H11111141H11923567H11438309H09659419H07297206H06669843
32H10943290H18964066H26224629H29129303H25913515H17311587H05520556
25G92591015G81432555G76108899G78680907G86750571G95488241H01966752
18H08315668H18087493H28061086H32955605H33681972H34525061H36016270
11H34423381H28601884H24516321H29388999H41598971H53357024H59225529
4H56564424H44709174H30090344H24717873
##END=


$$ === CHEMSPECTRA PEAK TABLE EDIT ===
##TITLE=X8079
##JCAMP-DX=5.00
##DATA TYPE=INFRAREDPEAKTABLE
##DATA CLASS=PEAKTABLE
##$CSTHRESHOLD=0.93
##MAXX=3997.453
##MAXY=0.8849737039876938
##MINX=373.96442
##MINY=0.5069343447819912
##$CSSOLVENTNAME=- - -
##$CSSOLVENTVALUE=0
##$CSSOLVENTX=0
##NPOINTS=51
##PEAKTABLE= (XY..XY)
385.29667513682534, 0.6795630454577528
405.12812162627006, 0.6396658423591151
419.29344054730245, 0.6648540498545296
444.79101460515994, 0.6515533925556509
458.9563335261919, 0.6585683825998858
498.61922650508177, 0.6108803745958221
515.6176092103201, 0.6376888154152384
555.28050218921, 0.6355106830014098
573.6954167865515, 0.6608514186793216
623.2740330101637, 0.5769497158338721
648.7716070680217, 0.5858662727339232
667.1865216653632, 0.5489706397788032
678.5187768021888, 0.5829633473116644
712.5155422126659, 0.5761322378653866
749.3453714073494, 0.5069343447819912
777.6760092494133, 0.6167082191103327
800.3405195230648, 0.6298887729211565
828.6711573651287, 0.6283178924530362
842.8364762861606, 0.6271444557752135
876.8332416966377, 0.6690265535926485
902.3308157544952, 0.6609014275952109
913.6630708913212, 0.670622229172932
958.9920914386234, 0.6645305751817463
1000.0715163096165, 0.558593809572137
1031.2352179358872, 0.5246030092287965
1048.2336006411256, 0.5954564211149176
1066.648515238467, 0.5361291766821852
1102.0618125410474, 0.6300554871650338
1145.9743011962469, 0.6068500875241698
1164.3892157935884, 0.6718648076523558
1202.635576880375, 0.6320614219590638
1281.9613628381544, 0.6723334792843054
1307.4589368960123, 0.6551448109223521
1395.2839142064108, 0.5694962147857456
1432.1137434010943, 0.5430014728504754
1471.7766363799842, 0.612058163028472
1484.525423408913, 0.6667373179109758
1542.6032309851648, 0.7410230041600889
1569.5173369351055, 0.636348366958786
1592.1818472087566, 0.585814773671684
1654.5092504612976, 0.7257807850707833
1715.4201218217545, 0.7482431530701545
2340.110686239263, 0.7401363250478911
2359.942132728694, 0.715296208486893
2831.647252799062, 0.7284204960858716
2879.8093371305704, 0.662367165380887
2919.4722301094607, 0.7255038618117112
2937.8871447068022, 0.7142788168358571
3008.7137393119706, 0.7400177117061861
3059.7088874276856, 0.8039844633363032
3379.8450950430074, 0.7804195881418127
##END=


$$ === CHEMSPECTRA PEAK TABLE AUTO ===
##TITLE=X8079
##JCAMP-DX=5.00
##DATA TYPE=INFRAREDPEAKTABLE
##DATA CLASS=PEAKTABLE
##$CSTHRESHOLD=0.93
##MAXX=3997.453
##MAXY=0.8849737039876938
##MINX=373.96442
##MINY=0.5069343447819912
##NPOINTS=164
##PEAKTABLE= (XY..XY)
3382.678158827209, 0.7793946262506086
3375.595499366693, 0.7807116510570251
3368.512839906177, 0.7809597851501665
3354.3475209851445, 0.7847320436558175
3316.1011598983578, 0.7927957769423519
3306.1854366536354, 0.7951211931795936
3294.85318151681, 0.7962882522288456
3282.104394487881, 0.7986246343937342
3273.605203135262, 0.800745308808316
3263.6894798905396, 0.802101194455661
3249.524160969507, 0.8003789182503335
3232.525778264269, 0.8037070035256416
3225.443118803753, 0.802568435283372
3209.8612679906173, 0.8053544163608055
3199.945544745895, 0.8059619658412661
3185.780225824863, 0.8084586862698533
3173.0314387959343, 0.810770749707861
3153.1999923064895, 0.8118813636947378
3139.034673385457, 0.8111339802984179
3130.535482032838, 0.8144914506333576
3120.6197587881156, 0.8161052461624814
3107.870971759187, 0.8152332904874487
3063.9584831039874, 0.8026697042446632
3052.626227967162, 0.8009207249134557
3007.297207419859, 0.7395673396978025
2977.5500376856917, 0.7673677209960835
2937.8871447068022, 0.7142788168358571
2919.4722301094607, 0.7255038618117112
2879.8093371305704, 0.662367165380887
2831.647252799062, 0.7284204960858716
2757.987594409695, 0.8082033396376035
2719.7412333229086, 0.8103885057400108
2695.660191157154, 0.8082242008623063
2684.3279360203283, 0.8087725046624178
2670.1626170992963, 0.8090702891461927
2647.4981068256448, 0.8125568030230907
2633.332787904613, 0.8123203519081076
2619.167468983581, 0.814444601684894
2595.0864268178266, 0.8160291910049161
2578.088044112588, 0.8182175755926644
2565.339257083659, 0.8207552429022308
2554.007001946833, 0.8170927170264923
2544.0912787021107, 0.8172472710827331
2534.1755554573883, 0.8179684277384552
2524.259832212666, 0.8190234900914102
2517.17717275215, 0.8178584577400976
2512.9275770758404, 0.8183042999673201
2495.929194370602, 0.8175192475174732
2487.430003017983, 0.8164336074932893
2471.8481522048473, 0.8171514871457553
2463.348960852228, 0.8184357880745847
2454.849769499609, 0.8182659146874779
2442.10098247068, 0.8173466328545035
2433.6017911180606, 0.8170649407974333
2420.853004089132, 0.8178836105533204
2410.9372808444095, 0.817551076318215
2396.7719619233776, 0.8196694850180203
2359.942132728694, 0.715296208486893
2341.527218131352, 0.7396720051707686
2270.7006235261924, 0.813896595419535
2253.7022408209536, 0.8114624026197291
2239.5369218999217, 0.8178170913433594
2232.4542624394057, 0.8160073753612568
2214.0393478420638, 0.8155163523582544
2192.791369460516, 0.8149204850317561
2184.2921781078967, 0.8094573010878451
2170.1268591868647, 0.813080310886843
2163.044199726349, 0.8159709574372427
2154.5450083737296, 0.8140643242486759
2137.546625668491, 0.8110975030322924
2123.381306747459, 0.8151375650683862
2114.8821153948393, 0.8154656288644418
2107.7994559343233, 0.8147631880512606
2089.384541336982, 0.8102079631358132
2080.8853499843626, 0.8129490016301082
2072.3861586317435, 0.8126472230925657
2056.8043078186083, 0.8103288413680987
2048.305116465989, 0.8059338929016507
2035.55632943706, 0.8138209581293366
2024.2240743002344, 0.8164975642779173
2017.1414148397184, 0.8130522964651429
2001.559564026583, 0.8082300427634834
1993.060372673964, 0.8115763666718544
1981.7281175371381, 0.8048177955388524
1966.146266724003, 0.8022894259842491
1960.4801391555902, 0.807362199002245
1951.9809478029708, 0.8033159373639145
1942.0652245582482, 0.8046770088524285
1922.2337780688035, 0.8039500119439212
1917.984182392494, 0.8038816448865507
1910.901522931978, 0.803993463556514
1903.818863471462, 0.8050773735933149
1895.3196721188428, 0.8042511344214557
1888.2370126583264, 0.8031908870515277
1878.321289413604, 0.8040682074182591
1866.9890342767785, 0.8012099863864981
1857.0733110320562, 0.8031840322134789
1845.7410558952306, 0.8020241263612241
1830.159205082095, 0.7997503270462482
1818.8269499452695, 0.8045236465835893
1808.911226700547, 0.801597118660765
1791.9128439953088, 0.7945049401894786
1770.6648656137604, 0.7848864196857245
1732.4185045269742, 0.756648838679372
1716.8366537138386, 0.747137129030746
1705.504398577013, 0.7517285345017624
1699.8382710086003, 0.7517544628834117
1684.2564201954651, 0.7517334821502902
1670.0911012744327, 0.749419331848036
1654.5092504612976, 0.7257807850707833
1636.094335863956, 0.742571413748738
1624.7620807271305, 0.7442992928384056
1617.6794212666146, 0.7455424070452228
1592.1818472087566, 0.585814773671684
1569.5173369351055, 0.636348366958786
1541.1866990930412, 0.7406772968004753
1534.1040396325252, 0.7526628974729617
1521.3552526035965, 0.7512438289610233
1507.1899336825645, 0.7488223312520513
1484.525423408913, 0.6667373179109758
1471.7766363799842, 0.612058163028472
1432.1137434010943, 0.5430014728504754
1395.2839142064108, 0.5694962147857456
1307.4589368960123, 0.6551448109223521
1281.9613628381544, 0.6723334792843054
1270.6291077013288, 0.675462245946568
1202.635576880375, 0.6320614219590638
1164.3892157935884, 0.6718648076523558
1145.9743011962469, 0.6068500875241698
1102.0618125410474, 0.6300554871650338
1094.9791530805314, 0.6335697772709908
1066.648515238467, 0.5361291766821852
1048.2336006411256, 0.5954564211149176
1031.2352179358872, 0.5246030092287965
1000.0715163096165, 0.558593809572137
958.9920914386234, 0.6645305751817463
913.6630708913212, 0.6706222283487361
902.3308157544952, 0.6609014275952109
876.8332416966377, 0.6690265535926485
842.8364762861606, 0.6271444557752135
828.6711573651287, 0.6283178924530362
800.3405195230648, 0.6298887729211565
777.6760092494133, 0.6167082191103327
749.3453714073494, 0.5069343447819912
712.5155422126659, 0.5761322378653866
678.5187768021888, 0.5829633473116644
667.1865216653632, 0.5489706397788032
648.7716070680217, 0.5858662727339232
623.2740330101637, 0.5769497158338721
594.9433951680999, 0.660224259103671
573.6954167865515, 0.6608514186793216
555.28050218921, 0.6355106830014098
546.7813108365908, 0.6469667550584368
535.4490556997653, 0.6464603542066529
528.3663962392493, 0.6487971542389085
515.6176092103201, 0.6376888154152384
498.61922650508177, 0.6108803745958221
474.5381843393275, 0.6472507120060875
458.9563335261919, 0.6585683825998858
444.79101460515994, 0.6515533925556509
441.95795082095356, 0.6515711548034314
419.29344054730245, 0.6648540498545296
405.12812162627006, 0.6396658423591151
385.29667513682534, 0.6795630454577528
##END=

##END=

