##TITLE=YM-301
##JCAMP-DX=4.24
##DATA TYPE=INFRARED SPECTRUM
##DATE=18/3/2020
##SAMPLING PROCEDURE=Diamant-ATR
##ORIGIN=Lara
##XUNITS=1/CM
##YUNITS=TRANSMITTANCE
##RESOLUTION=4
##FIRSTX=3997.453
##LASTX=373.96442
##DELTAX=-1.4165319
##MAXY=0.92365491
##MINY=0.45988661
##XFACTOR=1
##YFACTOR=8.6022067e-010
##NPOINTS=2559
##FIRSTY=0.86009395
##XYDATA=(X++(Y..Y))
3997+999852687+999921491+999890034+999727202+999683550+1000017250+1000598870
3988+1001043989+1001173492+1001065676+1000724978+1000055290+999197619+998574634
3978+998477350+998754233+998940900+998694713+998203170+998068678+998606022
3968+999407568+999866267+999902922+999877146+1000027020+1000323442+1000681394
3958+1000974491+1000981004+1000629843+1000235236+1000180774+1000413312
3949+1000491540+1000157978+999625346+999263168+999289082+999706901+1000272653
3939+1000610511+1000538241+1000264546+1000215419+1000616123+1001235783
3931+1001603713+1001488553+1001014610+1000388714+999763649+999295388+999153066
3921+999407152+999922947+1000419617+1000690887+1000737173+1000639890+1000457519
3911+1000224427+999936042+999595205+999284024+999080589+998943880+998877431
3901+999132348+999890657+1000844226+1001422450+1001381708+1000975669+1000678207
3891+1000651600+1000483294+999932924+999451636+999526677+999907218+1000099359
3881+1000164699+1000140863+999647311+998761578+998176632+998208921+998429818
3871+998635747+999288528+1000310000+1000841454+1000672179+1000442898+1000628595
3861+1000935827+1000884760+1000439642+999961264+1000027644+1001171344
3853+1002871788+1003471701+1002771595+1001761971+1001096164+1001029438
3844+1001554171+1002340404+1002822246+1002565319+1001621798+1000688323
3836+1000581686+1001337293+1002280745+1002639459+1002022363+1000754703
3827+999668583+999334121+999544416+999893013+1000388298+1000935065+1001110022
3818+1001132541+1001629142+1002422928+1002749630+1002513074+1002163437
3809+1002063521+1002233004+1002222056+1001698294+1001210977+1001586668
3801+1002596014+1003232234+1003459298+1003725579+1003740546+1003005379
3792+1001864867+1001217976+1001550429+1002507462+1003298614+1003364024
3784+1002774020+1002134959+1002023956+1002438657+1002857722+1003006419
3775+1003104464+1003305058+1003458050+1003323697+1002758499+1001891543
3767+1001148824+1000883790+1001065954+1001509756+1002183878+1002990135
3758+1003498169+1003345108+1002612713+1001639328+1001013501+1001472270
3750+1002758430+1003585336+1003573626+1003335269+1003313719+1003217129
3741+1002870472+1002614030+1002668907+1002752679+1002386066+1001698086
3733+1001305281+1001341520+1001481693+1001519803+1001467697+1001325929
3724+1001009759+1000598801+1000473317+1000951417+1001842486+1002601488
3716+1002935119+1003128300+1003715393+1004684136+1005209562+1004836435
3707+1004035513+1003341435+1002835757+1002274024+1001490909+1000733847
3699+1000395158+1000531174+1000830714+1000868061+1000424121+999793929+999810628
3689+1000958138+1002335761+1002824325+1002490278+1002078903+1002100245
3680+1002361191+1002385165+1002363546+1003038500+1004047708+1004161413
3672+1003673057+1003892360+1004956515+1005539520+1005116505+1004377251
3663+1004021863+1004137508+1004392633+1004653648+1005051026+1005258688
3655+1004463309+1002648397+1000925018+1000636148+1002035181+1003633562
3646+1004364709+1004530659+1004402472+1003914602+1003175902+1002583057
3638+1002436093+1002770001+1003453131+1004217537+1004919029+1005853681
3629+1007183840+1007922055+1007252853+1005953181+1005045899+1004920415
3621+1005360544+1005774552+1005827905+1005927752+1006430866+1006879519
3612+1006597301+1005805386+1005426370+1005834211+1006373494+1006264016
3604+1005514022+1004773451+1004606739+1004888403+1005082900+1005012085
3595+1004874198+1004736242+1004508625+1004309693+1004439750+1004992961
3587+1005585252+1005734156+1005428171+1005022756+1004924434+1005328740
3578+1006066609+1006785700+1007228186+1007249666+1006813693+1006181700
3570+1005921724+1006414722+1007111224+1006904948+1005794507+1004817588
3561+1004508347+1004422151+1004049509+1003645826+1003738467+1004290569
3553+1004754604+1004730907+1004356880+1004073276+1004137438+1004384734
3544+1004507655+1004464764+1004404482+1004477998+1004878771+1005668400
3536+1006450060+1006642547+1006203041+1005720783+1005747321+1006192232
3527+1006437934+1006116914+1005571879+1005329849+1005379045+1005360475
3519+1005226053+1005242613+1005524554+1005950687+1006398161+1006734356
3510+1006714955+1006193202+1005435793+1004966215+1005029962+1005329988
3502+1005420619+1005289176+1005268320+1005542638+1005978888+1006275934
3493+1006226392+1005981175+1005929761+1006161051+1006322982+1006191331
3485+1005974107+1005878002+1005781827+1005453254+1004827220+1004059210
3476+1003468790+1003354185+1003711929+1004221348+1004557335+1004641384
3468+1004582626+1004480839+1004377182+1004346694+1004471901+1004707695
3459+1004919860+1005031764+1005008344+1004806433+1004535578+1004559345
3451+1005189537+1006283972+1007265949+1007601589+1007271630+1006694445
3442+1006237686+1005932533+1005636526+1005335531+1005180113+1005272754
3434+1005525732+1005756051+1005828321+1005686623+1005367681+1005079504
3425+1005130987+1005577768+1006058225+1006187866+1005973691+1005629251
3417+1005243375+1004931293+1004979658+1005515615+1006246624+1006746551
3408+1006821315+1006556489+1006194380+1005997111+1006104164+1006488516
3400+1007018445+1007495783+1007717650+1007653903+1007531745+1007601797
3391+1007776131+1007650439+1006992323+1006078665+1005406553+1005197020
3383+1005323266+1005586568+1005899274+1006270806+1006673520+1006890744
3374+1006652733+1006046584+1005557189+1005528642+1005827143+1006159042
3366+1006431421+1006678924+1006946522+1007338772+1007883946+1008312989
3357+1008305506+1007933973+1007581149+1007496268+1007690835+1008100893
3349+1008554534+1008704339+1008268921+1007375773+1006520943+1006102778
3340+1006071736+1006158834+1006259582+1006328248+1006193271+1005856938
3332+1005661817+1005810721+1006086287+1006261383+1006344670+1006315360
3323+1006086842+1005795547+1005746282+1006047970+1006544571+1007077619
3315+1007622723+1008155978+1008527788+1008577122+1008304120+1007837383
3306+1007328587+1006965785+1006943820+1007278906+1007705663+1007905772
3298+1007857269+1007772181+1007639006+1007194857+1006553509+1006338988
3289+1006844389+1007569993+1007935082+1007938823+1007907435+1008042481
3281+1008341675+1008653341+1008792268+1008766007+1008820122+1009140796
3272+1009560000+1009709597+1009509280+1009293719+1009347072+1009596170
3264+1009872429+1010116399+1010250128+1010238834+1010247149+1010418641
3255+1010592698+1010440883+1009780966+1008764067+1007843896+1007460861
3247+1007715363+1008418795+1009268012+1009862936+1009897442+1009521198
3238+1009240296+1009335016+1009585291+1009641277+1009499857+1009464380
3230+1009685415+1009963891+1010061729+1009977403+1009860788+1009864391
3221+1010027500+1010130326+1009864322+1009323722+1008984686+1009053075
3213+1009221727+1009214659+1009157218+1009268012+1009542678+1009850949
3204+1010072607+1010091177+1009835081+1009364880+1008853589+1008506862
3196+1008468476+1008716118+1009104350+1009541361+1009977472+1010237102
3187+1010173286+1010032073+1010299740+1011035738+1011722193+1011940318
3179+1011847192+1011758501+1011607241+1011171130+1010606278+1010387669
3170+1010765368+1011474759+1011965609+1011880936+1011364726+1010862859
3162+1010628382+1010575583+1010609119+1010809714+1011178960+1011436164
3153+1011261900+1010654781+1009922664+1009373957+1009087581+1008945191
3145+1008800236+1008630753+1008573242+1008796356+1009300856+1009857531
3136+1010202249+1010331128+1010502066+1010828145+1011044052+1010898821
3128+1010538790+1010249920+1010087643+1009982600+1009891137+1009689711
3119+1009249858+1008696509+1008314098+1008211064+1008251529+1008267881
3111+1008247579+1008297537+1008396899+1008341744+1008115998+1008034236
3102+1008242036+1008430921+1008347911+1008160205+1007990098+1007478115
3094+1006207337+1004383487+1002768962+1001942818+1001811513+1001905817
3085+1001957230+1001953696+1001792043+1001253868+1000384764+999624168+999459189
3075+1000078503+1001301054+1002618949+1003378021+1003238332+1002472262
3067+1001635725+1001028329+1000617370+1000301408+1000041987+999845480+999709603
3057+999522520+999085855+998331564+997405643+996491708+995726124+995297773
3047+995420971+996131054+997190844+998236083+999019406+999545594+999962719
3037+1000275494+1000235514+999633938+998669630+997855196+997520179+997551983
3027+997685851+997867114+998225828+998820059+999516907+1000123818+1000591387
3017+1001037129+1001581748+1002240002+1003003924+1003920561+1004992061
3009+1006057671+1006871273+1007291447+1007342029+1007140603+1006872520
3000+1006793114+1007083508+1007651270+1008183971+1008441868+1008461062
2992+1008486422+1008744319+1009232259+1009682574+1009809028+1009669271
2983+1009666568+1010095889+1010790798+1011322875+1011459238+1011377129
2975+1011481341+1011975448+1012590812+1012871783+1012715534+1012420497
2966+1012295082+1012415578+1012614509+1012547921+1012006420+1011237025
2958+1010702037+1010547659+1010563249+1010568931+1010568308+1010567407
2949+1010443239+1010074062+1009557367+1009222350+1009404029+1010179175
2941+1011218178+1011920501+1011916205+1011462148+1011128032+1011123736
2932+1011169606+1010968942+1010581403+1010344917+1010526664+1011031719
2924+1011471017+1011544811+1011292803+1010970466+1010804101+1010868610
2915+1011087982+1011340613+1011580842+1011799313+1011913225+1011855022
2907+1011757392+1011854121+1012165372+1012437889+1012449807+1012293419
2898+1012277413+1012538706+1012853490+1012975787+1013030595+1013292095
2890+1013689057+1013885009+1013768464+1013538283+1013391804+1013380371
2881+1013451809+1013464350+1013284335+1012979528+1012780181+1012800137
2873+1012954238+1013174926+1013496016+1013854314+1014015621+1013812948
2864+1013320019+1012750525+1012331529+1012246094+1012504130+1012858687
2856+1013022627+1012978212+1012921256+1012910446+1012800622+1012598711
2847+1012598572+1012962760+1013408017+1013535165+1013293135+1012947724
2839+1012757662+1012811431+1013064478+1013406909+1013695986+1013817313
2830+1013799229+1013817937+1013990053+1014230697+1014384174+1014385837
2822+1014281209+1014189123+1014225708+1014402952+1014638815+1014822433
2813+1014796588+1014452633+1013962198+1013730909+1013986173+1014524417
2805+1014921795+1014920271+1014589065+1014189608+1013993102+1014212751
2796+1014898306+1015792977+1016469802+1016698528+1016577963+1016359007
2788+1016249252+1016280224+1016299764+1016194721+1016053092+1015950820
2779+1015754106+1015355689+1014907383+1014635004+1014609297+1014815088
2771+1015239628+1015788681+1016246342+1016393306+1016150306+1015660634
2762+1015224176+1015045547+1015086012+1015215307+1015378416+1015543049
2754+1015659871+1015732557+1015761520+1015659040+1015433085+1015344949
2745+1015621346+1016101456+1016420675+1016484976+1016521838+1016698112
2737+1016918385+1017034515+1017059459+1017087591+1017113436+1017014559
2728+1016725412+1016407649+1016365659+1016701369+1017139974+1017316525
2720+1017159999+1016880414+1016669426+1016549693+1016472712+1016441323
2711+1016478532+1016541032+1016567223+1016610183+1016793109+1017090501
2703+1017287977+1017245710+1017111288+1017169907+1017514555+1017915259
2694+1018034299+1017785548+1017437505+1017310566+1017448314+1017678426
2686+1017839040+1017791022+1017394753+1016715019+1016122035+1015975626
2677+1016265188+1016659448+1016882839+1016988437+1017204275+1017534927
2669+1017711963+1017599574+1017367106+1017176698+1016994119+1016803848
2660+1016703447+1016674415+1016501606+1016064871+1015562103+1015309195
2652+1015401351+1015710176+1016121758+1016583506+1016976519+1017158613
2643+1017142122+1017101587+1017233585+1017641910+1018248267+1018799399
2635+1019087507+1019170516+1019255188+1019389056+1019416149+1019239044
2626+1019007269+1018984680+1019250962+1019559648+1019587087+1019398064
2618+1019453080+1019950929+1020453419+1020499497+1020271325+1020248460
2609+1020508089+1020744368+1020728500+1020476424+1020159422+1019961946
2601+1019865841+1019630185+1019140860+1018653197+1018520438+1018805912
2592+1019299118+1019815259+1020318581+1020758364+1020922235+1020607659
2584+1019955086+1019467493+1019549740+1020081748+1020566015+1020665932
2575+1020451618+1020180278+1020054309+1020193582+1020575439+1020946209
2567+1021038226+1020925769+1020900963+1021014044+1021081948+1021118464
2558+1021353981+1021841643+1022376215+1022758696+1022907531+1022818285
2550+1022576948+1022352033+1022305886+1022487703+1022732088+1022737909
2541+1022409960+1021992003+1021709092+1021495748+1021208818+1020883225
2533+1020647223+1020578834+1020735637+1021183389+1021841158+1022369910
2524+1022414325+1022007246+1021579242+1021558455+1022097115+1023037311
2516+1023932675+1024317096+1024178447+1023936833+1023863247+1023853685
2507+1023829849+1023965450+1024395463+1024986437+1025473684+1025688898
2499+1025655293+1025519069+1025377787+1025216272+1025049352+1024980824
2490+1025017409+1025013391+1024943962+1025009441+1025272189+1025404463
2482+1025033693+1024212122+1023381474+1022937810+1022920141+1023099048
2473+1023324310+1023720648+1024469326+1025480405+1026421293+1026990649
2465+1027018919+1026443674+1025454144+1024613934+1024533974+1025270456
2456+1026181550+1026583432+1026500284+1026501115+1026789084+1026888169
2448+1026398220+1025601870+1025004106+1024655231+1024306425+1023953740
2439+1023831581+1023989493+1024208519+1024350909+1024529470+1024865179
2431+1025282444+1025636931+1025887275+1026087801+1026296502+1026464530
2422+1026435359+1026180580+1025916239+1025785835+1025648502+1025395663
2414+1025176846+1025133401+1025239692+1025483523+1025871616+1026248830
2405+1026372582+1026147944+1025667557+1025110397+1024668327+1024498982
2397+1024671653+1025072564+1025399890+1025458579+1025443543+1025695689
2388+1026220837+1026702680+1026912420+1026846803+1026542966+1026050869
2380+1025575471+1025400444+1025598129+1025975620+1026342233+1026653622
2371+1026876251+1026936395+1026821443+1026571375+1026287009+1026299066
2363+1027007486+1028282975+1029334728+1029450788+1028650697+1027467848
2354+1026365445+1025552744+1025100557+1024986645+1025131738+1025500499
2346+1026107825+1026816107+1027197202+1026928703+1026269063+1025804543
2337+1025753199+1025809116+1025736708+1025749250+1026070270+1026445060
2329+1026485525+1026327475+1026508113+1027219583+1027878669+1027584048
2320+1026171018+1024595364+1023936833+1024282105+1024871069+1025103675
2312+1025043463+1025007917+1025082681+1025148437+1025092797+1024908971
2303+1024726530+1024715929+1024860052+1024933222+1024814321+1024658072
2295+1024609707+1024516998+1024143455+1023585463+1023228620+1023275876
2286+1023574793+1023898723+1024077214+1023921658+1023466631+1023174851
2278+1023390482+1023778367+1023810032+1023566547+1023596550+1024208934
2269+1025197702+1026117387+1026758319+1027393778+1028345683+1029285185
2261+1029444552+1028657072+1027635114+1026997785+1026614196+1026315002
2252+1026570059+1027775080+1029419954+1030718032+1031592055+1032306435
2244+1032618101+1032146029+1031308937+1031098226+1031918480+1033129461
2235+1033837050+1033807324+1033360958+1032708247+1031983890+1031742137
2227+1032498992+1033641167+1033697361+1032109721+1030015571+1028856765
2218+1028836394+1029211738+1029653392+1030679230+1032679561+1034945897
2210+1036158471+1035888794+1034999181+1034348617+1033981866+1033878762
2201+1034435507+1035689932+1036754988+1036467712+1034590093+1032499892
2193+1032215041+1034070695+1036065969+1036483371+1036050517+1036238362
2184+1036724639+1035947621+1033306427+1029834100+1027234549+1026554746
2176+1027268640+1027937496+1028099911+1028514820+1029331679+1029709933
2167+1029636069+1030177848+1031312678+1031662454+1031387234+1033133202
2159+1038471785+1045025020+1049095597+1049519582+1047928061+1046926059
2150+1047883923+1049830417+1050960328+1050903441+1050556991+1050278653
2142+1049623309+1048583267+1047763428+1047190816+1046073239+1044167834
2133+1042339203+1041153860+1039981197+1038169750+1036208290+1035068401
2125+1034928158+1035079349+1034889148+1034566326+1034919982+1036255962
2116+1037639336+1037748329+1036559660+1035553015+1035985177+1037564987
2108+1039090475+1039738336+1039402695+1038360782+1037039700+1035863573
2099+1035090158+1034767267+1034820690+1035242527+1036148216+1037346447
2091+1037987310+1037252975+1035420533+1033703528+1032991712+1033064190
2082+1032967530+1032107780+1031020275+1030760784+1031476618+1032217744
2074+1032322718+1032177625+1032311077+1032538903+1032536824+1032725362
2065+1033880772+1035984761+1038066647+1039187204+1039139463+1038361060
2057+1037539766+1037092222+1036913939+1036808480+1036783743+1036657012
2048+1036122925+1035586621+1035881380+1036908119+1037681395+1037575658
2040+1036638234+1035236014+1034230617+1034844733+1037565888+1041545833
2031+1045413668+1048221643+1049536904+1049229881+1047773822+1046664351
2023+1047554103+1050227102+1052352571+1052297347+1051062600+1050261123
2014+1049872891+1049493460+1049792654+1051316617+1053530985+1055799746
2006+1057636761+1057896806+1055646476+1051770397+1048391957+1046869034
1997+1046881090+1047103303+1046410196+1044590988+1042259728+1040302980
1989+1039337216+1039512866+1040686084+1042572156+1044489063+1045309941
1980+1044513938+1043389015+1044207468+1047609674+1051705403+1054115099
1972+1053855331+1051378839+1047881152+1044823941+1043248287+1043035567
1963+1043296513+1043557321+1044021147+1044730746+1045087797+1044487400
1955+1043090861+1041715663+1041051380+1041167995+1041715039+1042244345
1946+1042274417+1041537865+1040373101+1039460760+1039010584+1038807148
1938+1038989658+1039848715+1040914671+1041218577+1040643263+1040149364
1929+1040470731+1041372124+1042282940+1042837121+1042628350+1041323482
1921+1039304650+1037445878+1036141772+1035030569+1033683919+1031949730
1912+1029540034+1026067776+1021712418+1017310982+1013593160+1010780196
1904+1008924750+1008133390+1008396414+1009489117+1011155540+1013315931
1895+1015984148+1019028541+1022264589+1025676495+1029133856+1032092606
1887+1034110399+1035301493+1035975199+1036344584+1036639620+1037071504
1878+1037653194+1038252344+1038770217+1039174316+1039429649+1039407684
1870+1038928336+1038085493+1037375618+1037160611+1037374371+1037828358
1861+1038389330+1038915448+1039293633+1039555341+1039827166+1040173269
1853+1040576328+1041018537+1041428041+1041580963+1041272277+1040662040
1844+1040310186+1040554779+1040986040+1041070574+1040806371+1040531498
1836+1040350720+1040038777+1039572733+1039284002+1039381077+1039695030
1827+1040074323+1040526163+1040869771+1040833394+1040501149+1040247617
1819+1040336239+1040697655+1041007658+1041024496+1040781635+1040423128
1810+1040062197+1039870957+1040026859+1040401579+1040540783+1040122964
1802+1039368189+1038789549+1038469498+1037979965+1037109752+1036146830
1793+1035454138+1035051564+1034689801+1034217798+1033593080+1032757997
1785+1031757520+1030838458+1030270073+1030130038+1030328969+1030779284
1776+1031477796+1032428385+1033503904+1034356586+1034700195+1034749321
1768+1034943194+1035410417+1035972219+1036491963+1036922808+1037190475
1759+1037421072+1037970334+1038864590+1039600449+1039829383+1039769378
1751+1039829521+1040156570+1040575428+1040854043+1040873374+1040709365
1742+1040609518+1040689340+1040664257+1040207152+1039506700+1039152697
1734+1039528110+1040176248+1040522906+1040633216+1040651993+1040578684
1725+1040452785+1040333329+1040197659+1040091784+1040293556+1041128708
1717+1042401980+1043332267+1043602983+1043487199+1043247872+1043013533
1708+1042887980+1042934820+1043021501+1042911538+1042636942+1042454918
1700+1042362138+1042008552+1041443354+1041073900+1040943288+1040761679
1691+1040399570+1039860633+1039183808+1038632330+1038781442+1039955144
1683+1041255301+1041791951+1041865607+1041899489+1042028715+1042220925
1674+1042263885+1041886255+1040992553+1039659622+1038179866+1036941932
1666+1036045667+1035323388+1034545539+1033640266+1032776221+1032028859
1657+1031267086+1030442743+1029721019+1029092421+1028135319+1027061186
1649+1026671915+1027755471+1030221847+1032667366+1034357348+1035566596
1640+1036511295+1037308822+1038325445+1039921538+1041578123+1042438288
1632+1042610058+1042537580+1042397684+1042180391+1041919376+1041775045
1623+1041848908+1041998851+1042081237+1042261114+1042864975+1043937376
1615+1045049965+1045948032+1046787133+1047723448+1048675145+1049398879
1606+1049823903+1050144369+1050485900+1050676863+1050463034+1049776648
1598+1048657546+1047058264+1044849717+1041811422+1037267456+1029844494
1589+1018211058+1002511480+984983272+968923040+957024501+950594948+949762638
1579+954250478+964461668+980356644+997078109+1008523215+1015296515+1020954455
1570+1026920943+1031757589+1034193408+1034725555+1034229439+1033327907
1561+1032653577+1033071742+1034769415+1036483926+1037969571+1039668076
1553+1041545833+1043410980+1045137824+1046517872+1047461532+1048202727
1544+1048976002+1049773945+1050756061+1052376961+1054244948+1055597696
1536+1056535951+1057527768+1058657402+1059525120+1060075420+1060724529
1527+1061687659+1062707122+1063575741+1064481083+1065479967+1066167323
1519+1066356000+1066341795+1066347823+1066356831+1066456678+1066850383
1510+1067588876+1068825493+1071007850+1073280213+1073741823+1072175039
1502+1068728695+1062782856+1053127717+1038760655+1020943299+1002587006
1493+983309157+957186778+914393723+849519070+772879677+704898340+662256198
1483+652427072+672058924+708368796+747014433+779636832+803616212+819546733
1473+830893447+842298295+855392224+869155494+883188787+897778894+912224393
1463+924564032+933941248+941530923+949363112+958821051+968024211+973945591
1453+977191617+979598473+982059790+984579658+986667225+987751197+987766372
1443+987502516+988055588+989838557+992508853+995664248+998779316+1001109883
1434+1002666621+1004114018+1005874953+1007831216+1009576076+1010946492
1425+1012152761+1013431923+1014892762+1016776133+1019279717+1021813165
1417+1023547562+1024614766+1025552120+1026595557+1027629155+1028313394
1408+1028368063+1027610239+1025461073+1020615488+1010849833+992755872+963980935
1398+928077864+893791396+868226801+854168356+850470213+853523336+860667684
1388+871615703+886616422+904232976+922195771+939107784+954170448+966704168
1378+976477792+983936509+989868075+994832283+998857614+1001851286+1003991583
1368+1005448612+1006184263+1006219809+1005767346+1005050333+1004196543
1360+1003260990+1002270975+1001290453+1000411926+999715839+999378120+999737388
1350+1001032902+1003156016+1005826104+1008826220+1011905326+1014700344
1341+1016911386+1018457661+1019486339+1020269385+1021019102+1021802217
1333+1022579235+1023243656+1023657248+1023739772+1023517975+1023049229
1324+1022279417+1021009402+1019076559+1016674068+1014513469+1013495808
1316+1014024005+1015700267+1017720208+1019498742+1020920295+1022108895
1307+1023173396+1024146366+1024872386+1024921235+1023910018+1022031359
1299+1020035601+1018582868+1017809661+1017653898+1018360309+1020311098
1290+1023348353+1026588282+1029095400+1030594211+1031409061+1031932130
1282+1032342743+1032625515+1032585743+1031899079+1030338877+1027994036
1273+1025265675+1022729525+1020974757+1020346228+1020671405+1021329106
1265+1021716921+1021679990+1021525612+1021693501+1022314132+1022906491
1256+1022616028+1020990347+1018551202+1016511861+1015908207+1016974717
1248+1019185483+1021727107+1023942030+1025509230+1026411454+1026826085
1239+1027012406+1027190689+1027400845+1027470551+1027248476+1026870708
1231+1026640734+1026680368+1026891356+1027212723+1027707176+1028446223
1222+1029439840+1030602110+1031739227+1032703951+1033544785+1034369820
1214+1035140047+1035721043+1035980049+1035677806+1034505559+1032571192
1205+1030761338+1030245405+1031482577+1033882642+1036464732+1038659491
1197+1040446548+1041946191+1043086080+1043680172+1043729229+1043501334
1188+1043161121+1042145607+1038967832+1032283569+1022828887+1013929286
1180+1009137609+1009314021+1012640770+1017143300+1022206316+1027777782
1171+1033279058+1037852125+1041187189+1043614901+1045531530+1047069351
1163+1048254417+1049130034+1049697796+1049970036+1050076673+1050195783
1154+1050439406+1050865401+1051468708+1052128002+1052687310+1053129865
1146+1053614687+1054290749+1055090147+1055769535+1056147512+1056208556
1137+1056013228+1055586679+1054829409+1053544496+1051773930+1050148457
1129+1049614509+1050630854+1052723826+1054939442+1056673492+1057962631
1120+1059093166+1060223146+1061345297+1062216480+1062090580+1059420215
1112+1051652119+1035982474+1011938447+983654914+958104524+940332276+931550399
1102+931713022+941145255+958313987+978364696+996020883+1009168027+1018790807
1092+1026521417+1033045343+1038043434+1040777477+1040724332+1037893145
1084+1032387365+1022878082+1005095095+973376859+925945119+868650786+812019143
1074+764495870+729292004+707143542+700268316+712040401+742549319+785660900
1064+831590642+872294398+904357420+928133296+945553412+958525183+968376273
1054+976154278+982997838+989889554+997086563+1004074177+1010203427+1015322845
1044+1019843945+1024369895+1029235574+1034225420+1038768692+1042429973
1035+1045071306+1046756507+1047925151+1049478562+1052219673+1056158737
1027+1060428799+1063764971+1065026464+1063148845+1056353234+1041259735
1018+1012935114+967247956+905624595+837135085+772084644+713047530+657322823
1009+609744396+586426389+600545878+647253608+706704659+760372010+801848626
999+834292812+862178205+886865381+907576978+923786183+936026945+945329120
989+952614542+958526569+963421626+967393950+970492942+972833141+973885448
979+971765799+964896116+955403532+949028303+949673808+955507259+962151472
969+967447372+970974715+971935074+970678917+970071590+972588201+977706788
959+983611608+989378610+994500870+998329070+1000794961+1002352668+1003093516
949+1002955283+1002473856+1002335484+1002420918+1002153459+1001834726
941+1002874144+1006223620+1011085903+1015748770+1019270224+1021756140
932+1023520955+1024688282+1025345359+1025648156+1025871270+1026361496
924+1027277301+1028457378+1029636693+1030662669+1031525537+1032318422
915+1033186694+1034281060+1035695129+1037347486+1038977255+1040334368
907+1041304012+1041924087+1042441752+1043155370+1044045953+1044815349
898+1045344447+1045816658+1046418441+1047176958+1048019316+1048803470
890+1049366798+1049724749+1050241375+1051359992+1053027732+1054681198
881+1055919271+1056804658+1057423417+1057492083+1056379010+1053336488
873+1047420512+1036374378+1016037432+983612786+942719176+902898936+873151238
863+857956437+858912500+875739494+904208863+936475528+965607585+988794080
853+1006244061+1019015930+1028366816+1035536663+1041169035+1045211895
844+1047212088+1045851026+1037586398+1016333370+977013473+922205125+864493251
834+818528310+789779911+773466216+763837131+759534849+758917753+756815218
824+750439435+743120892+736502524+725038364+706684011+694000348+704221169
815+739933208+787202602+830859356+865288907+892277827+914816669+934034859
805+949056296+958134665+959224249+947681583+913146226+843847826+741390999
795+631774996+554405010+534614692+567342240+626894281+688244986+738936957
785+777406043+806449686+829136739+847910157+864612707+880212091+894688008
775+907519536+918255044+926663517+932654118+936231558+937530606+937079182
765+936181808+936780958+940423253+947004690+954721996+961711689+967549783
755+972756714+977540977+981770089+985287870+987546653+987795335+986053940
745+983531370+981334810+975797781+954534775+906127155+841099995+793551016
735+789784761+821562308+860252845+888631859+907572127+920875589+928446694
725+932200754+937114797+943607127+944878736+935948786+922547486+916190619
715+922259795+936698711+952053017+963501379+970100346+973050919+973637805
705+972202810+968700619+964005948+960360951+960191467+964236961+970994740
696+978029887+983461734+986442726+987090102+986279964+985099818+984215955
686+983861606+984425211+986570081+990381652+994889378+998928497+1002042318
676+1004348565+1006137493+1007797818+1009771057+1012413776+1015427196
667+1017302390+1017503469+1017282711+1017411660+1017626459+1017028140
659+1014190994+1006904255+993211314+974541277+957475232+950007716+954864456
649+967692451+981819839+993330008+1001767237+1007902723+1011779011+1012649708
639+1009768424+1001211947+983100872+955307704+928447803+918231762+929444469
629+949059137+958109097+950358947+938023396+937430343+951489967+970298030
619+985111112+995015278+1001959240+1006331297+1008064377+1007951018+1007277104
609+1007398847+1009143360+1012222952+1015572635+1018166227+1019551195
601+1019960976+1020000956+1020242224+1021054371+1022481536+1024265960
592+1026183213+1028166915+1030075298+1031665711+1032783080+1033484641
584+1034018381+1034507083+1034764149+1034494611+1033222171+1030367563
575+1026062648+1020352533+1010592143+992779153+968095372+945848864+936784215
565+944339244+963301824+984946548+1002791481+1014959974+1022594894+1027284784
555+1030172997+1032058030+1033318137+1034072012+1034544985+1035068124
547+1035946998+1037333351+1038862511+1039655534+1039222056+1038326553
538+1038576413+1040921947+1044503752+1047021125+1046238564+1041183031
530+1032638541+1023441479+1017935561+1019312214+1026550657+1035475896
521+1042801852+1047858148+1051345649+1053584407+1054256936+1053386862
513+1051297077+1046609266+1033450758+1001183331+941762420+862412335+788916211
503+752001299+765076243+812252788+864241521+900920778+913868366+898615986
493+853915933+790870465+736758620+718451038+740701356+783199098+816056599
483+820542915+799808730+771253234+750577945+743330147+748510541+765979437
473+795860935+831927669+863893962+887415266+904952690+919767089+933120925
463+944789906+954322332+962247300+969599795+975904279+979711970+981814296
453+984768958+989564792+994562053+997605821+998278419+997849584+997867391
443+999300861+1002643686+1007520589+1012365550+1015558223+1016515256+1015325686
433+1012375043+1009059519+1007436263+1008262269+1010480379+1012756692
425+1014215800+1014305045+1013594407+1014237626+1017642603+1020115908
416+1016236087+1007040964+997885476+992657549+990929319+990525913+991212785
407+993102183+994817178+996402740+1000631298+1008799751+1017087244+1018543165
397+1010815603+998176147+984731957+974635511+973603853+983662398+999090913
387+1010043228+1010143422+1002823909+998341681+1001113556+1006575613+1009823579
377+1011720253+1015975002+1020425980
##END=
