##TITLE=X9365
##JCAMP-DX=4.24
##DATA TYPE=INFRARED SPECTRUM
##DATE=5/11/2018
##SAMPLING PROCEDURE=ATR platinum Diamond 1 Refl
##ORIGIN=ComPlat
##XUNITS=1/CM
##YUNITS=TRANSMITTANCE
##RESOLUTION=4
##FIRSTX=3997.453
##LASTX=373.96442
##DELTAX=-1.4165319
##MAXY=0.98649198
##MINY=0.49545079
##XFACTOR=1
##YFACTOR=9.1874225e-010
##NPOINTS=2559
##FIRSTY=0.81222171
##XYDATA=(X++(Y..Y))
3997+884058294+883030004+881672207+880744086+880677652+881306044+882220347
3988+883107401+883716071+883892016+883803265+883795285+883849652+883492637
3978+882466747+881262318+880668440+880839973+881188943+881237924+881166041
3968+881416788+882016505+882463503+882373390+882063671+882053161+882153849
3958+881850422+881310521+881034277+880775226+879778401+878066768+876852737
3948+877211763+878498845+879094410+878670313+878616141+879863519+881484909
3938+882234555+881890126+880740128+878982498+877144940+876356238+877158694
3928+878533035+878996382+878266523+877507729+877603356+877914828+877517201
3918+876770928+877120482+879250308+882165786+884446579+885400651+884907850
3908+882797682+878794486+873246715+867876380+864870010+864812205+866979724
3898+870578286+874286618+876328925+875834308+873921753+873292323+874956012
3888+876684837+876375636+874349224+872487986+871369453+870526320+871003680
3878+873637465+876321140+876513109+874011802+870629927+868033446+867181555
3869+868410183+870168721+870437115+869377879+869301714+871398972+874128709
3859+875606917+874979822+871615659+865080145+859208900+860710982+867631148
3849+874619888+879087663+880258810+878357349+874334302+869456574+864999828
3839+862554962+863461999+866816041+870342979+873040732+875091928+876554501
3829+877045744+876496501+875495524+874209739+871586010+867197839+863765815
3819+863781190+865705034+868337067+872372895+877157851+880643981+881686285
3809+880236882+877216239+874500321+872800885+870700188+867884165+866990883
3799+869355302+872826641+875970029+879065345+882176490+884632450+885923619
3789+886030340+885217115+884048433+883349585+883284708+882834012+881337574
3779+880055747+880840881+883346795+885615586+886226332+884732100+881743571
3769+879028949+877955830+878191331+879085262+880232990+880563664+878959726
3759+876014535+873968983+873559678+872834555+869681695+863819273+858152713
3750+856882628+859087841+861069035+861855012+863098821+865849838+868533578
3740+869297043+867022608+861820887+856863944+857206556+863367214+870730096
3730+875376735+876263141+874434731+872253653+871883728+873587835+876378686
3720+879407633+881991333+883315914+882583849+879275415+873947574+869767656
3710+870608129+875600559+880930670+884168454+884671116+883375860+882647623
3700+883980832+886156719+887404746+887158021+885315857+881498857+875854160
3690+870695388+869924137+873969243+879257574+883343551+885523786+885446194
3680+882996398+878336913+871777655+865616283+864405690+867415823+869574454
3670+869926927+872373933+878598300+885219062+889336309+890632474+890247563
3660+889142978+887294586+884664758+882392204+881327778+879815121+875213831
3650+867019623+860239720+861715203+869233010+876717794+881849189+885009446
3640+887093599+888339744+888453926+887446137+885798148+883784710+880853143
3631+876329963+872011664+872421812+877308299+881927041+883795220+882634972
3621+879087208+875075385+873137917+873404819+874090107+874532694+875249967
3611+876181591+876881218+878081171+880792613+884007950+885620581+884935163
3601+883307415+882455264+882438202+882382019+882427757+883485890+885218348
3591+885704466+883341864+879075725+876912294+879032258+882911021+885837333
3581+887232953+887599570+887512570+887471958+887834746+888448152+888467615
3571+886633690+881982510+875345205+870785111+872018087+876977948+881554391
3561+884396819+886395983+888407215+889969762+890060654+888610213+886927515
3551+886315991+886333508+885415896+883115576+881075928+881311235+883806898
3541+886862834+888936022+889600097+889488250+889477221+889696438+889523867
3531+888486300+886833250+885313522+884502113+884431528+884968250+886145496
3521+887800816+889363687+890399308+890971907+891232321+891008822+890110998
3512+888860247+888021850+888039950+888424667+888287129+887441271+886689808
3502+886907339+888004138+889197669+889962756+890376796+890765535+891235954
3492+891630207+891805633+891781824+891639939+891366550+890851497+890154725
3482+889774030+890270075+891422863+892276311+892239591+891699301+891387440
3472+891510705+891767940+891895682+891926368+892052682+892335154+892581100
3462+892594335+892455954+892397305+892513369+892697099+892750492+892574937
3452+892244976+891756392+890937977+889922597+889329692+889522180+890182038
3442+890928505+891694695+892422348+892973926+893324453+893527516+893641309
3432+893779691+893998259+894181016+894220655+894124768+893835484+893241736
3422+892489949+892040096+892209813+892802848+893370905+893712673+893927414
3412+894115101+894252769+894341779+894488205+894732530+894905814+894814079
3403+894535435+894264771+893938184+893444345+893097127+893315500+893910611
3393+894270870+894189255+894035433+894141571+894386674+894476528+894406072
3383+894445452+894719944+895095902+895464530+895840942+896196919+896447277
3373+896599412+896753233+896942088+897014815+896765690+896237077+895792090
3363+895746742+896033365+896381297+896730462+897261345+897976282+898479334
3353+898376245+897748177+897053027+896710415+896845358+897212947+897353729
3343+896971153+896112839+895018051+894021550+893501371+893562744+893856569
3333+893980159+893868896+893599010+893138193+892562091+892212602+892320103
3323+892686913+893027125+893394844+893986322+894712742+895230326+895258288
3313+894729610+893781832+892720065+891919751+891667057+892004285+892748546
3303+893697038+894677190+895385251+895513187+895151436+894755691+894668108
3293+894927872+895449154+896102848+896718979+897165393+897384286+897413285
3284+897433267+897638860+897966940+898097601+897798521+897172400+896498464
3274+895974587+895750505+895996516+896648653+897306694+897688815+897917375
3264+898163321+898418934+898741694+899206403+899571657+899466557+898918936
3254+898385393+898280423+898605583+899011968+899201926+899218924+899272577
3244+899436973+899671047+899911803+900006004+899786527+899359706+899083787
3234+899161573+899453841+899747407+899959293+900038312+899942879+899792366
3224+899764275+899812672+899757917+899579377+899354191+899087549+898841084
3214+898783733+898929121+899094037+899216134+899406482+899631019+899635365
3204+899285487+898805208+898563413+898683435+898942875+899044472+898898824
3194+898611227+898306244+898063930+897920943+897818698+897593188+897127246
3184+896444227+895567878+894428454+893060666+891765215+890881599+890441154
3174+890139025+889655501+888991751+888463204+888265979+888153289+887764485
3165+887186502+886876782+887040595+887389176+887590681+887686309+887899752
3155+888249371+888593410+888904492+889225955+889487277+889632146+889814059
3145+890189628+890585114+890633253+890278768+889955814+890127606+890726610
3135+891243480+891359349+891234462+891101400+890897948+890479301+889879000
3125+889125332+888051498+886561418+884882678+883307026+881873713+880545759
3115+879454279+878669924+877963550+877121585+876303883+875765085+875407681
3105+874936874+874340855+873899241+873771110+873859213+874122351+874717332
3095+875693656+876805572+877815372+878731881+879578452+880192766+880426516
3085+880335040+880069242+879760820+879562947+879675377+880269320+881333098
3075+882553422+883475834+883847251+883677535+883030717+882040769+881074566
3065+880486397+880144369+879503455+878199959+876335413+874211945+872111898
3055+870315017+868939444+867700955+866145804+864047313+861333535+858008947
3046+854592688+852168907+851462274+852093262+852943920+852931334+851498410
3036+848903875+846128854+844240109+843772999+844603027+846164082+847805713
3026+849116475+849965512+850308319+850125237+849568663+848952468+848438777
3016+847845418+846944415+845857541+844919300+844259442+843768134+843330737
3006+842852858+842216616+841407283+840617997+840216283+840604114+841916822
2996+843832426+845857801+847705479+849202047+850071974+850075607+849201463
2986+847569499+845309920+842670685+840150239+838351153+837543442+837373661
2976+837122849+836265767+834755706+832958890+831417558+830445515+829815566
2966+829003574+827794149+826473266+825419025+824697665+824121369+823562524
2956+823097166+822867503+822926736+823268180+823881132+824673985+825466645
2946+826219989+827146877+828397564+829790005+831083315+832316809+833598117
2936+834810461+835831291+836756687+837627003+838219908+838363415+838188638
2927+837894813+837454043+836698947+835617328+834448192+833476149+832816616
2917+832422622+832147546+831734933+830931829+829723117+828333271+826972360
2907+825690273+824423692+823116564+821841549+820732617+819695699+818394603
2897+816717355+815031154+813754841+812851049+811934865+810781493+809584849
2887+808763514+808605086+809089778+810012514+811261643+812925722+815042767
2877+817326609+819366516+821077305+822662948+824108004+825037423+825154135
2867+824502323+823191042+821183313+818540186+815644171+812980802+810784088
2857+808990063+807443929+806068421+804891110+803959940+803239812+802603959
2847+801887789+800919509+799583186+797917486+796085767+794254697+792585234
2837+791247354+790276349+789492708+788696221+787872551+787135361+786576646
2827+786211587+785965121+785693744+785322456+784958694+784780804+784821870
2817+784951299+785085852+785313114+785753689+786395900+787143535+787963183
2808+788903501+789989336+791145433+792261501+793335788+794499151+795850461
2798+797331977+798800842+800086238+800920677+800999697+800250505+798891540
2788+797132288+795010442+792633048+790371588+788638741+787559522+786940148
2778+786496653+786057051+785551470+784894337+784029211+783116595+782490344
2768+782341128+782575981+783025185+783625356+784337503+785040244+785648071
2758+786289179+787219376+788511129+789936397+791177677+792063304+792628312
2748+793082446+793689429+794567142+795637536+796772613+797884918+798911392
2738+799876622+800932809+802166368+803383903+804216266+804416280+803963638
2728+802931909+801400762+799481590+797289094+794886658+792393070+790099237
2718+788302941+787071912+786320384+786020591+786178110+786713340+787484980
2708+788347965+789162098+789873857+790576467+791377820+792260139+793142003
2698+794001031+794892626+795912158+797103547+798334965+799349761+800023762
2689+800493077+800960901+801462460+801895834+802237667+802618556+803142303
2679+803704132+804097672+804266935+804348419+804510480+804854325+805411678
2669+806119090+806838633+807493041+808138431+808835657+809509528+810003821
2659+810262353+810399891+810578495+810841763+811124754+811431814+811912613
2649+812701704+813745240+814836655+815790013+816545757+817155854+817709769
2639+818299430+819016638+819890912+820796521+821523330+821970458+822221530
2629+822477272+822958720+823757412+824727898+825637789+826398464+827026791
2619+827508368+827865902+828212861+828571173+828798499+828840150+828881541
2609+829113863+829482621+829768466+829845150+829849237+830131838+830922162
2599+831978089+832779377+833120367+833251223+833441635+833760048+834232867
2589+834858405+835502367+836043306+836541946+837120773+837720814+838015742
2580+837665280+836826688+836242671+836479665+837241702+837803986+837913562
2570+837902728+838131417+838667749+839375615+840068235+840640510+841142069
2560+841682359+842284801+842897817+843498962+844151034+844944212+845820951
2550+846481976+846660062+846500077+846428907+846659673+847062620+847513575
2540+848110373+848976861+850001843+850901483+851556475+852140297+852798662
2530+853361270+853577697+853476101+853251110+852960269+852576007+852193301
2520+851980766+852021054+852292043+852646916+852829414+852759347+852736770
2510+853061801+853630961+854243329+855023207+856133047+857333908+858176133
2500+858482804+858531785+858807899+859510575+860337943+860918132+861247574
2490+861490861+861709234+861995663+862465303+863001571+863388429+863663440
2480+864003522+864374939+864568984+864511633+864388109+864439101+864641386
2470+864704121+864527139+864507092+865091109+866085663+866774001+866794892
2461+866586703+866815652+867630953+868634136+869336293+869517363+869334866
2451+869194149+869396563+869858547+870202133+870128887+869728925+869447880
2441+869703752+870484539+871323585+871720823+871625260+871431604+871437508
2431+871533136+871592627+871822355+872396251+873071159+873523672+873831056
2421+874309519+875025235+875698522+876062349+876137929+876093230+875977555
2411+875768264+875594720+875697354+876136697+876672121+877005261+877066634
2401+876979051+876821207+876584473+876315431+876137800+876142536+876337554
2391+876656227+876976327+877209881+877403278+877713711+878280666+879142678
2381+880294752+881793915+883677859+885755459+887698441+889414810+891096859
2371+892864156+894622499+896203731+897444102+898337773+899214967+900438599
2361+901899226+903063497+903392095+902585358+900665083+897939238+894895759
2351+892167903+890409494+890076419+891280135+893556321+895805909+897166885
2342+897821812+898229041+898372353+898260571+898304427+898732741+899155994
2332+899060496+898391102+897409717+896309025+895240447+894410289+893980029
2322+893994821+894329258+894598430+894415933+893850276+893304017+892952712
2312+892649220+892290584+891902364+891516349+891289672+891515182+892241018
2302+893100241+893704953+893976655+893998648+893863446+893800192+894103943
2292+894742780+895284692+895373378+895082278+894701649+894360983+893996313
2282+893608352+893391665+893527516+893932994+894342169+894593889+894739212
2272+894874414+894956678+894946362+895123345+895858199+896898621+897433527
2262+897110248+896427424+896052828+896378118+897573725+899313060+900595600
2252+900567379+899487058+898459546+898283342+898812279+899477651+900080547
2242+900705890+901175595+901294319+901493943+902464558+904153484+905742501
2232+906577330+906601983+906016798+905084784+904255924+903987206+904304581
2223+904800237+905100030+905106388+904842147+904427717+904283172+904950296
2213+906412933+907841834+908407751+908182630+907875181+907962634+908522387
2203+909375511+909877525+909286177+907895098+906996366+907339432+908540293
2193+910060152+911628991+912616799+912189329+910356507+908083239+906343645
2183+905637855+906200657+907974052+910535565+913473880+916471816+918786021
2173+919440623+918426346+916989011+916326688+916583988+917322281+918309893
2163+919526649+920617934+920619037+918884892+916465264+915252660+915784452
2153+917037603+917713355+917226134+916113959+915479273+915614086+915793923
2143+915707314+915876252+916384104+916553626+916175461+915903565+916160864
2133+916499584+916274852+915446121+914461817+913678371+913206590+913171946
2123+913676100+914461947+915015472+915087225+914871252+914648337+914432753
2113+914074506+913658389+913580797+914108825+915050116+915966495+916541494
2104+916730673+916707772+916656649+916615323+916628428+916886960+917487585
2094+918227046+918804835+919084192+919155167+919308470+919845646+920768902
2084+921773447+922596144+923189244+923562931+923729404+923775142+923696058
2074+923265279+922441349+921765986+921837350+922368233+922298037+921198253
2064+920162373+920574856+922255284+923770990+924424943+924883879+925839507
2054+927068849+927891352+927807726+926800651+925635277+925471140+926530895
2044+927618417+927492557+926322836+925354232+925434095+926423849+927755566
2034+928909910+929661892+930314483+931285034+932468249+933565827+934464559
2024+934587305+932945155+929690049+926488725+924646302+923724084+922609249
2014+921443097+921606390+923832038+927119907+929844260+931297166+931619277
2004+931174095+930687458+930922894+931742282+932346995+932463448+932400453
1994+932290163+932275306+932803335+933825137+934769543+935854535+937762224
1985+939806153+940253411+938727519+936688845+935436212+934888461+934334547
1975+933420374+932158853+930522542+928451689+926316284+925068452+925537054
1965+927704054+930765115+933483044+934749301+934511724+933755979+933149710
1955+932400518+931143993+929654626+928300008+926890310+924961795+922315748
1945+919265522+916877229+916587102+918621300+921568827+924083629+925893939
1935+927295657+928525648+929722876+931053425+932557129+933775961+933810346
1925+932289709+930193943+928887528+928286319+927374158+926370131+926717284
1915+928667792+930704066+931445862+930949039+930472912+931257591+933440810
1905+936101584+938107950+938857531+938508561+937660368+936860897+936464956
1895+936666722+937236336+937515564+937234584+937076351+937840270+939345531
1885+940951740+942369612+943400044+943790599+943732340+943857681+944469141
1875+945133345+945067431+943632950+940672188+937199227+935745153+937893988
1866+941826532+944731631+945502297+944614918+942976336+941236677+939777024
1856+938844361+938577460+938804981+938881990+938181260+936650697+934561808
1846+932411612+931610324+933384043+936352396+938152974+938092509+937172044
1836+936634543+936395214+935166651+932275566+929077421+927625294+927732470
1826+928068983+928855868+930991014+933920571+936250735+937446730+937990394
1816+938261253+937893598+936542419+934836041+934084838+934808793+936107098
1806+936712135+935924406+933806713+931310660+929950527+930314419+931288213
1796+931370411+929904400+927641318+927110889+930096369+934611633+937818342
1786+939030492+939207993+939261776+939453420+940147727+941600503+942978088
1776+942846908+940518106+936986043+935078419+936720958+940584475+944654039
1766+947682921+948662813+947308195+944896287+943426902+943175571+943147739
1756+943176739+943182837+941855467+937882180+932240533+928531487+928839714
1747+931454815+934099954+935847658+936759495+937372771+938241011+939071364
1737+938664200+936568499+935345645+938466197+944504693+950705705+955994684
1727+959425411+960335236+959370266+957620096+954814583+949748259+943011694
1717+939396589+942943249+950544746+957540298+961789699+962817276+960737275
1707+956335934+951794589+948748385+945658779+940075001+933119932+929500480
1697+931228332+937153424+944078780+948144516+947676433+943033103+935770585
1687+925850472+908910867+882337449+856524252+838925179+823766365+806446001
1677+785240647+759539491+732971263+710581137+691010472+670496505+651197866
1667+637111783+625657669+612503729+597570491+585499467+579568925+577967323
1657+577597982+576842691+577075727+584108778+597207313+607335744+613961890
1647+621652527+633807371+647319818+657981078+665399494+670103224+672402896
1638+673840751+678839993+690307018+703190423+712947502+719691204+724801709
1628+729335463+733515835+737675512+743421740+751326664+758635958+762185668
1618+760593537+754983614+748574285+742451320+735850151+729388142+725081910
1608+724038244+725330775+727495569+730009398+733015703+735862024+736504948
1598+733471979+728532488+726350826+730345328+739551542+750534848+760804450
1588+769608496+776985261+783183094+788611233+793439331+797106467+798784688
1578+798697365+799436112+803816498+809433557+812321009+812076166+811574088
1568+813750105+817725274+821155417+822685266+820710754+810648756+783774701
1558+745839098+723577687+716900353+717026278+722474594+732836255+745895930
1548+757903829+765765740+769108169+769514944+768769644+769902840+778425711
1538+791923949+801984455+806965985+809769941+814009676+819666958+823618447
1528+824657507+824199739+823902606+823558501+822899617+823791408+827200076
1519+831303246+835859706+842217070+849144112+853181887+851946836+844557679
1509+829781052+808023794+789694733+781264440+776875361+773726198+773330322
1499+778155695+789404346+804359383+817055945+823857711+824447826+819757396
1489+811209158+800501576+790175532+783846195+784399071+791683842+801927753
1479+810508753+815204633+816432029+816507285+819555890+828357146+839492458
1469+847942408+852317280+854161714+856420060+860053265+862464590+861091482
1459+855904228+851626217+855613128+865143788+873258847+878024080+879421127
1449+877760357+874205003+870259743+866123616+860552165+852170205+840112676
1439+823502059+802612393+783969330+777344352+782338858+792754756+805609616
1429+819716200+832758876+842671594+849458309+853917260+854968646+848678300
1419+831365267+807444838+788279196+778519262+776401439+779582391+785622509
1409+792101127+797710985+802739616+808445685+815094408+820965134+824479681
1400+825930056+826909365+828864544+832603952+838171121+844099392+848343344
1390+850103244+850425031+851480310+854115847+856868161+858239388+858140451
1380+857244574+855823522+853716663+851597671+851378843+853952293+857612682
1370+860313874+861433250+860974250+858752105+855227568+852636017+853494656
1360+857473198+862189190+865917439+867744033+866231505+859285649+846516945
1350+831751671+821689803+820664757+827203190+836128100+843080574+847032776
1340+849974140+854603068+861384917+868487516+874261900+878359880+881207432
1330+883327073+885056092+886555385+887893200+889016339+889727514+889951597
1320+890104575+890908069+892624113+894777943+896875460+898949428+901181888
1310+903465470+905647587+907793566+909920797+911824788+913363461+914624916
1300+915727944+916613442+916911743+915691094+911032324+899965845+880096036
1290+853014636+826070060+808704088+805589309+813838597+826818343+839205315
1281+848807923+855881457+861809403+867762782+873864468+879440785+883877938
1271+887030020+889099641+890572723+892110163+894075138+896237077+898199327
1261+899948523+901734505+903584583+905240293+906526142+907537175+908413914
1251+909087590+909258734+908496891+906490006+903514906+900599493+898879361
1241+898675066+899265895+899515020+898727810+897053481+895167461+893648705
1231+892685875+892239332+892298823+892970748+894375969+896366830+898228132
1221+898848156+897541611+894634956+890940767+886984023+883334209+881284051
1211+882200170+886078414+891328338+896213138+900363148+904834491+910771651
1201+918086005+925270153+929989777+929343544+919580886+896905758+860985798
1191+818795215+783026417+764173350+763792720+775602227+791807691+807549483
1181+821087945+832321934+841748922+849920358+857179503+863712032+869676180
1171+875183858+880277754+885002634+889412799+893555478+897498273+901322410
1162+905054163+907945766+906825871+896611284+876046065+852991345+839745216
1152+841697864+853502311+866537008+876489365+883394025+888332153+892021477
1142+894927418+897331152+899364442+901121747+902673979+904019904+905116055
1132+905999800+906807770+907491567+907590244+906662772+905100355+904164254
1122+904874455+907030685+909597972+911788587+913455066+914772510+915940220
1112+917035203+917949635+918537479+918750339+918391962+916596963+911743823
1102+902732627+891137472+881444296+877845151+880753817+887105277+893598037
1092+898831223+902850508+905949456+908292920+910075203+911508905+912685503
1082+913616998+914353149+914964220+915456761+915771541+915820912+915481284
1072+914648402+913519488+912801113+913256999+914911346+917019632+918894299
1062+920440952+921879650+923299014+924587394+925671478+926676088+927738114
1052+928748952+929503853+930035710+930590857+931351791+932317865+933371133
1043+934398320+935402022+936489479+937671137+938555142+938187294+935433098
1033+929875530+922434797+915019884+909525181+907021408+907527509+910184455
1023+913674413+916890853+919492914+921776496+924065009+926403737+928694975
1013+930835441+932741054+934390146+935840846+937192739+938543789+939924812
1003+941272813+942515260+943647806+944710481+945727223+946598318+946901096
993+945813833+942679916+938131759+934336039+933302883+935022885+937894896
983+940568321+942638979+944127891+945162539+945872611+946111421+945439107
973+943401536+939329442+931481479+917136410+895791247+873448999+861074095
963+865530711+882898045+902790692+917770122+926776062+931834017+934699022
953+936230234+936785835+936534179+935698961+934542929+933115909+931170332
943+928374875+924599591+919961386+914482708+907681979+898600717+886423102
933+871618254+857115275+847782488+846903543+852367818+857557148+856728353
924+848739154+835640230+819498280+801536678+783132360+766159215+752105181
914+741283611+733138514+727174431+723450075+722363590+724197126+728806526
904+735599404+743801916+752782684+762199876+771921338+781791626+791515682
894+800829721+809659457+818044790+826072720+833828558+841142198+847539396
884+852794510+857380230+862032189+866982319+871821641+875756521+877604524
874+876225707+872178720+868656648+869210952+874356295+881558608+888278306
864+893721691+898096823+901809177+905447832+909477367+913714831+917545455
854+920687352+923487934+926440068+929658000+932994850+936368226+939581421
844+941969131+942405294+939207928+929953057+912923534+890493704+870383786
834+861079739+865129516+877923586+892761651+905652777+915744488+923524330
824+929609797+934268697+937306986+938471517+938096142+937442578+938334109
815+942001439+948015866+954532371+959399071+960245707+953817758+937891068
805+916074903+898824281+895888432+907584405+925727401+942175567+954075577
795+962297357+968335983+973238818+977683497+982106961+986712534+991418275
785+996009120+1000320154+1004133326+1007143718+1009134903+1009851982+1008704124
775+1004602577+995213995+975741034+939566046+882059778+805013661+717919301
765+635364793+572495911+539889381+539270720+563333553+600289523+639009546
755+671810835+695966766+714313733+732728626+755017026+780102116+804168712
745+824563306+841276168+855725753+869123563+881825769+893532187+903802244
735+912412179+919338508+924743876+929089942+932805281+935707719+936467746
725+931208674+913532723+881305331+845872139+827976127+838288742+867045639
715+896768804+918262404+931997700+940763598+945048357+942785600+930437359
705+904977868+867115575+823682675+786021045+764338655+762204093+775806004
696+797917421+822140759+844727330+864413475+881338742+895981399+908676663
686+919623445+929022211+937086407+943939490+949626357+954211882+957820499
676+960738443+963544280+966954116+971490595+977184014+982601449+985101329
666+985245874+985739064+987433050+989870585+992643919+995680456+998687086
656+1001125010+1002778383+1003857212+1004684451+1005544581+1006706841
647+1008442738+1010834210+1013472147+1015715312+1017487604+1019383096
639+1021779629+1024360799+1026630498+1028408629+1029791079+1030981885
630+1032182422+1033565650+1035369343+1037750370+1040226700+1041477321
622+1039912244+1034138379+1022824592+1004929683+981175337+955468213+933975651
612+921950170+920704350+927194126+936360570+942379020+935676903+901424201
602+829774370+733813683+651513425+618338968+638528813+689125360+744699805
592+791960799+827798495+852449887+866142300+869720296+866461168+860894128
582+854274924+842680092+820536561+785531877+741719190+700094329+673584879
572+668860648+683739325+710608320+741098389+769652806+794227968+814555221
562+830896601+844402170+857231858+871083478+885794904+899969284+912508390
552+923065330+931692133+938613856+944015461+948059528+951460541+955535489
543+961112001+967716997+974103296+979441581+983929143+988099266+991694129
533+993836995+994341214+993915820+992654429+989242062+982837145+975638530
523+971902236+974405619+982618317+993364695+1003255289+1010987772+1017156151
513+1022515910+1027233005+1031554678+1036374277+1042083331+1047254236
504+1050330932+1052549509+1057079500+1064557602+1071593118+1073741823
496+1066716622+1043717242+994728007+915876641+822499136+744597105+706331606
486+712578939+748028805+784985618+799274180+786243506+763652198+756211075
476+772161056+795858570+801694522+775151142+726668136+682296605+664004588
466+677753833+712922070+753961747+790434129+818568861+840339094+860163750
456+878813236+893625026+904589972+914622386+925160512+934255722+939322889
446+940591741+941362537+944824469+951182481+958386740+964803271+969613917
436+971489363+969005247+962789249+955386339+948217826+939577334+925602060
426+902129277+867332976+826130135+788999972+766645917+770919582+804333433
416+847070405+882699978+908924686+928578003+945998277+963330772+978281981
407+987951347+992444684+993062436+990302726+985331381+981827409+985159653
397+996102996+1008695626+1019396850+1028411484+1035171794+1037930726+1036442008
387+1033021403+1030685724+1030689876+1031721735+1031862711+1030729451
378+1029443602+1027892862+1021885247+1009503271
##END=
