##TITLE=CZ-061
##JCAMP-DX=4.24
##DATA TYPE=INFRARED SPECTRUM
##DATE=8/10/2020
##SAMPLING PROCEDURE=Diamant-ATR
##ORIGIN=Lara
##XUNITS=1/CM
##YUNITS=TRANSMITTANCE
##RESOLUTION=4
##FIRSTX=3997.453
##LASTX=373.96442
##DELTAX=-1.4165319
##MAXY=1.0006984
##MINY=0.58343452
##XFACTOR=1
##YFACTOR=9.3197306e-010
##NPOINTS=2559
##FIRSTY=1.0001173
##XYDATA=(X++(Y..Y))
3997+1073118259+1072847664+1072487723+1072135329+1071858722+1071638204
3989+1071422099+1071164551+1070885322+1070757220+1070993215+1071535492
3980+1072036582+1072277246+1072370813+1072406755+1072217959+1071781656
3972+1071525131+1071799883+1072300909+1072453379+1072228832+1072156115
3963+1072536201+1072998790+1072992394+1072487915+1071898247+1071546876
3955+1071533829+1071806279+1072084549+1072035495+1071724800+1071524492
3946+1071475310+1071260228+1070784720+1070359801+1070314905+1070620995
3938+1070979976+1071183482+1071378546+1071918520+1072857768+1073680810
3929+1073741823+1072920509+1071702415+1070794122+1070537341+1070647344
3921+1070753894+1070880078+1071165063+1071477932+1071594203+1071568621
3912+1071614157+1071722114+1071578470+1070937765+1070062601+1069740458
3904+1070629629+1072198325+1072992394+1072386354+1070997244+1069627896
3895+1068645990+1068329283+1068970819+1070165121+1070724602+1070306910
3887+1069780430+1069806715+1069925225+1069576412+1069210524+1069277677
3878+1069305498+1068929056+1068593163+1068714870+1069141900+1069695241
3870+1070479142+1071266880+1071672612+1071821692+1071972563+1071997825
3861+1071688089+1071126242+1070360249+1069283945+1068183018+1068244990
3853+1070151563+1071558772+1070984581+1069617152+1068579541+1068339900
3844+1068931679+1069805436+1070000244+1069256764+1068578581+1068870921
3836+1069428931+1069209501+1068406925+1067876224+1068087468+1068948307
3827+1070064455+1070722428+1070402076+1069671514+1069689421+1070376302
3819+1070451769+1070090805+1070318678+1070843303+1070694032+1069933475
3810+1069141004+1068763284+1069128661+1069947353+1070358202+1070333516
3802+1070579616+1070994558+1070792011+1070223576+1070059339+1070276979
3793+1070334219+1070156039+1070027937+1069955859+1069680020+1069202146
3785+1068838943+1068709562+1068666456+1068783494+1069331655+1070214303
3776+1070964051+1071236437+1070897218+1070012204+1068874119+1067805617
3768+1067033804+1066842386+1067296916+1067836124+1067933528+1067922208
3759+1068472863+1069391198+1069769621+1069354615+1068627891+1068217617
3751+1068606530+1069415884+1069681811+1069452403+1069591762+1070404442
3742+1070803203+1070071938+1068721266+1067611513+1067677195+1069320015
3734+1071273659+1071783511+1070894276+1069747877+1069123289+1069189738
3725+1069634676+1069932835+1069926504+1069928486+1070147661+1070378924
3717+1070283694+1069828332+1069452467+1069774994+1070904892+1072164301
3708+1072955045+1072992394+1072033320+1070388901+1069110370+1069010152
3700+1069605128+1069928295+1069722358+1069158848+1068383965+1067654299
3691+1067562779+1068586831+1070008942+1070568232+1070450426+1070330382
3683+1070095794+1069363313+1068237571+1067281183+1067129162+1067972413
3674+1068598088+1067786814+1066445543+1066177123+1067208722+1068183593
3666+1068457962+1068437304+1068532022+1068841310+1069127894+1069050955
3657+1068608257+1068130382+1067763598+1067417152+1067190367+1067416193
3649+1068386459+1069842019+1071002296+1071305828+1070698381+1069563749
3640+1068481753+1067854159+1067788861+1068286305+1069113568+1069586709
3632+1069173814+1068359534+1068394326+1069503951+1070376046+1070567272
3623+1070443902+1070146062+1069787401+1069723701+1069926824+1069744423
3615+1068880770+1067743133+1067012699+1067146302+1068098533+1069230670
3606+1069716219+1069420361+1068872648+1068542319+1068554406+1068741603
3598+1068803192+1068617018+1068400721+1068330307+1068178221+1067809263
3589+1067669200+1068224141+1068923364+1068781256+1068039310+1067621490
3581+1067925853+1068669014+1069432961+1070081340+1070559598+1070570022
3572+1069790151+1068373860+1067021717+1066588036+1067357546+1068460072
3564+1068888061+1068641130+1068203611+1067801332+1067239804+1066356517
3555+1065507766+1065358686+1066158959+1067384024+1068303573+1068664793
3547+1068589006+1068280166+1068056130+1068223757+1068686090+1068965191
3538+1068759255+1068294364+1067968256+1067816106+1067575378+1067115347
3530+1066603705+1066319103+1066278300+1066153843+1065747663+1065345064
3521+1065357471+1065827671+1066486730+1067048514+1067312266+1067149371
3513+1066525231+1065638427+1064989920+1064983716+1065396356+1065695155
3504+1065770878+1065882864+1066033863+1065918295+1065463317+1064980966
3496+1064847107+1065182553+1065760454+1066169896+1066147000+1065829525
3488+1065647764+1065837264+1066137534+1066118923+1065715237+1065299783
3479+1065275288+1065699568+1066306120+1066747092+1066820321+1066534825
3471+1066079207+1065735767+1065678143+1065831380+1066061363+1066353064
3462+1066617903+1066620269+1066330423+1065995425+1065701295+1065305028
3454+1064910551+1064894434+1065338029+1065930191+1066440746+1066807019
3445+1066840084+1066400263+1065775035+1065456730+1065652881+1066202385
3437+1066717033+1066716010+1066007321+1064999641+1064322354+1064208833
3428+1064528098+1065127935+1065752331+1065914138+1065350052+1064501557
3420+1064136052+1064504243+1065188501+1065673794+1065750668+1065474829
3411+1065017165+1064543384+1064129785+1063812438+1063725459+1064020996
3403+1064593141+1065093783+1065339308+1065474445+1065611502+1065616170
3394+1065393670+1065008595+1064442334+1063733453+1063363855+1063847805
3386+1064893347+1065587518+1065497469+1065012048+1064587897+1064244776
3377+1063899034+1063732430+1063941500+1064345762+1064545558+1064403577
3369+1064176344+1064233136+1064704231+1065314045+1065667335+1065788594
3360+1066089760+1066709039+1067277794+1067413059+1067031566+1066254381
3352+1065421362+1064994780+1065013391+1064913749+1064231218+1063153187
3343+1062075667+1061015288+1059844841+1058822323+1058471720+1058968270
3335+1059906558+1060772385+1061463743+1062149408+1062793310+1063182350
3326+1063349466+1063570367+1063945018+1064337703+1064660422+1064910295
3318+1065042299+1065090010+1065245102+1065552023+1065685114+1065284562
3309+1064422764+1063548239+1063050155+1063028410+1063364879+1063804636
3301+1064058730+1064041590+1063947064+1063962541+1064061736+1064153512
3292+1064245544+1064375757+1064549523+1064772791+1065036991+1065272410
3284+1065400449+1065450910+1065566413+1065817758+1066028426+1065913243
3275+1065443747+1064981478+1064969838+1065513074+1066290643+1066860613
3267+1066999396+1066754000+1066313156+1065963256+1066008536+1066477201
3258+1066995943+1067158965+1066966523+1066761674+1066809897+1067015321
3250+1067024211+1066585222+1065813153+1065108365+1064868980+1065275352
3241+1066182559+1067145534+1067654683+1067451816+1066634915+1065565646
3233+1064724953+1064453398+1064743628+1065380239+1066177123+1066885108
3224+1067125005+1066750354+1066115470+1065717987+1065670021+1065715173
3216+1065672003+1065667526+1065898469+1066313859+1066728545+1067145150
3207+1067663892+1068111515+1068133452+1067678026+1067094114+1066709743
3199+1066547424+1066443433+1066284056+1066131394+1066184094+1066594687
3190+1067318533+1068143237+1068767313+1068860432+1068281509+1067317446
3182+1066530348+1066307591+1066624874+1067141889+1067467038+1067456421
3173+1067266857+1067055997+1066783355+1066397960+1065954878+1065467027
3165+1064955256+1064647887+1064771384+1065213635+1065694132+1066082852
3156+1066322685+1066357349+1066321598+1066464730+1066754959+1066885428
3148+1066711533+1066405059+1066156849+1065975599+1065802600+1065659980
3139+1065641369+1065830421+1066254253+1066837973+1067357546+1067557918
3131+1067435636+1067293783+1067396367+1067655386+1067762000+1067538732
3122+1067102876+1066769285+1066791094+1067102748+1067376605+1067447979
3114+1067516155+1067760401+1067999722+1067954313+1067608635+1067124813
3105+1066659729+1066413374+1066579018+1067112981+1067772296+1068428734
3097+1069108899+1069714684+1069987965+1069839077+1069507085+1069248961
3088+1069001966+1068554470+1067972221+1067567575+1067435827+1067328127
3080+1067052671+1066713068+1066409280+1065950081+1065014479+1063507563
3071+1061756850+1060406305+1060000573+1060564723+1061672877+1062913546
3063+1064130744+1065257893+1066185757+1066836438+1067247031+1067538923
3054+1067755284+1067735330+1067278817+1066350186+1064934790+1062927808
3046+1060485418+1058178741+1056454249+1055215563+1054151858+1053163492
3037+1052363922+1051995028+1052397371+1053717281+1055533676+1056987253
3029+1057380323+1056530804+1054616877+1052012168+1049331800+1047271543
3020+1046108196+1045434554+1044532400+1043047294+1041379594+1040466632
3012+1041062504+1043150134+1046079991+1049182720+1052071583+1054489478
3003+1056153340+1056799672+1056300885+1054758090+1052480641+1049749684
2995+1046578779+1042799914+1038300017+1032992684+1026650362+1018915412
2986+1009302159+997063731+981418786+962403907+941726701+922722566+909052562
2976+902711263+902789864+906189793+909855009+912710295+915747406+920273141
2966+926090070+931492569+934751732+935096132+932423758+926870325+919156417
2956+911260428+906334844+907328262+915201036+928342705+943604109+957863846
2946+969070163+976435003+979955616+979722243+975445358+966358073+951635492
2936+931394333+907527483+883277988+861770194+844954611+833590069+827499219
2927+825726121+827075898+830893328+837164340+845895202+856659716+868644497
2917+880901664+892658189+903527653+913394745+922172614+929764112+936133999
2907+941329794+945504926+948930373+951940111+954827566+957672236+960239594
2897+962196628+963401034+963817511+963288473+961661833+959151778+956491300
2887+954747430+954880649+957227362+961282706+966015081+970413097+973774397
2877+975661719+975893365+974711343+972759042+970725583+969063575+967998463
2867+967599958+967826743+968614801+969810382+970891802+970954031+969174218
2857+965285222+959709213+953507145+948159648+945011958+944707339+947107518
2847+951594880+957348302+963588104+969819847+975836956+981540877+986908456
2837+991982735+996656847+1000623484+1003719498+1006154533+1008291601+1010360875
2827+1012379945+1014200753+1015647231+1016677743+1017394874+1017946169
2819+1018468429+1019046969+1019673347+1020269603+1020763402+1021168687
2810+1021621235+1022229258+1022876614+1023378535+1023793925+1024289259
2802+1024763040+1025000187+1025139865+1025540737+1026205105+1026747382
2793+1026953702+1027020663+1027195197+1027478136+1027762033+1028061536
2785+1028507945+1029199941+1030073251+1030889513+1031373591+1031387725
2776+1031011284+1030516526+1030255780+1030418610+1030839628+1031158445
2768+1031226494+1031278873+1031664908+1032472599+1033458535+1034295007
2759+1034814708+1035027679+1035013417+1034869965+1034686093+1034512455
2751+1034413580+1034523903+1034922536+1035450232+1035786765+1035761694
2742+1035536316+1035438976+1035632824+1035972875+1036220702+1036372404
2734+1036683227+1037321437+1038076557+1038514843+1038446667+1038117489
2725+1037869534+1037757228+1037619085+1037373049+1037091837+1036891465
2717+1036849382+1036950240+1037115309+1037354694+1037784473+1038388020
2708+1038906953+1039098308+1038995084+1038843254+1038845236+1038968287
2700+1039006596+1038850992+1038638661+1038554176+1038597346+1038661237
2691+1038737728+1038918529+1039243614+1039630224+1039961897+1040201089
2683+1040369676+1040430241+1040308598+1040066208+1039939320+1040114558
2674+1040533209+1040958768+1041187664+1041178966+1041019462+1040794723
2666+1040534744+1040309110+1040255835+1040405619+1040577531+1040596781
2657+1040531035+1040557576+1040683824+1040757117+1040711133+1040676469
2649+1040794787+1040983007+1040984734+1040704482+1040363344+1040230189
2640+1040318575+1040420968+1040304633+1039858545+1039227561+1038806160
2632+1038920384+1039515552+1040248161+1040832009+1041233456+1041558605
2623+1041830224+1041981990+1042063469+1042239026+1042519662+1042745552
2615+1042866108+1042948227+1042935755+1042728476+1042457689+1042388298
2606+1042595641+1042926994+1043209292+1043410432+1043662160+1044120400
2598+1044737441+1045243456+1045388634+1045127441+1044615670+1044155320
2589+1044047107+1044290201+1044521208+1044449834+1044221322+1044148924
2581+1044309004+1044608699+1044993007+1045394582+1045732074+1046055305
2572+1046443194+1046778703+1046907637+1046950551+1047164034+1047537150
2564+1047767069+1047651694+1047324370+1047020774+1046789448+1046586262
2555+1046488154+1046602826+1046912818+1047348226+1047810303+1048071880
2547+1047901119+1047295846+1046449717+1045668886+1045360494+1045720307
2538+1046401751+1046895166+1047147854+1047412948+1047717184+1047878351
2530+1047784145+1047385320+1046719353+1046057351+1045707260+1045669014
2521+1045732970+1045782407+1045833827+1045991861+1046418443+1047095410
2513+1047656874+1047742638+1047473322+1047365174+1047806210+1048663211
2504+1049342161+1049298927+1048571179+1047710021+1047201128+1047104108
2496+1047202279+1047277875+1047223257+1047041943+1046833833+1046754976
2487+1046977988+1047661735+1048841455+1050211825+1051167702+1051373702
2479+1051231913+1051400563+1051914380+1052191179+1051819023+1050981528
2470+1050213296+1049935347+1050099072+1050264269+1050171534+1050013180
2462+1049955684+1049806029+1049440077+1049155859+1049289526+1049713102
2453+1049935027+1049655350+1049103224+1048758441+1048826809+1049152341
2445+1049541126+1049875101+1049984784+1049786906+1049522579+1049495526
2436+1049598622+1049466490+1049052315+1048641786+1048396901+1048323289
2428+1048549946+1049122219+1049668269+1049738812+1049355592+1048907393
2419+1048649780+1048509590+1048269182+1047842217+1047382889+1047101998
2411+1047027809+1047046037+1047138132+1047468845+1048173889+1049091456
2402+1049808715+1049977173+1049525521+1048684828+1047927917+1047682264
2394+1047933097+1048281142+1048423762+1048381936+1048339981+1048464886
2385+1048762086+1049017076+1049043490+1049000192+1049214826+1049662257
2377+1049837175+1049353609+1048571051+1048243472+1048484008+1048666409
2368+1048609808+1049035175+1050330527+1051663292+1052008075+1051450448
2360+1050817610+1050498217+1050276037+1049940271+1049429460+1048696660
2351+1047899648+1047356923+1047164994+1047191919+1047403931+1047909114
2343+1048538754+1048865630+1048849641+1048839536+1048945190+1048974290
2334+1048912893+1048935469+1048974610+1048682781+1047882444+1046787081
2326+1045807989+1045332098+1045495248+1045973506+1046271985+1046348732
2317+1046568674+1047059531+1047546359+1047780755+1047790157+1047731126
2309+1047748970+1047931434+1048217315+1048395238+1048284915+1047924143
2300+1047561005+1047476520+1047716416+1047948382+1047743342+1047140563
2292+1046774674+1047215135+1048232088+1048927219+1048687642+1047886026
2283+1047480677+1047966929+1048941225+1049708305+1049970970+1049777505
2275+1049203314+1048398372+1047719039+1047563947+1048102962+1049107573
2266+1049990412+1050205750+1049714125+1048923509+1048265345+1048006582
2258+1048238612+1048721858+1048979598+1048909247+1049031274+1049742329
2249+1050656699+1051184202+1051411627+1051745602+1052051437+1051981150
2241+1051839233+1052191691+1052811865+1052822098+1051845692+1050507427
2232+1049748661+1049952487+1050796441+1051710107+1052225331+1052116863
2224+1051601383+1051120375+1050602976+1049467002+1047812541+1046942877
2215+1048040414+1050712852+1053356637+1054789172+1055074477+1054764805
2207+1054102420+1053381068+1053266204+1053895141+1054175713+1052823250
2198+1050037867+1047741615+1047976523+1050910537+1054538084+1056678285
2190+1056979067+1056501512+1055916257+1055024912+1053840331+1053109514
2181+1053393028+1054275355+1054954753+1055196632+1055362660+1055700728
2173+1055877820+1055278175+1053747404+1051881891+1050580144+1050517596
2164+1051858100+1054070634+1056268203+1058012201+1059399776+1060362560
2156+1060750193+1060827835+1060882900+1060630149+1059538751+1057936094
2147+1057345403+1058828655+1061209776+1062271307+1061481074+1060117931
2139+1059186549+1058622783+1058130838+1057704768+1057446197+1057227981
2130+1056602498+1055263273+1053627999+1052607912+1052713502+1053541084
2122+1054113484+1053749643+1052654024+1051531224+1050742591+1050175435
2113+1049767720+1049728707+1050223593+1051054437+1051759928+1052047216
2105+1052006348+1051855989+1051710683+1051605924+1051476798+1051201406
2096+1050879775+1050782755+1050901264+1050964836+1050974365+1051268112
2088+1051983068+1052742090+1053021959+1052750468+1052357655+1052165149
2079+1051985691+1051508967+1050871653+1050675821+1051516642+1053379085
2071+1055380056+1056313868+1055694588+1054224767+1053233907+1053544794
2062+1054746322+1055731490+1055951177+1055750805+1055429877+1054615598
2054+1052974696+1051092426+1050039466+1050200953+1051043309+1052068129
2045+1053173853+1053835279+1053323636+1052150248+1051700961+1052200197
2037+1052743177+1053098961+1053614697+1053803429+1053019017+1052080408
2028+1052502578+1054424435+1056460837+1057530298+1057885826+1058034522
2020+1057603783+1056282977+1055222214+1055961474+1058080889+1059393317
2011+1058551153+1056576084+1055560794+1056269610+1057664092+1058587927
2003+1058849505+1058796486+1058940961+1059756711+1060999875+1061712593
1994+1061477749+1060926134+1060562420+1059986694+1058858842+1057738536
1986+1057445173+1058116449+1059149647+1059936681+1060671656+1062403055
1977+1065847881+1070021350+1072794133+1072992394+1071282613+1069026652
1969+1067024723+1065531813+1064652811+1064200391+1063724180+1062943029
1960+1061756018+1060133344+1058509198+1057760473+1058248005+1059284273
1952+1059886220+1059723838+1059230614+1058970252+1058946205+1058793799
1943+1058759391+1059662185+1061344338+1062416869+1062058335+1060904773
1935+1060069644+1059955036+1060274621+1060618957+1060465080+1059166787
1926+1056561886+1053213889+1049758126+1046557866+1044143488+1043219461
1918+1043888242+1045440374+1047303137+1049421210+1051462856+1052646605
1909+1052598574+1051731916+1050581168+1049406436+1048402849+1047613065
1901+1046773395+1045866381+1045535092+1046374506+1048087677+1049821570
1892+1051127282+1052136881+1052991964+1053509746+1053546648+1053402301
1884+1053440674+1053505013+1053201609+1052669821+1052544980+1053199691
1875+1054297356+1055081129+1055192091+1055149177+1055673739+1056505797
1867+1056707640+1056300309+1056069366+1056295512+1056552293+1056377311
1858+1055923932+1055834330+1056477849+1057535862+1058414864+1058858202
1850+1058959827+1058713216+1057954705+1056877826+1056191585+1056242174
1841+1056582352+1056970049+1057583892+1058363572+1058892482+1058842981
1833+1058223574+1057419527+1057126292+1057679889+1058550833+1059087226
1824+1059154124+1059068360+1059207974+1059615625+1060066766+1060397287
1816+1060586148+1060643899+1060632067+1060632451+1060635777+1060662382
1807+1060850475+1061241242+1061660341+1061819654+1061513500+1060884307
1799+1060317919+1059923123+1059622469+1059566444+1059894535+1060236056
1790+1060114541+1059701070+1059420306+1059422544+1059487075+1059253318
1782+1058737711+1058301663+1058082744+1057939868+1057866511+1058024992
1773+1058493465+1059019114+1059132251+1058825777+1058494361+1058273587
1765+1058070912+1057980160+1058158211+1058523204+1059058894+1059955676
1756+1061052638+1061842870+1062177676+1062350483+1062694755+1063260887
1748+1063791845+1064233648+1064788397+1065431531+1065972721+1066403013
1740+1066700469+1066730784+1066671945+1066933266+1067561947+1068018269
1731+1068010466+1067792826+1067717103+1067913318+1068205402+1068463526
1723+1068761366+1069139470+1069677398+1070545847+1071380464+1071561970
1714+1071473072+1071598104+1071892555+1072256396+1072603290+1072796371
1706+1072897868+1072992394+1072968283+1072692508+1072076554+1070615750
1697+1068053764+1064393408+1059676959+1054038785+1046737196+1036453307
1689+1023019938+1004298294+966650733+889720912+791084077+713170943+662408446
1679+633208872+626020805+640464349+666865749+692542727+716015548+742902625
1669+772526990+797411561+816158212+833191051+851606221+869733848+884081779
1659+894319236+901849209+908062022+915869433+928177316+938833489+943360184
1649+946070867+950485383+956206188+960168028+961668357+961913369+962016529
1639+962951173+965931107+971970281+978997053+983474694+985733852+987601923
1629+989987713+992793817+995479941+997887859+1000305882+1002657776+1004481909
1619+1005952434+1007840268+1010197661+1011857494+1012427144+1012527170
1611+1012614917+1012786957+1012881994+1012628284+1011803388+1009988208
1602+1006306747+1000111266+992148572+984521259+979068555+975609339+972214718
1592+967876628+964231750+964078385+968747892+977155907+986961347+996169827
1582+1003741243+1009358376+1013346374+1016732681+1020563413+1024218588
1574+1026188349+1026663793+1026630600+1026571185+1026132004+1024679706
1565+1022077428+1018803746+1015529617+1012205219+1007353504+999839648+992019446
1555+984535713+976563233+968784091+962709038+959570877+959861491+963250228
1545+969085832+976388187+983920846+991829435+1000361843+1006531550+1009571986
1536+1011766677+1014886035+1018889319+1022210455+1024248647+1025696980
1527+1027103166+1028331939+1029141422+1029763260+1030541788+1031476367
1519+1032551456+1033951311+1035592660+1037057045+1038065045+1038530320
1510+1038368130+1036927664+1030453018+1013808068+991409888+970566014+956452671
1500+954496406+966585242+986128328+1002278009+1010865227+1014148694+1013704844
1490+1008842959+999589582+989661733+983299584+981957865+985114125+991129316
1480+997741082+1003367552+1007818267+1011333508+1013568939+1013387561
1472+1009436209+1001569320+990258116+975130250+956583396+939191192+928933716
1462+925049773+922026157+914971756+902437470+891472521+888439823+888729221
1452+886511250+879768887+871339191+867487161+871555360+880862843+892102417
1442+904476814+917609273+930294621+939940300+941267182+931764635+917793657
1432+908325710+910084481+923811597+942378917+958994512+972207044+982233769
1422+988885635+992424155+992586346+987353265+975918244+960853374+946710100
1412+938997663+941181993+951407491+964504328+976603269+986324863+993553798
1402+998967297+1003749429+1008649814+1013386666+1017357205+1020576716
1394+1023206112+1025024170+1025910335+1025923318+1024662694+1020678021
1385+1011266994+993060830+964503177+930190374+901803609+890385472+897846821
1375+917752981+940838809+959896154+973046457+981950574+987826534+990398114
1366+989410132+986200982+984167074+986607866+993032754+1000204769+1005793889
1356+1009297170+1011045005+1011237255+1009734753+1006276688+1000560936
1347+992101692+980388977+965689740+949686261+935363145+926460499+925727699
1337+932533058+943629244+956038433+968033767+978700301+987601156+994624666
1327+999796030+1003172488+1005030199+1006218169+1008092316+1011705152
1319+1016863789+1022221583+1026572336+1029722776+1032070512+1033923426
1310+1035317780+1036137879+1036267645+1035637813+1034106914+1031488902
1302+1027956522+1024318487+1021729895+1021130058+1022748639+1025835955
1293+1028930881+1030636890+1030154538+1027142818+1021424956+1013165444
1285+1003313190+993653568+986220040+982379715+982254810+984982249+989531200
1275+995266266+1001826164+1008722148+1015289209+1021002531+1025701713
1266+1029544916+1032815656+1035627580+1037726530+1038620881+1037856743
1258+1035095535+1030064937+1022656863+1013173055+1002496032+991968026+982911695
1248+976026136+971056104+966885193+961923282+954606217+943752486+928610230
1238+908862103+884941146+858472082+832296444+809847739+794162950+786984924
1228+788288845+796450824+809026297+823680510+838736170+853199093+866517982
1218+878389562+888712017+897527492+904866877+910661358+914842502+917477206
1208+918826599+919455856+920324497+922438924+926074273+930280168+933197938
1198+932960152+928673738+921069065+912369221+905310280+901972515+903130746
1188+908266551+916011989+924718164+932871829+939446693+944455099+949167712
1179+955136854+962685822+970641225+977525697+982461833+984706601+982977185
1169+976369768+966504467+958021560+955515598+959391675+965391580+968771811
1159+968661232+967979277+969460290+972470923+973683453+969879070+959615902
1149+943435779+924192963+907169973+898155789+900061146+911217770+927066028
1139+943322770+957668206+969364421+978379820+985003226+989530752+991717385
1129+990441156+984194191+972650830+958363273+946444174+941580307+944973073
1119+954061957+964699647+973367321+977964303+977348797+970700896+957992972
1109+941613436+926992927+920188464+923863209+935644293+950435050+963939027
1099+974216264+981114103+985202191+987232773+988177137+989315926+991737467
1089+995478278+999359343+1001794379+1001626624+998202967+990943781+979481259
1079+965020255+951578060+944664425+947558404+958816780+973672836+987634732
1069+998717360+1007034367+1013254662+1017771763+1020912801+1023244869
1061+1025332882+1027387255+1029345504+1031152370+1032813737+1034331269
1052+1035738287+1037100343+1038397741+1039525337+1040474243+1041395455
1044+1042443235+1043654358+1044985524+1046371947+1047756261+1049085636
1035+1050253332+1051094921+1051582772+1051945591+1052424168+1052952439
1027+1053258530+1053259937+1053243244+1053652302+1054718054+1056253494
1018+1057840161+1059213986+1060377717+1061366594+1062083150+1062412136
1010+1062390711+1062208055+1062016892+1061715663+1060923896+1059091959
1001+1055401353+1048446722+1035867924+1013800585+977216793+923881117+860986422
992+806365244+778302476+781744296+805633531+834035198+858222912+878438616
982+897822454+917535981+936639182+953891132+968610644+980588646+989946078
972+996858306+1000980611+1001509266+998538477+994061348+990199149+985800238
962+976149762+957703638+932950814+909537279+894754708+891476614+898322009
952+911769129+927922966+943704839+957361413+967986248+974600508+976000107
942+972153641+966038488+962983534+966709571+976118040+986825569+995295046
932+1000622653+1003296433+1003799122+1002492707+999993269+997296976+995514733
922+995196555+995591415+994796194+991316577+985827802+981071444+979708684
912+982234344+986622192+989430342+987132043+976540721+954633270+920156231
902+877740032+839636150+819857708+824404548+847434479+876979987+903613737
892+924266832+940289177+953778891+965388702+974088418+977950552+975208020
882+965526782+950974450+935145377+920569382+907699203+897189424+891854334
873+894749144+905812393+921525578+937614629+951588996+963259501+973587264
863+983177238+991765351+998889975+1004570743+1009183841+1013021289+1016225515
853+1019013584+1021638119+1023963471+1025297451+1024806594+1021680329
844+1014357892+999578326+972580031+929387223+871241339+808361417+757848858
834+734736425+743123015+775089680+817158473+857725083+890515365+914133493
824+930014945+940369121+946882588+950538466+952037579+951925849+950189974
815+945802254+937103626+923767596+909085435+899320671+899394603+909093557
805+923772905+937846403+946780963+947055779+936957808+919236041+902258651
795+895938905+904623272+924103106+945899019+963727910+975976443+984006163
785+989727415+994392253+998520058+1002335824+1006025727+1009514746+1012312728
775+1013830516+1013655982+1011482588+1007391685+1002537731+998896371+997820834
765+999220816+1002274747+1006303933+1010826598+1015400747+1019604531+1023016996
755+1025481770+1027426076+1029439646+1031542881+1033300309+1034488216
747+1035221463+1035567846+1035289320+1033804917+1030290444+1023948697
738+1014273151+1001275317+986060088+971469191+961476299+958961639+963741724
728+972976682+983362324+992574834+998884091+999940697+992495529+974796851
718+950712680+930142408+922740793+930143559+944309089+953404432+948364624
708+924735624+883428411+833710113+792632116+775475203+785338969+813500164
698+848230019+881592254+910161483+933177600+950936460+963274339+968991050
688+967403487+960553103+953280807+950559571+954329354+962687165+972201224
679+980720394+987854355+993846266+998828578+1002796367+1005815122+1008170661
669+1010350195+1012558061+1014262918+1014999236+1014814021+1014087361
660+1013154764+1011858965+1009750614+1006553103+1002161802+996427503+988755486
650+977565797+960769145+937620960+909929709+880972782+853100090+826314894
640+799414323+772569584+748687193+732654103+729023295+739363593+761522260
630+791107293+823357024+854579760+882759886+907159932+927675906+944493728
620+958044200+969113716+978650415+987104287+994272528+1000173367+1005492979
611+1010663832+1015124716+1018168478+1020109842+1022051846+1024797896
602+1028277194+1031742038+1034434749+1036267965+1037747699+1039226794
594+1040533721+1041318453+1041482562+1041120000+1040038387+1037380531
585+1031498752+1020180960+1002351302+981333342+965460332+962554010+973306820
575+990804359+1006752963+1017695720+1024953883+1030785138+1036041627+1040487098
565+1043849229+1046079160+1047267194+1047800582+1048355458+1049560249
557+1051602470+1053899554+1055335607+1055352107+1054686908+1054638558
548+1055714542+1057197283+1057989177+1057756956+1057032214+1056325188
540+1055687105+1055011481+1054241843+1053475978+1053057006+1053044087
531+1052750085+1051458187+1049173511+1046032153+1041410229+1034005673
523+1021916836+1000882887+962322747+898402848+817360764+749294257+724025889
513+746707456+798262615+853366144+896816756+925546961+941031123+944090746
503+935317545+918364842+901444116+893479375+899315363+917866758+942957841
493+967257349+986675978+1001303905+1012803777+1022006437+1029165917+1034982974
483+1040125942+1044397007+1047428106+1049611349+1051695269+1053841354
475+1055330235+1055170922+1053402493+1051559428+1051036913+1051784935
466+1052839238+1053538398+1054088478+1055027598+1056509059+1058374125
458+1060468853+1062307697+1063197380+1063405107+1064312505+1066781436
449+1069776337+1071234262+1069987453+1066915295+1064408054+1064343715
441+1066189722+1067262956+1064581117+1057191590+1048372406+1043810792
432+1046305114+1053958137+1062871911+1069928998+1072992394+1071542719
424+1065395588+1056981305+1044937877+1021524470+985257705+949884779+924611295
414+910400357+908862487+920959893+941722352+961954045+976024793+985675013
404+994934977+1005167127+1017151460+1032830557+1049547905+1057097192+1052271571
394+1043495556+1038531855+1039838655+1046178291+1054999522+1064145773
385+1071321561+1072992394+1069843234+1061617683+1052498165+1046444920
377+1047320789+1057601224+1072992394
##END=
