##TITLE=X8404
##JCAMP-DX=5.0
##DATA TYPE=LINK
##BLOCKS=1


$$ === CHEMSPECTRA SPECTRUM ORIG ===
##TITLE=X8404
##JCAMP-DX=5.00
##DATA TYPE=INFRARED SPECTRUM
##DATA CLASS=XYDATA
##ORIGIN=ComPlat
##OWNER=
##XUNITS=1/CM
##YUNITS=TRANSMITTANCE
##XFACTOR=1
##YFACTOR=9.5356811e-010
##FIRSTX=3997.453
##LASTX=373.96442
##MAXX=3997.453
##MAXY=1.0238859607860644
##MINX=373.96442
##MINY=0.36611804174278845
##NPOINTS=2559
##XYDATA= (X++(Y..Y))
2559A020051406A019497470A019038544A018835334A018826020A018822145A018725009
2552A018651626A018784265A019060921A019139367A018788953A018235954A017953235
2545A018201700A018870275A019577479A019861323A019580104A019169121A019208125
2538A019766750A020409196A020708230A020535835A020070096A019659238A019500533
2531A019502658A019561039A019725370A019954333A019960709A019505908A018779890
2524A018299399A018273709A018355905A018211764A018020868A018194762A018783578
2517A019476717A019958646A020096161A019956208A019737622A019629860A019680428
2510A019762249A019674802A019314574A018834646A018569929A018705507A019082861
2503A019351766A019391771A019469779A019773251A020160419A020448826A020609219
2496A020688477A020706167A020562776A020041593A019166870A018446853A018373845
2489A018928906A019716369A020350815A020665287A020754485A020838244A020931067
2482A020905377A020828931A020876936A020963196A020774925A020288620A019893826
2475A019857697A019904515A019734309A019475092A019413023A019569665A019943394
2468A020702291A021634958A022109948A021757159A020979385A020508270A020511145
2461A020713605A020813991A020492331A019529161A018543676A018576055A019200062
2454A019695992A019951895A020029717A019933456A019717307A019528223A019348141
2447A018928969A018335215A018185199A018799080A019807942A020728419A021376867
2440A021720905A021689589A021348238A020915190A020423385A019790627A019280821
2433A019231440A019451902A019674052A019999713A020605906A021332674A021763285
2426A021556762A020891813A020519271A020768424A021057894A020725607A019728120
2419A018640374A017962924A017942422A018589431A019524723A020292058A020760173
2412A021069770A021306296A021370991A021231600A021038454A020783988A020210549
2405A019276820A018424788A018088188A018317963A018958972A019762124A020457952
2398A020951507A021333424A021607830A021666774A021494880A021197722A020937880
2391A020919566A021164593A021312047A020982385A020104162A018914905A018137506
2384A018604058A019907203A020920503A021059019A020630658A020451826A020563088
2377A020432824A019787065A018854398A018289023A018446665A018981725A019666989
2370A020512895A021186720A021151466A020462327A019915704A019899640A019938331
2363A019696117A019437651A019447902A019711119A020125915A020635159A021149904
2356A021522133A021606017A021331612A020829743A020399633A020282120A020486892
2349A020883499A021400182A022000436A022584564A022985233A022919913A022024001
2342A020381256A019089987A019006228A019440838A019529473A019189936A018787516
2335A018615872A018561678A018185699A017435240A017214153A017960111A018857961
2328A019238753A019305636A019581354A020082972A020650661A021272042A021838981
2321A022010062A021514507A020514833A019638173A019362892A019448402A019452277
2314A019284696A019120990A019064672A019168183A019557977A020255742A021070270
2307A021715092A022004124A021866109A021266917A020369442A019654862A019522535
2300A019908391A020470141A020897251A021068957A021060144A021027328A021045330
2293A021003700A020763548A020352628A019839758A019298010A018957785A018979537
2286A019192186A019464779A019971460A020752047A021511882A022058505A022464050
2279A022795900A022897348A022538058A021724718A020731295A019935769A019696054
2272A020159606A020967071A021281919A020782738A020379756A020711042A021370178
2265A021876235A022294656A022927102A023695625A024125985A023975218A023584550
2258A023372526A023262702A022938040A022542934A022607691A023079494A023362963
2251A023088182A022468113A022095197A022242838A022612192A022930915A023376589
2244A024109296A024793497A025017272A024809624A024523842A024430894A024582286
2237A024966954A025544831A026128458A026388487A026123020A025568771A025219670
2230A025275863A025517390A025726914A025884994A025827612A025255799A024335446
2223A023764883A024090356A025281864A026820035A027984540A028406024A028373771
2216A028337642A028310576A028057173A027576307A027069626A026683645A026471559
2209A026438305A026597760A026974052A027449355A027727199A027627438A027352032
2202A027326529A027805770A028661365A029526774A030128466A030349366A030083086
2195A029369507A028583919A028088176A027836711A027607685A027325279A026966302
2188A026444806A025728601A024881257A023933089A022832779A021519757A020015027
2181A018464105A017094515A016158285A015876817A016218417A016723286A016881116
2174A016718473A016726599A017282473A018374095A019717244A020993574A022110261
2167A023188006A024195555A024813187A024870881A024774807A025266175A026688021
2160A028544852A029976199A030709343A031248216A032052180A032993285A033733118
2153A034159353A034348499A034450072A034616341A034800799A034767920A034487014
2146A034304994A034548833A035147775A035743341A035926612A035383926A034212483
2139A033113549A032856082A033528845A034615153A035559508A035947989A035560259
2132A034686661A034027338A033973019A034323496A034774109A035239160A035704900
2125A036123259A036443669A036598312A036530742A036292528A036048250A035964991
2118A036036124A036010996A035709213A035418993A035635267A036351972A036996168
2111A037135809A036874655A036562870A036480986A036733952A037116932A037192065
2104A036784207A036258336A036092443A036399039A036996856A037653554A038122294
2097A038243432A038124607A038000718A037921146A037786319A037587547A037420716
2090A037377523A037515164A037815572A038143859A038345756A038358320A038205428
2083A037969152A037751378A037587109A037450469A037343145A037268136A037202441
2076A037213193A037373273A037457407A037090304A036351972A035833476A035889420
2069A036221395A036379037A036368474A036525679A036943600A037290139A037230257
2062A036854840A036565120A036581185A036714637A036675570A036449733A036250710
2055A036214456A036288902A036350409A036301904A036114758A035876606A035721902
2048A035632142A035418243A035000446A034627842A034667347A035142962A035603201
2041A035584324A035147713A034772296A034731729A034806550A034668534A034334560
2034A034084594A034076468A034222297A034324246A034144538A033497529A032527983
2027A031767399A031625320A031964108A032400219A032781199A033111361A033271816
2020A033142427A032861521A032700190A032737882A032798326A032679188A032388905
2013A032154254A032182570A032411533A032541110A032318835A031764836A031158456
2006A030847046A030960434A031177646A030900302A029850685A028460655A027516488
1999A027456169A028077175A028823821A029219115A029080474A028497347A027742513
1992A027171887A027050123A027372784A027925908A028540414A029158483A029649163
1985A029791304A029507272A028958086A028365832A027873778A027548366A027370909
1978A027217142A026952863A026592510A026298477A026162274A026071889A025897057
1971A025692097A025592524A025625090A025727976A025837676A025866554A025714037
1964A025367999A024958640A024696861A024756930A025144911A025648217A025982504
1957A026045574A026025197A026165587A026407552A026402364A025981879A025466885
1950A025333932A025669845A026134021A026413677A026480310A026370235A026004132
1943A025384000A024739991A024297629A024044289A023853705A023700563A023631118
1936A023609803A023512979A023315707A023181505A023215446A023208071A022853656
1929A022197771A021638583A021481753A021677588A021986372A022229274A022341099
1922A022349225A022386667A022562999A022744331A022659884A022279905A021834480
1915A021461188A021134527A020910002A020892500A020971384A020881499A020559463
1908A020239677A020106725A020017778A019767687A019477280A019394958A019444776
1901A019379019A019217501A019118553A019020979A018775952A018459104A018306462
1894A018480169A018924343A019310261A019205125A018470480A017434990A016577082
1887A016111655A015909945A015713923A015383449A014973841A014564545A014057051
1880A013275339A012234974A011112661A009932530A008439301A006292999A003330044
1873I99682388I95649689I91398466I86927343I82423091I78437710I75570766I74105102
1865I73937709I74690042I75863173I76996799I77725881I77695940I76439112I73395961
1857I68181255I60860377I51929258I42120290I32351328I23729680I17346469I13825265
1849I12863470I13160315I12969857I10977635I06876116I01305245H95349332H90022614
1841H86104928H84278537H85095378H88635647H94319280I01124350I07975613I14090794
1833I19179861I23336199I26679696I29072712I30082387I29177599I26060940I20926180
1825I14465773I07653390I01297307H95498536H89617319H83113657H76513484H71324219
1817H68869758H69315620H71843589H75476619H79554073H83667469H87542963H91060542
1809H94176389H96741925H98542063H99577803I00141053I00469277I00517658I00347889
1801I00658048I02618267I07039571I13715565I21549812I29295800I36226322I42229240
1793I47467323I52089463I56173480I59750379I62826534I65413259I67549747I69310568
1785I70763355I71855477I72398787I72295463I71762842I71192591I70773106I70388313
1777I69905447I69343197I68576112I67104260I64455465I60785744I56915938I53885101
1769I52523199I53174146I55636421I59438407I64110489I69086794I73595983I76961608
1761I78970519I79844617I79951441I79586900I78923139I78054042I77028178I75852422
1753I74577592I73430277I72750577I72738075I73342142I74466643I76191210I78620793
1745I81474048I84028207I85694518I86571116I87276257I88336125I89854294I91634054
1737I93463133I95306401I97261244I99318785A001282691A003009884A004580871
1730A006080663A007385246A008350416A009080435A009817392A010660548A011527770
1723A012294105A012873795A013257275A013532243A013817775A014169626A014543856
1716A014792508A014727064A014305642A013733578A013285528A013077505A013068941
1709A013184892A013357536A013552745A013807399A014190504A014694310A015175363
1702A015439018A015430954A015329631A015345507A015471146A015576096A015672981
1695A015898194A016279299A016696845A017040321A017272785A017389298A017439678
1688A017557941A017817970A018048996A017987427A017671579A017462931A017592883
1681A017904792A018113816A018134631A018138568A018381471A018890777A019322638
1674A019320638A018965598A018642250A018552802A018600120A018652563A018717758
1667A018855836A019038419A019160057A019149994A018997227A018714445A018394972
1660A018203763A018204638A018306212A018444540A018632373A018827583A018951034
1653A019020229A019095675A019161182A019190623A019254318A019438463A019732683
1646A020071284A020384694A020561213A020524272A020428136A020551337A020888562
1639A021109087A021041892A020907127A020961258A021186220A021433998A021636583
1632A021778036A021817728A021738907A021636583A021686776A021988685A022443110
1625A022809464A022903787A022773335A022665510A022763396A022987358A023153752
1618A023230636A023256951A023135250A022776210A022360351A022158579A022143452
1611A022054755A021797038A021505256A021270417A021064894A020905314A020844870
1604A020810804A020623845A020224988A019776126A019493844A019461466A019622421
1597A019831632A019852884A019501845A018913467A018462292A018297649A018173010
1590A017865413A017545877A017550565A017911481A018336528A018640999A018942408
1583A019326076A019598231A019574853A019378457A019246067A019219064A019156369
1576A018957597A018690942A018514173A018490233A018549114A018594682A018518111
1569A018207014A017738024A017427364A017506373A017901855A018411911A018865087
1562A019090237A019025105A018878213A018937220A019190311A019355329A019340015
1555A019445214A019905015A020423823A020559463A020455576A020683352A021384430
1548A022124575A022573937A022758583A022677199A022295281A021909301A021961369
1541A022472489A023042490A023342523A023321271A023081431A022844968A022915350
1534A023384653A023913087A024005597A023549734A022966169A022775585A023097558
1527A023672560A024298692A025004271A025695910A025992006A025753979A025498013
1520A025791546A026435992A026743027A026464121A025998756A025824112A026069889
1513A026551943A027029121A027444480A027833398A028008793A027727199A027258272
1506A027260209A027874403A028441653A028310639A027503799A026494124A025722538
1499A025366623A025246360A024969892A024385452A023793573A023546171A023598614
1492A023651307A023604615A023643056A023882333A024139362A024142487A023845954
1485A023448097A023189193A023189318A023393279A023639806A023853642A024110233
1478A024386202A024378826A023842079A023025800A022497366A022579250A023185818
1471A024082043A025003208A025647405A025826050A025579710A025066465A024501840
1464A024205744A024479087A025362435A026580134A027696383A028374271A028588670
1457A028517787A028198564A027499236A026470934A025455008A024711488A024146050
1450A023562360A023034801A022799713A022826716A022824403A022705014A022702202
1443A022951229A023323333A023733942A024244248A024755930A024922199A024532968
1436A023870707A023524606A023802512A024397578A024724552A024508153A023926901
1429A023312270A022882847A022670073A022518994A022240400A021856295A021570138
1422A021455688A021341175A021004138A020308060A019200749A017804719A016443005
1415A015322005A014274326A013075505A011901436A011137539A010787312A010374329
1408A009496294A008350041A007621835A007830733A008776401A009659374A009787826
1401A009210762A008590380A008536687A009238952A010512907A011929064A013017686
1394A013452859A013110071A012100146A010852570A010033916A010139990A011135476
1387A012573574A013928912A014752316A014893957A014695998A014622177A014763568
1380A015035223A015502275A016152285A016756415A017241031A017835035A018686442
1373A019778626A021178469A022827028A024181116A024658607A024443958A024331196
1366A024765494A025493825A026135021A026644766A027125069A027532240A027724448
1359A027636876A027357908A027138008A027272211A027827522A028525538A028995965
1352A029120416A029077412A029102414A029247368A029386946A029410261A029299499
1345A029056034A028790255A028882515A029628598A030595018A030841796A030076523
1338A029118916A028890078A029389134A030032143A030507258A030757474A030527261
1331A029634036A028584857A028333329A029327627A031065446A032536734A032965470
1324A032348026A031474491A031226213A031696453A032161818A031950794A031136078
1317A030337489A030125716A030725158A031993549A033450024A034474638A034686849
1310A034144101A033276567A032744320A033053854A034005148A034735917A034602402
1303A033850943A033160179A032745695A032345401A031982360A032076746A032646934
1296A033034790A032665999A031666325A030733221A030723407A032068120A034299056
1289A036426605A037698184A037701122A036449920A034970943A034851805A036501363
1282A038641602A039873989A039925120A039122593A037578733A035394365A033062605
1275A031112576A029834371A029588844A030613583A032244827A033321134A033685550
1268A034342498A035951677A037941211A039182349A039027395A037726562A036283464
1261A035843790A036666632A037707185A037640490A036181515A034125099A032364215
1254A031423860A031693578A033108486A034587213A034749231A033372327A031615069
1247A030769975A031071384A031714955A031926291A031764961A031652573A031443363
1240A030554576A028978838A027586246A027143571A027440354A027743013A027685194
1233A027370534A027134383A027454106A028383209A028982214A028259133A026643891
1226A025450758A025052838A024727302A024125360A023773133A024052415A024527280
1219A024573410A024245436A024171428A024735241A025721100A026683520A027239394
1212A027038435A025974191A024600601A023937777A024506153A025681471A026391800
1205A026402239A026389300A026744714A027059562A026958676A026722712A026735213
1198A026863915A026833599A026878729A027454981A028319140A028628362A028293262
1191A028383022A029556590A030757286A030335989A028158997A025801172A024748617
1184A025049901A025628215A025562395A024938326A024347510A024003909A023886771
1177A024386952A026010383A028474720A030603332A031068758A029299686A026225219
1170A023888834A023778947A025892369A029234304A032111374A032668061A030882113
1163A028986652A028584357A029051096A029608533A030584955A031786213A032019927
1156A030793540A028987339A027829085A027959287A029190237A030776601A032121188
1149A033309258A034796486A036564683A037783819A037459220A035318232A032287644
1142A030188785A030342553A032242952A034039589A034549834A034253238A034037714
1135A033984271A033833254A033633169A033377015A032886023A032471790A032766760
1128A033699239A034563398A035094019A035498314A035800035A036252086A037423591
1121A038839561A039004517A037695871A036334720A035690023A035116147A034115035
1114A033119612A032699315A032915089A033429959A033858069A034043402A034099033
1107A034166291A034139288A033713803A032786887A031742646A031061695A030716282
1100A030347303A029951009A029970324A030654025A031619070A032146128A031904539
1093A031305160A031030942A031368604A031946419A032193634A032001862A031592879
1086A031069758A030537949A030359242A030719407A031193835A031171020A030504696
1079A029654663A029245993A029442765A029859124A030148156A030334989A030445439
1072A030300173A029870250A029523586A029704419A030456440A031396232A032151254
1065A032705191A033107485A033174930A032815078A032278706A031913602A031931854
1058A032348463A032912526A033210059A033044478A032599554A032196446A032031928
1051A031989548A031775212A031304847A030739097A030259731A030021142A030084774
1044A030294672A030430875A030430375A030341740A030127029A029578592A028651427
1037A027766641A027317153A027283087A027467232A027735387A027920533A027790143
1030A027286587A026671956A026357984A026479935A026779156A026968802A027074939
1023A027296401A027661441A028020294A028159747A027944098A027476108A026930548
1016A026297102A025613526A025199792A025243610A025540018A025807485A025922123
1009A025920873A025928186A025928311A025761042A025365061A024665670A023519793
1002A022269716A021672399A021718780A021822479A021702278A021401057A021040579
995A020685915A020286683A019822131A019361080A018810893A017967924A016855738
988A015675607A014498038A013330033A012157215A010884948A009416785A007465192
981A004599811A000932590I96717120I91236198I83788931I74677916I63527737
974I47849178I23901449H89405170H45731619G95136422G38704200F78588693
967F18019886E59436799E07640625D69607765D45270305D27079810D09908929
960C98155527C96383642D02925901D14826414D29532896D45936754D63554591
953D80381965D94831011E08505565E24656051E43619663E61110173E74845015
946E86429368E97452345F08284739F19293778F31572208F44918819F56895465
939F66841323F77187287F88702132F97789832G03345075G08175988G13432386
932G18517202G23984249G30894893G38814463G46983497G57377780G72621790
925G88416736G99279696H06755404H13211935H19797106H27411141H35657435
918H42864925H48986419H55613782H62931347H69164291H73911195H78417196
911H83697097H89404357H94358472H98049883I00666362I02766783I05691734
904I10702104I15191604I17089878I18083364I19864937I22765260I25597638
897I27689246I29262859I30538313I31747510I33419134I36137937I39335105
890I41671365I43081398I44185833I45427659I46920325I48522378I50175438
883I51949198I53655763I54988411I56051154I57244475I58690198I59941775
876I60719674I61142721I61293863I61167974I60852314I60558219I60420016
869I60288126I59727126I58218146I55256066I50064550I41312763I27591423
862I08673878H86351580H64225116H47017887H39165325H42771039H56529447
855H76478856H97730097I16293289I30561003I41297886I49889343I56365002
848I60277625I62541315I64499345I66973746I69782058I72299651I74378133
841I76021566I77130064I77774511I78518656I80115959I82018359I83642664
834I85180086I86668376I87927579I88840743I89448624I89853106I90081131
827I90063692I89775472I89475001I89694651I90358162I90853905I91013048
820I90986607I90983232I91061741I91120185I91118372I91164377I91399591
813I91795947I92267062I92895007I93732601I94614886I95439978I96205751
806I96851198I97335877I97717232I98067896I98479567I99123826I99860345
799A000241013A000263953A000080808I99760897I99361977I98986373I98710342
792I98446000I97965134I97047720I95721197I94474996I93758478I93373561
785I92841564I91806324I90166266I87972647I85066448I81050313I75613770
778I68335897I58469799I46623354I35069943I24181668I11965557H96342943
771H78172044H62168137H51265798H43869849H36674798H26779321H15231973
764H06403739H01238789G98986788G99704868H03434784H07628126H05695348
757G90764810G61072504G22705356F87561818F65991666F63780607F80998337
750G05645894G23055208G28784658G25620368G21437653G24632758G36791862
743G54355943G73977941G95672607H23390444H59834627H96978201I22431723
736I35618254I41575730I42189236I36635430I23547472I01556461H69658596
729H31150995G97548878G81193807G86081101H08790755H40397900H70946364
722H96070100I15418754I29020269I37935699I44115700I48895357I52428563
715I54238265I53983487I51198364I44525683I31799641I11673587H85890841
708H60576647H44245016H39928723H40550855H36471900H23875623H06633953
701G92471563G88228778G97508499H17499600H40191940H59542094H73364134
694H80864656H81591300H75458179H62465108H42610584H16445358G85560106
687G52678382G21291449F94369201F73181841F57417273F45691217F36068021
680F27310733F19994793F16300694F18516441F27431246F42274274F62014410
673F86093717G13806365G43529925G73103531H00830181H25690575H46985134
666H64514836H78833430H90759758I00844194I09429525I16810222I23147240
659I28489585I32952895I36745442I40025745I42806867I45024364I46672672
652I47811924I48440619I48429931I47564022I45435035I41104490I33122038
645I20658588I04986843H89262092H76357967H66793340H58420657H48059191
638H34254778H18949762H05662782G95527591G85698371G71771570G51080704
631G24055757F94064979F66515349F47138941F39862381F45140281F59618893
624F77249232F91563451F99451954G04329372G13882436G33108577G60472312
617G90828880H19740662H44487480H63509099H76466167H84092453H87363505
610H86913018H83023084H75752275H64915943H49978842H30113755H04471524
603G72463647G34150381F90768925F44909380F00219529E61031727E31574006
596E14300711E08366581E09752110E13163896E14679471E13784153E13525312
589E18467518E31705336E53017522E79363143F06773133F31643653F51015185
582F63210106F69032754F71423520F72731104F72540645F68982499F61900210
575F53732613F47110750F42518802F39062479F36978935F38148815F43725623
568F51860279F58042280F57204124F45594394F21837186E87427604E46530425
561E04846220D67943236D39798539D21874980D12779061D08707795D05065358
554C99247398C92720921C89171151C89333200C89308948C86246888C83945350
547C89542067D05563445D28173869D52315714D75619684D97781308E18818401
540E38610855E57090851E74334834E90497633F05715141F20112994F33810832
533F46845533F59215786F71007724F82337798F93217072G03560849G13257367
526G22129230G29780644G35576477G39089493G40735927G41770167G43518049
519G46597454G50566896G53901705G54309688G49475650G38065192G20660629
512G00150532F81117600F68305423F64858414F71189057F84935463G01870849
505G17292003G27525956G31185238G29605312G26132613G24584878G27650094
498G36012401G48538358G63179301G77941132G91499642H03316271H13375328
491H21819894H28609900H33124590H33791352H28290177H15050952G95640291
484G75719760G62591986G60915736G70409044G87056210H05955815H23508269
477H38141336H49866204H59307318H66951920H73031659H77788939H81590425
470H84775092H87528211H89922040H91983957H93742903H95265885H96667604
463H98046382H99319649H99979598H98917729H94458233H84885479H69801362
456H51581583H34958857H24107648H19641026H18463457H16549369H11975110
449H05589836G99117741G93065192G86688669G79304597G70550372G59706414
442G46562888G33788028G27043839G31129357G46041455G67349328G89719506
435H08826884H19992065H17448907G98676941G70903911G50202168G50098719
428G70878908H01484004H30323278H52230093H67308459H77257067H83368060
421H85544115H81759631H69423257H49012109H26737566H12127189H11512558
414H23839806H42802418H62040560H78155855H90505043H99795202I06929309
407I12486865I16836037I20388183I23503842I26263025I28556968I30375233
400I31901152I33414383I35160515I37169114I39124394I40568180I41304762
393I41463092I41116554I39960737I37421205I33199672I28006031I23788749
386I22762760I25804661I31827957I38744727I44882411I49608374I53052883
379I55490217I56926314I57153902I55956144I52964248I47192918I36554983
372I17663629H87051783H44930655G99245880G64458006G53202127G67565914
365G98604933H33982061H65459066H90467788I09597356I24170229I35345911
358I44027940I50849200I56181481I60286438I63401223I65634972I66961557
351I67234400I65814679I60884380I48781407I24457449H85080689H35189883
344G86193676G47564937G19414802F95969566F74654255F58481079F49674848
337F44184925F35358504F23210901F17593026F29975905F62670921G07246760
330G51848852G87915243H11165770H19544015H12145379G90186746G58610355
323G26255127G03367390F97274149G09021770G33502371G62863828G90375955
316H12078809H26267889H32794616H33321737H31648551H32530211H39067939
309H50873567H64865437H77807629H88133278H95922146I01984696I07226655
302I12325910I17397975I21989299I25704837I28773867I31739197I34743469
295I37493088I39827223I41924081I43965058I45926089I47697099I49172263
288I50299639I51224054I52188537I53153144I53808155I54062495I54143004
281I54114189I53662638I52290048I49284213I43488505I33244677I16562757
274H92280178H62822272H35940216H21548051H25044940H43591756H68872509
267H92963691I11927491I25523255I35096571I42002590I47165977I51088414
260I53924042I55815441I57211471I58600751I60048975I61400250I62836035
253I64726308I66959557I68976719I70492263I71548818I71797033I70299929
246I66189221I59167314I49503238I38165913I27189628I19343254I16559819
239I18457405I22847644I27813197I33117413I39679269I48014072I57420869
232I66487129I73998966I79376377I82394150I82357521I77718755I67161204
225I50985215I30371107I05521777H77109988H50557094H35771135H39800334
218H60416067H88474441I15420630I37108732I52773664I63104877I69216058
211I72332467I74151608I77459976I83676293I89804851I93690033I96061047
204I98096087A000193883A002084718A003630140A005027233A006322628A007240480
197A007490070A006921819A005454343A003068703I99773336I95472044I89896486
190I82636240I73341892I62139145I50048798I39193840I32222751I30658202
183I33715980I39051949I44351101I48276039I50816759I53225840I57076206
176I62958236I70136160I77311022I83689107I89491128I95140070A000040991
169A003143586A004777706A006669729A009844395A013589812A016627525A018430976
162A019370581A020165044A021177719A022067819A022306658A021949118A021577451
155A021529884A021558074A021393368A021170781A020885499A019892576A017508248
148A013901909A009855709A005645490A000520919I93368560I83670918I71681457
141I57862169I42680415I26995169I12067006H98766338H86935770H75891103
134H65438814H55916441H47436309H40113931H35332711H35815827H43788590
127H59302943H80274653I03566935I26094006I45568549I60858377I72135320
120I80503377I86877837I91261325I93220669I92503214I88920627I82239383
113I72666005I61357870I50193127I40913156I34539446I31279771I30588881
106I31776264I34821853I40317090I48491875I58271777I67764521I76030317
99I83686294I91572610I99566563A007001266A013579498A019323200A024088356
92A027673443A030242479A032394093A034840053A038031471A041767137A045020812
85A046727502A047028848A047066540A047401640A047831438A048682970A050601746
78A052839620A053553950A052064909A049056824A044630456A037428279A026394800
71A014143811A007676216A011982508A024406266A038237494A048970314A056408015
64A062030519A066146227A068291215A068791769A068493739A067245975A064035364
57A058509124A051206563A042545911A032240701A020416947A009014865A001177180
50I99070383A002075280A007026581A011163792A013927349A015780493A017488434
43A020856184A027645127A036417479A042066608A039651652A027465670A007399310
36I85166959I67506180I58141637I58976855I69987331I85761025A000756633
29A013373788A024736366A036828337A049349232A058781407A062198663A060782255
22A058469994A058780657A063526060A071164536A073741823A064593054A051717495
15A045167016A043414633A038737675A026925985A009908652I90936602I70220920
8I45900649I18722497H93607951H75868163H67768823H68536721H75047946
1H81530481
##END=


$$ === CHEMSPECTRA PEAK TABLE EDIT ===
##TITLE=X8404
##JCAMP-DX=5.00
##DATA TYPE=INFRAREDPEAKTABLE
##DATA CLASS=PEAKTABLE
##$CSTHRESHOLD=0.93
##MAXX=3997.453
##MAXY=1.0238859607860644
##MINX=373.96442
##MINY=0.36611804174278845
##$CSSOLVENTNAME=- - -
##$CSSOLVENTVALUE=0
##$CSSOLVENTX=0
##NPOINTS=35
##PEAKTABLE= (XY..XY)
378.2140156763094, 0.8274766764650344
420.70997243940565, 0.9136533099063959
524.1168005629397, 0.8873798804421849
556.6970340813132, 0.7965466344494462
633.1897562548866, 0.8874459827371382
684.1849043706015, 0.7969647015945047
712.5155422126659, 0.874002214305772
756.4280308678653, 0.7834020222662536
827.2546254730255, 0.6648983924137883
845.669540070367, 0.5889170145520009
892.4150925097729, 0.7182295286913699
919.329198459734, 0.8799171410315835
960.4086233307271, 0.7738324961733253
980.2400698201718, 0.715270217790251
995.821920633307, 0.6932858194423742
1055.3162601016415, 0.7255849802467789
1093.5626211884282, 0.6339877812555774
1148.8073649804533, 0.36611804174278845
1154.473492548866, 0.37110119892559457
1208.3017044487879, 0.48968136120100025
1215.3843639093038, 0.48476215983133186
1260.7133844566065, 0.6101523613102698
1332.9565109538698, 0.5876846879692683
1364.1202125801406, 0.7516298260850695
1402.3665736669273, 0.7449215020846947
1429.280679616888, 0.6879399392540457
1437.779870969507, 0.6329600188716427
1451.945189890539, 0.7618883213481306
1587.932251532447, 0.8002012929377856
1731.001972634871, 0.3779788003368566
2878.392805238467, 0.9082957466015837
2925.1383576778735, 0.8585430348562197
2946.3863360594214, 0.8285264929722173
2978.966569577795, 0.843219813240655
2991.715356606724, 0.8704774937759416
##END=


$$ === CHEMSPECTRA PEAK TABLE AUTO ===
##TITLE=X8404
##JCAMP-DX=5.00
##DATA TYPE=INFRAREDPEAKTABLE
##DATA CLASS=PEAKTABLE
##$CSTHRESHOLD=0.93
##MAXX=3997.453
##MAXY=1.0238859607860644
##MINX=373.96442
##MINY=0.36611804174278845
##NPOINTS=44
##PEAKTABLE= (XY..XY)
3014.379866880375, 0.9287159404288599
2991.715356606724, 0.8704774937759416
2978.966569577795, 0.843219813240655
2946.3863360594214, 0.8285264929722173
2925.1383576778735, 0.8585430348562197
2878.392805238467, 0.9082957466015837
2851.4786992885065, 0.9275720077027881
1731.001972634871, 0.3779788003368566
1587.932251532447, 0.8002012929377856
1541.1866990930412, 0.943531806595818
1532.687507740422, 0.9449700075799314
1528.4379120641124, 0.9450988727743168
1451.945189890539, 0.7618883213481306
1437.779870969507, 0.6329600188716427
1429.280679616888, 0.6879399392540457
1402.3665736669273, 0.7449215020846947
1372.6194039327597, 0.8009292449258234
1364.1202125801406, 0.7516298260850695
1332.9565109538698, 0.5876846879692683
1260.7133844566065, 0.6101523613102698
1215.3843639093038, 0.48476215983133186
1208.3017044487879, 0.48968136120100025
1181.3875984988272, 0.6074027991577627
1154.473492548866, 0.37110119892559457
1148.8073649804533, 0.36611804174278845
1093.5626211884282, 0.6339877812555774
1080.8138341594995, 0.6909410326490405
1055.3162601016415, 0.7255849802467789
995.821920633307, 0.6932858194423742
980.2400698201718, 0.715270217790251
960.4086233307271, 0.7738324961733253
919.329198459734, 0.8799171410315835
892.4150925097729, 0.7182295286913699
845.669540070367, 0.5889170145520009
827.2546254730255, 0.6648983924137883
814.5058384440968, 0.7930335369613085
756.4280308678653, 0.7834020222662536
712.5155422126659, 0.874002214305772
684.1849043706015, 0.7969647015945047
633.1897562548866, 0.8874459827371382
556.6970340813132, 0.7965466344494462
524.1168005629397, 0.8873798804421849
420.70997243940565, 0.9136533099063959
378.2140156763094, 0.8274766764650344
##END=

##END=

