##TITLE=GH030
##JCAMP-DX=4.24
##DATA TYPE=INFRARED SPECTRUM
##DATE=12/2/2018
##SAMPLING PROCEDURE=Diamant ATR
##ORIGIN=Lara
##XUNITS=1/CM
##YUNITS=TRANSMITTANCE
##RESOLUTION=4
##FIRSTX=3997.453
##LASTX=373.96442
##DELTAX=-1.4165319
##MAXY=0.92746907
##MINY=0.2785821
##XFACTOR=1
##YFACTOR=8.6377289e-010
##NPOINTS=2559
##FIRSTY=0.87847245
##XYDATA=(X++(Y..Y))
3997+1017017853+1016896266+1017319681+1017824866+1018062451+1018137735
3989+1018178310+1018120622+1017951698+1017776494+1017644970+1017552435
3980+1017546983+1017644073+1017732124+1017754205+1017914573+1018486624
3972+1019402528+1020205470+1020482870+1020219133+1019672475+1019099803
3963+1018704473+1018614560+1018761747+1018967451+1019202551+1019514178
3955+1019759353+1019726161+1019434477+1019056537+1018667417+1018302588
3946+1018111789+1018257666+1018711788+1019170326+1019267071+1018985807
3938+1018628223+1018357378+1018105027+1017964395+1018285889+1019146657
3929+1020072842+1020552358+1020478868+1020087264+1019687518+1019337042
3921+1018817848+1018075493+1017537116+1017746615+1018667417+1019743481
3912+1020560639+1021025387+1021092943+1020722869+1020087609+1019535983
3904+1019264587+1019225461+1019448968+1019988794+1020499914+1020468931
3895+1019820422+1019031488+1018838826+1019534534+1020357902+1020464860
3887+1019962089+1019353534+1018719999+1018051272+1017848742+1018391259
3878+1018917975+1018737043+1018194733+1017959909+1018325084+1019321654
3870+1020694439+1021564385+1021344259+1020485561+1019667093+1019140447
3861+1018900516+1018855180+1018672800+1018041335+1017278416+1017502406
3853+1019291361+1021031391+1021597922+1021508491+1021212805+1020812783
3844+1020443261+1020251910+1020141226+1019953395+1019786817+1019766736
3836+1019804620+1019885425+1020154544+1020574509+1020899798+1021082868
3827+1021290228+1021423822+1021145111+1020607769+1020576924+1021180855
3819+1021322937+1020681052+1020294141+1020853565+1021712332+1022109594
3810+1022031273+1021853171+1021958473+1022313848+1022478080+1022398725
3802+1022514998+1022976020+1023485691+1023989083+1024446655+1024450933
3793+1023836444+1023046820+1022575101+1022563164+1022917780+1023474305
3785+1023977766+1024215626+1024282975+1024432647+1024578040+1024300985
3776+1023557940+1022767487+1022170456+1021719094+1021499382+1021771400
3768+1022523762+1023411856+1024011302+1023986392+1023429314+1022892179
3759+1022830558+1023110856+1023304346+1023338573+1023597548+1024723779
3751+1026815665+1028326323+1027859021+1026114920+1024554924+1024046633
3742+1024204516+1024353705+1024474119+1024594740+1024394073+1023686841
3734+1023020046+1022936274+1023190419+1023389498+1023496180+1023673661
3725+1024129784+1024982548+1026002511+1026642877+1026581117+1026065650
3717+1025535278+1025140776+1024804377+1024549886+1024575004+1024856407
3708+1025000834+1024819558+1024526563+1024420364+1024659880+1025200810
3700+1025751608+1025975668+1025832965+1025549079+1025215509+1024672370
3691+1024044563+1024130060+1025415830+1026870455+1027388890+1027138816
3683+1026686005+1026179370+1025470206+1024661329+1024290152+1024748138
3674+1025476209+1025848077+1026375483+1027616399+1028854832+1028981387
3666+1028209290+1027390063+1026987902+1026972376+1027051939+1026928834
3657+1026476368+1025865053+1025512299+1025758302+1026723958+1028187140
3649+1029236499+1028978351+1027876617+1027015642+1026973825+1027607912
3640+1028289681+1028508634+1028260078+1027805818+1027351696+1026942842
3632+1026554896+1026416541+1026962577+1027729982+1027585899+1026716367
3623+1026103120+1026205040+1026810145+1027592248+1028320595+1028722066
3615+1028740491+1028616834+1028460538+1028159883+1027833903+1027765036
3606+1027796433+1027508269+1026895366+1026242096+1025618636+1024945906
3598+1024455971+1024574590+1025344548+1026336150+1027131294+1027618953
3589+1027843702+1027891453+1027858400+1027776146+1027673398+1027674226
3581+1027877307+1028207151+1028486483+1028627392+1028630152+1028419963
3572+1027857848+1027005567+1026290675+1026243614+1026839817+1027301944
3564+1027153100+1026743486+1026544476+1026601888+1026623279+1026389146
3555+1026018244+1025911493+1026421923+1027354939+1027935340+1027556020
3547+1026443107+1025481109+1025282995+1025608768+1025941096+1026167501
3538+1026481957+1026881082+1027016056+1026608581+1025856082+1025280718
3530+1025212955+1025457095+1025577992+1025548320+1025771206+1026391354
3521+1027025579+1027313605+1027336446+1027340655+1027347625+1027158482
3513+1026646465+1025971665+1025503121+1025529274+1026048192+1026755355
3504+1027147096+1026850030+1026088146+1025487664+1025275543+1025135739
3496+1024872830+1024767942+1025114347+1025733667+1026186616+1026274183
3488+1026174402+1026175368+1026374378+1026619346+1026692837+1026512181
3479+1026109744+1025484559+1024689483+1024041665+1023948577+1024413463
3471+1024934934+1025020707+1024712117+1024478949+1024592462+1024758488
3462+1024479432+1023665104+1022745682+1022283003+1022563026+1023459538
3454+1024613785+1025724903+1026632802+1027217689+1027407038+1027239701
3445+1026790548+1026110917+1025343030+1024746068+1024489369+1024536292
3437+1024772151+1025076809+1025231104+1024977372+1024349358+1023803459
3428+1023796214+1024263585+1024673819+1024607368+1024203619+1023995914
3420+1024341008+1025110966+1025917220+1026452768+1026616724+1026471192
3411+1026126098+1025687848+1025361109+1025389746+1025724627+1026011274
3403+1026080624+1026135069+1026270940+1026200003+1025690401+1025008770
3394+1024638351+1024719984+1025006837+1025227239+1025236210+1024990966
3386+1024673474+1024635522+1024921892+1025101581+1024811898+1024212590
3377+1023750325+1023734316+1024225908+1025106826+1026111469+1026861968
3369+1027001289+1026439795+1025513058+1024773601+1024541951+1024712393
3360+1025005664+1025280304+1025508918+1025621534+1025590344+1025563501
3352+1025713587+1026058336+1026507075+1026895849+1026963060+1026562210
3343+1025889342+1025343582+1025205227+1025477521+1025870849+1026005892
3335+1025807433+1025573023+1025540246+1025604559+1025566330+1025419625
3326+1025309010+1025359729+1025618636+1026043638+1026474643+1026686488
3318+1026574769+1026270595+1026021832+1025992229+1026204695+1026564694
3309+1026862244+1026846856+1026426615+1025796117+1025354071+1025464410
3301+1026172332+1027105141+1027777526+1028051269+1028174236+1028363240
3292+1028565425+1028655201+1028611175+1028438456+1028125173+1027730534
3284+1027369638+1027118045+1027025648+1027146889+1027434019+1027660425
3275+1027593007+1027274687+1027066223+1027293663+1027838319+1028220124
3267+1028210532+1028166576+1028458950+1028768507+1028452257+1027500540
3258+1026588777+1026240992+1026448352+1027005912+1027694030+1028163816
3250+1028138146+1027799746+1027651316+1027937273+1028442251+1028877949
3241+1029131611+1029064400+1028489382+1027551604+1026777713+1026586569
3233+1026983624+1027685404+1028283954+1028466955+1028311142+1028172442
3224+1028218468+1028294511+1028198871+1027845289+1027270891+1026667029
3216+1026299715+1026320900+1026719058+1027386751+1028128623+1028721376
3207+1029076131+1029254785+1029287424+1029109668+1028729864+1028344126
3199+1028193005+1028317145+1028510221+1028557697+1028479376+1028489037
3190+1028773268+1029395003+1030313046+1031354193+1032254915+1032870164
3182+1033220985+1033268047+1032909428+1032304806+1031880770+1031870902
3173+1032100482+1032267543+1032207095+1031896227+1031432514+1031071135
3165+1031109846+1031587154+1032133328+1032307911+1032080747+1031777470
3156+1031556171+1031242888+1030771929+1030519440+1030955827+1032026302
3148+1033084907+1033547103+1033404400+1032946828+1032261954+1031316861
3139+1030308629+1029609057+1029464629+1029847607+1030449745+1030853976
3131+1030916080+1030886615+1031008685+1031207281+1031304578+1031280496
3122+1031163670+1030914838+1030568019+1030309802+1030349894+1030776690
3114+1031453905+1031994697+1032036997+1031629868+1031128202+1030645512
3105+1029891356+1028644712+1027091754+1025551494+1024122676+1022814687
3097+1021792516+1021216255+1020982742+1020888688+1020927193+1021199280
3088+1021627732+1021940531+1021939703+1021710883+1021522292+1021542511
3080+1021774505+1022250226+1023031362+1023935397+1024450174+1023997363
3071+1022288041+1019599537+1016755358+1014667543+1013869914+1014451074
3063+1016121202+1018236619+1020075947+1021263937+1021821912+1021932596
3054+1021840267+1021814390+1021991319+1022336137+1022790604+1023248245
3046+1023410821+1022970983+1021991181+1020885238+1020062284+1019795649
3037+1020265780+1021365582+1022552468+1023184070+1022952352+1021900371
3029+1020212301+1018122278+1015905078+1013865084+1012289424+1011325838
3020+1010901664+1010828864+1010944516+1011089496+1010961008+1010021643
3012+1007733507+1004157668+1000240185+997151798+995296667+994071898+992365542
3002+989006931+982966234+973623026+961058872+946151930+930607934+916874697
2992+907369259+902876413+901297234+898606453+892249988+883966146+878674636
2982+880231319+888290758+898961897+907813651+912233076+911756597+907016437
2972+898718034+887458420+873995062+859266014+844190838+829597247+816215177
2962+804627927+795337785+788940539+786074899+786998945+791210803+797614260
2952+805076115+812669287+819433018+824265783+826253610+824997512+820605206
2942+813555863+804607157+794627999+784309958+773975080+763673738+753377779
2932+742994942+732356994+721479943+710852001+701298811+693512080+687745195
2922+683912036+681871075+681653089+683527126+687795568+694300600+702061109
2912+709579273+715637359+719776210+722145910+723257512+724045687+725900955
2902+730204659+737547964+747396564+758641549+770440644+782458692+794562307
2893+806584357+818272906+829308806+839493668+848890078+857554621+865214245
2883+871395782+875733781+877980652+877829324+874952851+869433763+862247651
2873+855049809+849192044+845045534+842325219+840696356+839840073+839217165
2863+838064988+835622487+831398485+825382629+818064511+810226786+802698203
2853+796333872+792305705+792247948+797550844+808023525+821283387+833710014
2843+842114547+844774068+841618677+834231347+825801558+820452774+821732610
2833+831027859+847029013+866612286+886412304+904028727+918413854+929623577
2823+938281289+945073313+950496278+954854495+958362847+961228487+963621028
2813+965631212+967413681+969302278+971568471+974136906+976738602+979208429
2803+981462546+983402690+985070610+986698645+988428600+990108872+991487316
2793+992482023+993182354+993685056+994085906+994588952+995402383+996449534
2783+997385104+998022158+998574198+999369480+1000459621+1001607105+1002569242
2774+1003296072+1003882614+1004416851+1004945912+1005554743+1006336570
2765+1007216245+1007922926+1008267191+1008372976+1008505604+1008732492
2757+1008920324+1009030456+1009227120+1009631351+1010125841+1010519515
2748+1010798847+1011075626+1011340674+1011446045+1011357580+1011262629
2740+1011321560+1011437557+1011417891+1011291404+1011270979+1011439213
2731+1011673071+1011887401+1012136095+1012424190+1012618370+1012636588
2723+1012620096+1012825316+1013368869+1014115710+1014803690+1015255810
2714+1015489116+1015639892+1015800260+1015950139+1016070414+1016257832
2706+1016626319+1017121568+1017537254+1017711353+1017621992+1017332240
2697+1016970240+1016746870+1016814978+1017038900+1017057186+1016687388
2689+1016155843+1015819995+1015781905+1015889414+1016011760+1016170127
2680+1016435382+1016816565+1017287318+1017853435+1018513950+1019144104
2672+1019531084+1019605057+1019553373+1019590842+1019690002+1019673234
2663+1019526599+1019434270+1019519215+1019733200+1020015016+1020378051
2655+1020789114+1021086526+1021095496+1020815336+1020460236+1020274751
2646+1020309874+1020430564+1020497913+1020459891+1020338511+1020210990
2638+1020137431+1020062353+1019906333+1019763424+1019854855+1020256396
2629+1020786561+1021203144+1021433621+1021590538+1021836127+1022259680
2621+1022813997+1023334087+1023691119+1023947887+1024277179+1024731784
2612+1025220546+1025685709+1026167916+1026698771+1027229626+1027672293
2604+1027960113+1028104196+1028222125+1028456397+1028808737+1029099731
2595+1029178742+1029144791+1029225182+1029416326+1029438545+1029154521
2587+1028844757+1028868633+1029191921+1029493473+1029637004+1029753139
2578+1029945111+1030230585+1030721279+1031521116+1032471246+1033281641
2570+1033852312+1034200511+1034233219+1033919316+1033574498+1033654268
2561+1034266273+1035087225+1035716689+1035966418+1035812123+1035228548
2553+1034198648+1032836765+1031313135+1029627205+1027689545+1025664110
2544+1023907174+1022438264+1020843145+1018911212+1017035863+1015724285
2536+1014986415+1014462667+1013941127+1013463199+1013060485+1012732091
2527+1012709043+1013420485+1015003528+1017048836+1019060677+1020999648
2519+1023072972+1025157820+1026835884+1027999584+1029045838+1030333264
2510+1031714537+1032801573+1033525642+1034171805+1034916162+1035605177
2502+1036036665+1036267625+1036578492+1037215546+1038147252+1039062396
2493+1039684131+1040020737+1040179863+1040123003+1039830905+1039503338
2485+1039316265+1039110562+1038569010+1037655936+1036709878+1036072065
2476+1035751260+1035611387+1035769685+1036443035+1037371567+1037882549
2468+1037748403+1037535523+1037794291+1038346538+1038749389+1039020027
2459+1039355184+1039502510+1039117807+1038584813+1038744697+1039764315
2451+1040841966+1041208037+1041014271+1041011304+1041584667+1042365734
2442+1042733324+1042470277+1041834396+1041170844+1040630052+1040212985
2434+1039923164+1039793642+1039792331+1039805994+1039727742+1039483534
2425+1039033690+1038460397+1037906838+1037344172+1036709878+1036356848
2417+1036868037+1038259178+1039793918+1040721690+1040890683+1040662277
2408+1040516607+1040760402+1041454316+1042457511+1043404950+1043814356
2400+1043507491+1042785285+1041961296+1040948648+1039519623+1037755303
2391+1036071927+1034857577+1034120327+1033585332+1033220157+1033423101
2383+1034481982+1036059989+1037424977+1038069897+1038029253+1037709484
2374+1037449473+1037208439+1036691936+1035792870+1034842120+1034309953
2366+1034221282+1034157728+1034035382+1034299257+1034992826+1035474688
2357+1035483521+1035576402+1036202967+1037131567+1037953762+1038600063
2349+1039282039+1040215539+1041361574+1042337580+1042828068+1043033358
2340+1043338498+1043812769+1044300427+1044723497+1045073076+1045262771
2332+1045186659+1044849776+1044322647+1043664408+1042945445+1042243526
2323+1041662021+1041434719+1041772567+1042499535+1043251068+1044038898
2315+1045020633+1045813707+1045836272+1045295203+1044939414+1044891455
2306+1044616056+1043948157+1043346226+1043155979+1043209734+1043130586
2298+1042703100+1041987518+1041147865+1040151847+1038836681+1037389163
2289+1036388729+1036154319+1036380103+1036634524+1036914616+1037445195
2281+1038143664+1038632702+1038796175+1038980763+1039492918+1040220645
2272+1040983633+1041937558+1043365548+1045248901+1047120248+1048262763
2264+1048287329+1047681879+1047396544+1047764685+1048316656+1048668444
2255+1048905062+1049043210+1048818806+1048191550+1047608803+1047627917
2247+1048463223+1049900252+1051563203+1053169432+1054409728+1054840112
2238+1054337963+1053439173+1052767478+1052399337+1052174794+1052194737
2230+1052601935+1053235332+1053791306+1054123910+1054386198+1054992268
2221+1056112151+1057053724+1056730849+1055002274+1052934263+1051591702
2213+1051279110+1051872001+1052906868+1053503210+1053306890+1053309099
2204+1054653040+1056996450+1059033339+1060098086+1060344020+1060079110
2196+1059802055+1060099259+1060799729+1061028274+1060519500+1059838627
2187+1059184115+1058403737+1058272352+1059985815+1063256307+1066548604
2179+1068925964+1070043224+1069171553+1066152723+1062691639+1061046215
2170+1061736955+1063288187+1064011152+1063727611+1063581113+1064388679
2162+1065991734+1068024138+1069803915+1069899625+1067936157+1065657957
2153+1064562916+1064146264+1063338699+1062317632+1062126350+1063382379
2145+1065666651+1067657307+1068106875+1067021633+1065399947+1063943666
2136+1062795008+1062130835+1062071905+1062337229+1062557493+1062541415
2128+1062125660+1061270895+1060286608+1059615603+1059487323+1059810611
2119+1060142318+1059919432+1059099515+1058332524+1058177884+1058464393
2111+1058685761+1058647808+1058511316+1058495859+1058622000+1058557895
2102+1057847419+1056508032+1055176167+1054398135+1054000736+1053443106
2094+1052593103+1051788712+1051262548+1050818363+1050037365+1048653884
2085+1046744515+1044724049+1043254105+1042986917+1044004327+1045439286
2077+1046161354+1046057985+1046054603+1046700904+1047533794+1048092804
2068+1048647466+1049424186+1049784944+1048742555+1046115328+1042871541
2060+1040310765+1038935772+1038187896+1037329405+1036300885+1035489524
2051+1035012562+1034657807+1034367848+1034314438+1034443823+1034516347
2043+1034632551+1034976472+1035179554+1034893114+1034771803+1035963313
2034+1038894231+1043068343+1047479281+1051060985+1053566487+1055699639
2026+1057685879+1058682035+1058227223+1056998175+1055790863+1055140353
2017+1055924250+1058865036+1063335387+1067685116+1070678277+1072190108
2009+1072807702+1073065781+1072922872+1071850879+1069572472+1066819035
2000+1065074864+1065080454+1065846547+1065910929+1065325560+1065437003
1992+1066862784+1068604608+1069282720+1068353292+1066199094+1063750314
1983+1061850399+1060855554+1061055876+1062768856+1065077004+1065655887
1975+1063566898+1060689528+1059052936+1058720746+1059079296+1060196832
1966+1062025879+1063981342+1066014575+1068650427+1071626337+1073633140
1958+1073741823+1072370625+1070627421+1069157407+1067923529+1066854434
1949+1066106282+1065758083+1065874494+1066609191+1067629912+1067996191
1941+1067366382+1066457380+1065880498+1065533610+1065032357+1064090715
1932+1062745877+1061449894+1060572426+1059944895+1059295627+1058765669
1924+1058646497+1058951775+1059428531+1059713245+1059475316+1058724059
1915+1057850938+1057191596+1056791091+1056497198+1056103456+1055507115
1907+1054733224+1053732513+1052225030+1049828901+1046388381+1042280375
1898+1038416647+1035806119+1034895184+1035297829+1036354295+1037823411
1890+1039751825+1041963228+1044066569+1045697365+1046559099+1046730369
1881+1046872865+1047534277+1048398565+1048713642+1048290917+1047698785
1873+1047614461+1048333148+1049857883+1052073081+1054666634+1057167789
1864+1059217513+1060704916+1061771043+1062692812+1063572902+1064228173
1856+1064578581+1064961006+1065755461+1066834285+1067659240+1067908348
1847+1067874604+1068174431+1069022916+1069904938+1070336219+1070407571
1839+1070337254+1070171643+1069841040+1069290449+1068635729+1068175190
1830+1068076237+1068106944+1068009992+1067848589+1067652339+1067195043
1822+1066381060+1065513253+1064996751+1064917809+1064986676+1064859362
1813+1064392336+1063650601+1062756918+1061638554+1060096223+1058315411
1805+1057019359+1056910193+1058034699+1059679088+1060931598+1061387652
1796+1061179325+1060571667+1059846287+1059390026+1059414592+1059684056
1788+1059901698+1059976844+1059934268+1059796051+1059498985+1058945496
1779+1058199621+1057454850+1056745616+1055929080+1054903390+1053712640
1771+1052576059+1051830805+1051679477+1051994277+1052494909+1053050744
1762+1053621208+1054082507+1054357768+1054448440+1054190913+1053252584
1754+1051380064+1048466121+1044486120+1039432332+1033196971+1025643478
1745+1016939325+1007776359+999071103+991576608+986046065+983071604+982639219
1735+984603860+988614362+993213338+997453626+1001781688+1006249485+1010175525
1725+1013113205+1015105518+1016374381+1017269100+1018165475+1019170740
1717+1019943044+1020158891+1020092440+1020234521+1020868056+1022031480
1708+1023720515+1026028042+1028808254+1031550305+1034154899+1037105966
1700+1040315458+1042823582+1044631513+1046431026+1048103431+1049329442
1691+1050414132+1051693968+1052991331+1054019298+1054947691+1056086826
1683+1057111619+1057551319+1057533032+1057345822+1057210020+1057281026
1674+1057516816+1057673182+1057626810+1057469893+1057276196+1056999900
1666+1056682477+1056522247+1056750102+1057437046+1058364129+1059178595
1657+1059642446+1059680054+1059070395+1057256529+1054674431+1052446467
1649+1050657996+1049376159+1049193365+1050311867+1052306249+1054803471
1640+1057328571+1059331441+1060620868+1061399796+1061968605+1062534170
1632+1063226359+1064176971+1065443834+1066813169+1067929808+1068704527
1623+1069277476+1069721592+1070043845+1070191309+1069849320+1068651324
1615+1066879966+1065030080+1063011201+1060428551+1056945317+1052341097
1606+1046291912+1037984469+1025941579+1008236829+982816424+947576193+900436051
1596+840541440+770993374+700349302+639899132+599445643+584675606+595190242
1587+624583956+664107395+706754277+748214894+785631335+817909526+846053145
1577+867331801+869938810+848320856+812539350+779854927+772179708+798020768
1567+840271975+880486017+910792390+930569222+945098569+962675728+983787738
1557+998359937+1006514189+1012956288+1019091453+1024836395+1029917647
1548+1034017717+1037167174+1039749341+1042090128+1044390203+1046886114
1540+1049628510+1052042857+1053780472+1055278432+1057159301+1059321297
1531+1060888814+1061628341+1061988133+1062292997+1062705302+1063250924
1523+1063751142+1064201192+1064757649+1065184306+1065271391+1065202317
1514+1065083697+1064928022+1064854256+1064586861+1062765888+1056754725
1506+1045723862+1032538802+1016789653+993762755+956260541+894094285+799516658
1496+685749501+583374310+508047421+459375575+438216470+446393769+475130899
1486+511118868+548629846+588102463+629906311+671031357+707568467+737895404
1476+761247315+775681781+778567570+769250032+751410170+728974231+702472103
1466+672255367+643982778+626391818+620984241+622507733+626247804+631164203
1456+639929080+654192619+672737367+693953712+715517429+733681614+742947536
1446+738053425+719411104+694721807+674460974+665836246+671289090+692722249
1436+729265777+769723268+803646400+831284557+855279734+875131988+889748074
1426+900384849+909160698+916906371+923420304+929069536+934758998+940174579
1417+944079779+946385443+947495733+946971502+943634490+936681408+926753384
1407+916036356+907739195+904811451+908214777+917190809+930034571+943754007
1397+955524465+964734769+972029149+977732757+981975184+984999880+986878679
1387+987391110+986353758+983739228+979521849+974059483+968564270+964656793
1377+963491713+965434479+969855836+975132165+979808496+983452029+986115622
1367+987978757+989530886+991399196+993837902+996507429+998951034+1001163058
1357+1003488664+1006241964+1009509902+1013141842+1016813667+1020162825
1349+1022960770+1025162858+1026883221+1028422033+1030186214+1032458342
1340+1035253596+1038359097+1041533879+1044661531+1047643926+1050306139
1332+1052529549+1054337618+1055791070+1056957669+1057960035+1058900918
1323+1059811991+1060730172+1061698036+1062674388+1063529153+1064100169
1315+1064264263+1063972441+1063114709+1061268135+1057523579+1050368865
1306+1037552291+1016230437+984183551+942446569+897366019+858829489+834756613
1296+825811288+823854237+815183415+787441198+736728667+670393957+603573728
1286+551912138+525290597+526169272+551575186+595269046+649081350+704619262
1276+755382236+797923195+831410837+856369530+873637616+883922328+887762387
1266+885715353+878824583+869019940+858713767+849646166+841862057+833347462
1256+820277156+797766692+761181416+708041427+640053634+563986252+490007341
1247+427726158+382246897+352929779+335716517+326977345+325684329+332723840
1237+348826880+373200618+403686991+437770145+473353779+508983750+543853458
1227+577750368+610834710+643249531+674733958+704532316+731760032+755867824
1217+776707885+794253854+808292162+818186857+822687225+819732569+806445381
1207+779777917+737738693+680747812+613507895+546774440+495598023+472560084
1197+480971137+514040402+559719397+606001255+642902505+662108252+658135220
1187+632180854+594379089+560192323+542437338+543755436+554110637+557025166
1177+542468321+515418914+490675517+478886427+479223862+486213205+500233433
1167+526928396+567061632+612060515+651233547+679860063+698954228+710946952
1157+718076824+722950440+728207447+735285014+743793330+752100841+758669013
1147+763182147+766758262+771065415+776815257+782858783+786602028+784904988
1137+775016434+756545108+733689204+714301008+704986162+706442443+713357848
1128+719019777+720969444+722662413+729177313+741446056+755460971+766624737
1118+773329331+776356580+776516603+773234587+764107504+745955187+718177295
1108+685209192+654008790+629295617+612359859+602563426+597459541+593674824
1098+591249574+595513117+611321471+636498013+663303625+685199324+700537065
1088+711092138+719118523+725869903+731782389+737123307+742172540+747072171
1078+751816334+756377495+760810445+765236011+769671031+773937265+777840188
1068+781357373+784589774+787552503+789988655+791473298+791855862+791522153
1058+791113368+791086663+791576805+792552260+794069404+796282049+799038316
1048+801462875+801876422+797776490+785536591+760233701+716975711+654713331
1038+580080771+506062596+444694969+400779534+372882194+358732409+357854459
1028+369835693+392327906+421382425+452821446+483134340+510103114+533334681
1018+554028279+573811391+593550477+612885263+630096489+641881300+644526676
1009+638040206+629808531+631211057+648109139+675784490+704381057+727605931
999+745134235+759132519+771162643+781788792+791083489+798958822+805527753
989+811275317+816730990+822069078+827129905+831683544+835583017+838829012
979+841585071+844007630+846058596+847640881+848868963+850047637+851428358
969+853023753+854554698+855646426+856288725+857041431+858635999+861440638
959+865311128+869678316+873652797+876281404+876887475+875156002+871029296
949+864856868+857642396+850582564+843919993+836578069+827595205+817940164
939+810250178+806388107+805528443+804828387+801562104+794157109+781585158
929+762984171+738815309+712319392+689203684+675249425+673493800+682987093
919+699878343+719752679+739400334+757264002+773068285+787180635+799927376
909+811265035+821021789+829228347+836070054+841679125+846099861+849343303
899+851320365+851665459+849735527+845164705+838763043+832693708+829315776
890+829728633+833392867+838793267+844221683+848303881+850395008+850725335
880+850094008+849309352+848826524+848823074+849487247+851018744+853278520
870+855607093+857219188+857837956+857904891+858205960+859413823+861934024
860+865875313+871004247+876899344+883204883+889573423+895532763+900807505
850+905651035+910442190+915082569+919108251+922054212+923175268+920715791
840+910985397+887344216+841212237+767186783+668688637+557971328+451580702
830+367426728+322517759+325801051+369933576+432528560+488396972+522655020
820+534699600+531951821+521151056+506275269+492390912+486321957+491693824
810+506009221+523706725+540149787+552457242+558360033+554773361+538244007
800+509904104+480802213+467850355+480587676+513338034+552074506+586667504
790+615021795+638868128+659556171+677350834+692063251+703601163+712401577
781+719382536+725678621+732710989+741874991+753416974+765938965+777488469
771+786979348+794441410+800239072+804321407+806248096+805896308+803896405
761+801127718+798185552+795973252+796308478+800679738+808334255+816640731
751+823465463+828406773+831934860+834375360+835854137+836583520+836928269
741+837290131+837952441+838992139+840244994+841276619+841504197+840575045
731+838768839+836983335+836036379+835857449+835627387+834753232+833399285
721+832159748+831427536+830796761+829284310+826893217+825550518+827332710
711+832006626+837390395+841638619+844275231+845647050+846315571+846824966
701+847567873+848743856+850378309+852353646+854489143+856566263+858316782
691+859528923+860209382+860564688+860813175+861089264+861581132+862592607
681+864221401+866088262+867684555+868912568+870066469+871385224+872781747
671+873952141+874621903+874776543+874817532+874943880+874848792+874519224
662+874638257+876146155+879309896+883415762+887243262+889742002+890474697
652+889314171+885382887+876132077+857253484+823981345+775204887+718930485
642+671890952+649747042+656522366+684165216+720340878+753706657+774104326
632+774227431+755457727+731171971+719537039+729504051+754481445+780968805
622+801002750+814662910+824683953+832587786+838799754+843606228+847220502
612+849720001+851314638+852392910+853260372+854157160+855465840+857478578
602+859974765+862309342+863929096+864800008+865448655+866514989+868207268
592+870284939+872464945+874501489+875995862+876657206+876721863+876679563
582+876727936+876962484+877764736+879365583+881254525+882520284+882728058
572+882197065+881453398+880627891+879480476+877765702+875001224+869587644
562+857894747+834370461+795827789+749962031+717215227+716215690+745310819
552+783406269+809392170+816421847+810029293+800490871+797881861+807758615
543+827538828+848424156+862215633+866116209+861270747+848252265+824659733
533+786463535+732170473+665869300+595786032+533065734+493149932+489742983
523+522794582+578130068+638141229+690694606+731148716+759337602+776793589
513+785832209+788569568+785966561+778205776+766335882+753394409+743700794
503+741386436+748544876+763177730+780152200+794586113+803147977+803016385
493+791586328+768984777+740890152+716893319+705530611+710383043+728515624
483+752491893+775587727+795038096+810791661+823380725+833435167+841648832
473+848523455+854656895+860814693+866811090+871227685+873285621+874213187
463+875631929+877499964+878944307+880347662+882875936+885849844+887095591
453+886044645+884191447+883031335+882609714+882248818+881845277+881925323
443+882886425+884762325+887635417+891647713+896505665+901507630+906240682
433+910601384+913865389+914748860+912962666+909987792+907684957+906366893
424+904517973+900936958+896676728+893970490+892845571+890662805+885937825
414+878309323+866960002+850896191+830389977+808948606+793126934+787809754
404+791575218+798550933+804860819+811497651+820127140+827853560+831689893
394+833334144+833690900+830291852+822249457+814433951+813702981+820359065
384+825903962+824777524+822087019+824442436+832881678+843918682+852212462
374+855548232
##END=
