##TITLE=X7824
##JCAMP-DX=4.24
##DATA TYPE=INFRARED SPECTRUM
##DATE=30/10/2018
##SAMPLING PROCEDURE=Diamant-ATR
##ORIGIN=ComPlat
##XUNITS=1/CM
##YUNITS=TRANSMITTANCE
##RESOLUTION=4
##FIRSTX=3997.453
##LASTX=373.96442
##DELTAX=-1.4165319
##MAXY=0.9673453
##MINY=0.54753679
##XFACTOR=1
##YFACTOR=9.0091051e-010
##NPOINTS=2559
##FIRSTY=0.95054454
##XYDATA=(X++(Y..Y))
3997+1055093177+1055488552+1055996863+1056091803+1055803343+1055354180
3989+1054859300+1054536172+1054645866+1055056524+1055371051+1055534600
3980+1055773240+1055968281+1055760934+1055270024+1055080210+1055455141
3972+1056042116+1056394818+1056390782+1056152009+1055873010+1055743203
3963+1055853956+1056119590+1056336795+1056331899+1055972516+1055079416
3955+1053643932+1052239015+1051779928+1052595620+1054010130+1055061883
3946+1055410152+1055414915+1055721304+1056685990+1057782004+1058158655
3938+1057764802+1057089172+1056242781+1055149546+1054351320+1054601473
3929+1055648396+1056464088+1056445364+1055825110+1055315542+1055277897
3921+1055310580+1054900981+1054122206+1053564540+1053730139+1054651821
3912+1056025576+1057388085+1058153826+1057789546+1056184295+1053921145
3904+1052070769+1051288091+1051370395+1052091345+1053402711+1054824896
3895+1055631922+1055493580+1054797969+1054512156+1055103300+1055898747
3887+1056062626+1055305883+1053930341+1052507494+1051683334+1052178478
3878+1053767520+1055096220+1055179252+1053966663+1052032198+1050272793
3870+1049933191+1051607514+1053940993+1055273001+1055346241+1054922682
3861+1054558667+1054210001+1053789882+1053237906+1052254497+1050635021
3853+1049668351+1051161857+1053962826+1056239407+1057298636+1057142960
3844+1056064148+1054447054+1052722847+1051314952+1050671476+1051193151
3836+1052642131+1054097727+1054776004+1054552712+1053946021+1053623290
3827+1053924585+1054724928+1055464337+1055521764+1054767800+1053887469
3819+1053562092+1053616145+1053879464+1054524528+1055377072+1055919984
3810+1055812606+1055021393+1053966465+1053284483+1052731447+1051392691
3802+1049451080+1048776773+1050509118+1053639037+1056754532+1058728429
3793+1059168462+1058684102+1058073441+1057684880+1057500690+1057373397
3785+1057109086+1056558697+1055676448+1054617880+1054010329+1054525851
3776+1055807578+1056839813+1057094928+1056689893+1055980521+1055282197
3768+1054740740+1054501306+1054895423+1055898085+1056681756+1056365972
3759+1054994003+1053607015+1053048687+1053050208+1052743356+1051352598
3751+1049091432+1047601895+1047571792+1047946062+1047897170+1047499678
3742+1047371988+1047569014+1047517409+1046801288+1045678214+1045040427
3734+1045510564+1047054285+1049368644+1051704703+1053112267+1053235325
3725+1052603361+1051974572+1051598516+1051434769+1051499738+1051793292
3717+1052254100+1052676270+1052654701+1051989855+1051398248+1052064285
3708+1053828123+1055428280+1055978999+1055386731+1054260349+1053515250
3700+1053489977+1053767255+1054015754+1054272721+1054623372+1054976205
3691+1055092449+1054840246+1054452479+1054220785+1054093559+1053913669
3683+1053500033+1052645704+1051405526+1050073451+1048747464+1047697960
3674+1047715956+1048320663+1047923237+1046390762+1045958801+1048051787
3666+1050976211+1052726816+1052663765+1051305557+1049544499+1047915761
3657+1046762253+1046524274+1046955971+1046866059+1045396437+1042821208
3649+1040606553+1040162748+1041294357+1043175828+1045078073+1046335783
3640+1046714750+1046599895+1046356557+1045738685+1044345743+1042360797
3632+1040258350+1038160799+1036557533+1036890452+1039031537+1041209142
3623+1042500792+1042907415+1042702979+1042282794+1042106212+1042125861
3615+1041855066+1041285028+1041082312+1041653409+1042763383+1044160824
3606+1045531338+1046194597+1045802530+1044783328+1043817915+1043210628
3598+1042881810+1042624909+1042220404+1041761449+1041613316+1041669354
3589+1041318505+1040473504+1040254778+1041524397+1043495846+1044999474
3581+1045666107+1045936306+1046236741+1046315472+1045902366+1045453533
3572+1045366003+1045109168+1043987153+1042327584+1041427736+1041913222
3564+1042959549+1043777425+1044279715+1044697518+1045222700+1045705274
3555+1045634813+1044681772+1043299283+1042369927+1042038728+1041659562
3547+1040889389+1040107703+1039887256+1040651740+1042572378+1045030305
3538+1046607769+1046351728+1044811975+1043313375+1042569665+1042404992
3530+1042228344+1041562637+1040521536+1039782326+1039990599+1041265974
3521+1043011551+1044213091+1044337605+1043957050+1044109616+1044994314
3513+1045749800+1045633821+1045004039+1044822164+1045302224+1045637062
3504+1045176520+1044324571+1043944413+1044129398+1044292351+1044196485
3496+1044191060+1044591727+1045264182+1045811858+1045933130+1045676957
3488+1045452342+1045620721+1046079477+1046456724+1046581304+1046539425
3479+1046394930+1046166941+1046075177+1046404061+1046981774+1047209762
3471+1046846608+1046257978+1045736634+1045204241+1044717763+1044596888
3462+1044912804+1045420122+1046003657+1046747036+1047630014+1048418514
3454+1048851600+1048960500+1049162025+1049787837+1050528503+1050639785
3445+1049740334+1048242726+1047082404+1047028483+1047930117+1048849417
3437+1049146411+1049012105+1048844323+1048704261+1048543822+1048478588
3428+1048673430+1049130665+1049578042+1049585121+1049019648+1048334292
3420+1048145337+1048630624+1049526106+1050448780+1051025500+1050997117
3411+1050450037+1049845132+1049691639+1050163297+1051041974+1051973778
3403+1052670844+1052906442+1052537928+1051631927+1050482720+1049482308
3394+1048958582+1048975056+1049273836+1049607748+1050035674+1050625560
3386+1051131291+1051347371+1051561334+1052184102+1053034793+1053453258
3377+1053168570+1052669190+1052537531+1052794961+1053059206+1052995626
3369+1052558306+1052104246+1052071232+1052293664+1052216918+1052023531
3360+1052567436+1053851345+1054689731+1054285093+1053148457+1052139311
3352+1051553130+1051384288+1051633779+1052090816+1052362206+1052285195
3343+1052029617+1051843243+1051875530+1052048142+1051975564+1051338108
3335+1050449904+1050123932+1050838002+1052235707+1053490043+1054075299
3326+1054160447+1054263062+1054596974+1054877692+1054709380+1054074306
3318+1053461925+1053457889+1054135505+1054980440+1055433242+1055296951
3309+1054677557+1053894085+1053451538+1053714989+1054486089+1055075446
3301+1054956225+1054283175+1053620975+1053253123+1053047165+1052926290
3292+1053082826+1053635728+1054357010+1054874054+1055007433+1054800020
3284+1054362236+1053919491+1053886675+1054491315+1055285042+1055486038
3275+1054909383+1054138548+1053720149+1053686540+1053918167+1054373021
3267+1054798101+1054811135+1054520757+1054534452+1055079349+1055614786
3258+1055576016+1055048453+1054453670+1053922071+1053269663+1052470709
3250+1051944601+1052226511+1053316901+1054521617+1055135917+1055227152
3241+1055421134+1055888690+1056005397+1055316270+1054400014+1054183934
3233+1054689929+1055076769+1054768792+1054044468+1053550712+1053635861
3224+1054199416+1054882654+1055319843+1055422524+1055479753+1055777607
3216+1056182773+1056383901+1056401566+1056491610+1056717218+1056951558
3207+1057103925+1057088378+1056763464+1056104241+1055385606+1055098338
3199+1055576942+1056653505+1057762156+1058396171+1058381351+1057867814
3190+1057184178+1056517744+1055809364+1055218750+1055298274+1056211950
3182+1057246964+1057626858+1057385835+1057023210+1056713711+1056311389
3173+1055828881+1055493977+1055457920+1055703375+1056113305+1056474673
3165+1056610368+1056588072+1056552677+1056424921+1056090017+1055644889
3156+1055117392+1054404381+1053770497+1053754090+1054376527+1055106740
3148+1055575751+1055715085+1055475452+1054968531+1054515596+1054271861
3139+1054250955+1054641037+1055470159+1056163455+1056083334+1055366684
3131+1054777062+1054879810+1055600429+1056372389+1056622211+1056250191
3122+1055638670+1055197446+1055037073+1055041307+1055074321+1055062677
3114+1054938692+1054576927+1053925776+1053240155+1052997809+1053395765
3105+1054028986+1054305868+1054154162+1053987305+1053938479+1053673175
3097+1053146670+1052904656+1053257555+1053732984+1053775327+1053518161
3088+1053511942+1053988628+1054635082+1054946235+1054657643+1053876949
3080+1052941573+1052207655+1051852109+1051786345+1051837818+1051965111
3071+1052155785+1052249733+1052068189+1051618166+1051141347+1051020869
3063+1051433379+1052009372+1052197533+1051908411+1051337447+1050420661
3054+1049125901+1047956052+1047475992+1047557369+1047579269+1047240792
3046+1046835162+1046699335+1046685441+1046434759+1045980832+1045626278
3037+1045358792+1044952302+1044508101+1044327615+1044372273+1044262050
3029+1043718343+1042806917+1041848252+1041109967+1040582206+1040170092
3020+1039882823+1039525689+1038615983+1037085824+1035633205+1034912784
3012+1034793497+1034740966+1034477581+1034046016+1033626361+1033422983
3003+1033464069+1033510712+1033268300+1032591479+1031558119+1030522509
2995+1029899476+1029720049+1029600828+1029215377+1028566608+1027876157
2986+1027388753+1027138998+1026841606+1026174378+1025093449+1023760779
2978+1022407798+1021329779+1020663080+1020118382+1019200471+1017676069
2969+1015689270+1013520597+1011277096+1008829424+1006161636+1003616377
2961+1001533779+999900079+998626689+997860551+997787774+998384211+999419291
2951+1000508689+1001276812+1001635798+1001736891+1001603115+1001068605
2942+1000110271+998975023+997904217+996957461+996202173+995751289+995364185
2932+994360134+992370160+989960795+988162487+987557185+987956133+988768848
2922+989632639+990735467+992431953+994639397+996913795+999019946+1001106912
2912+1003393946+1005887335+1008348901+1010495675+1012305759+1014054710
2904+1015957154+1017882026+1019471398+1020470752+1020964309+1021382245
2895+1022219704+1023630443+1025327194+1026937936+1028359129+1029674928
2887+1030914444+1032038444+1033025425+1033867515+1034566897+1035090160
2878+1035259134+1034866670+1034000829+1033048383+1032348339+1032021043
2870+1032006290+1032026667+1031641415+1030534087+1028720762+1026504784
2861+1024288607+1022304257+1020420602+1018337276+1016036216+1013944619
2853+1012582442+1012139100+1012498418+1013598005+1015524200+1018219047
2844+1021323097+1024385863+1027127486+1029538703+1031791136+1033972247
2836+1035952827+1037632971+1039163064+1040730934+1042298011+1043701208
2827+1044867550+1045829391+1046615840+1047207116+1047566897+1047673415
2819+1047529516+1047244364+1047117138+1047437553+1048142956+1048881571
2810+1049450815+1049984598+1050705747+1051641983+1052575243+1053171414
2802+1053172407+1052551293+1051607315+1050907602+1050926524+1051615718
2793+1052454169+1052949909+1053003036+1052861585+1052884477+1053276411
2785+1053916580+1054454861+1054611330+1054382878+1053974205+1053589615
2776+1053324444+1053201187+1053171282+1053097182+1052903134+1052724699
2768+1052777495+1053165725+1053872517+1054731015+1055393347+1055589447
2759+1055428015+1055226093+1055115142+1054959996+1054594195+1054065441
2751+1053666295+1053626003+1053796366+1053852338+1053739600+1053635596
2742+1053558188+1053369499+1053136151+1053146935+1053515846+1053991672
2734+1054227666+1054110562+1053772350+1053408203+1053193247+1053249815
2725+1053533444+1053800799+1053843935+1053729279+1053713864+1053956144
2717+1054395515+1054845208+1055120501+1055131815+1054983880+1054975478
2708+1055372109+1056105564+1056778681+1057047755+1056939649+1056699156
2700+1056421679+1056022136+1055549750+1055283322+1055381504+1055637016
2691+1055791037+1055916345+1056186942+1056430544+1056329120+1055989982
2683+1055847406+1055978867+1056025312+1055836820+1055657129+1055559211
2674+1055267576+1054724796+1054308977+1054311557+1054634487+1055081731
2666+1055540554+1055855147+1055877708+1055649189+1055326856+1055004919
2657+1054716989+1054531541+1054601473+1055083848+1055860307+1056419694
2649+1056345396+1055861564+1055530961+1055516670+1055541811+1055430463
2640+1055267377+1055108129+1054888278+1054576795+1054245463+1054073181
2632+1054297664+1054968134+1055785149+1056413276+1056846958+1057190132
2623+1057259006+1056828036+1056171659+1055846612+1055922631+1055966561
2615+1055873010+1056065603+1056674213+1057187023+1057221096+1057060193
2606+1057152223+1057550972+1058021571+1058322138+1058260675+1057745549
2598+1056938458+1056283536+1056204408+1056676066+1057254705+1057598078
2589+1057734236+1057780681+1057733641+1057633606+1057688519+1058101030
2581+1058800941+1059405978+1059593146+1059509850+1059574952+1059949685
2572+1060508807+1061103655+1061471971+1061303328+1060900344+1061210306
2564+1062555811+1063870816+1063885173+1062647576+1061215731+1060289353
2555+1059819944+1059581568+1059477101+1059431318+1059375346+1059255000
2547+1058949670+1058389754+1057831823+1057731325+1058183002+1058679669
2538+1058632364+1058081446+1057667943+1057878598+1058571298+1059333202
2530+1059963182+1060391438+1060505168+1060391504+1060403215+1060593624
2521+1060452504+1059672274+1058856053+1058914869+1059908996+1060952016
2513+1061258537+1060975900+1060905439+1061540711+1062497325+1062965477
2504+1062640960+1061925964+1061204418+1060425048+1059573497+1059014838
2496+1059051226+1059534594+1060089813+1060372119+1060134471+1059486892
2487+1059029658+1059336642+1060402619+1061787424+1062981884+1063477889
2479+1062975599+1061795892+1060680361+1059979192+1059409749+1058718902
2470+1058151047+1058071787+1058442087+1058858501+1059002135+1058968658
2462+1059103493+1059481269+1059735060+1059564962+1059140873+1058765280
2453+1058533322+1058560580+1059043750+1059801287+1060256537+1060133942
2445+1059722887+1059354307+1059076632+1058836337+1058539276+1057998282
2436+1057208194+1056587212+1056604613+1057241539+1058065237+1058744308
2428+1059223375+1059483320+1059484908+1059369855+1059399693+1059667577
2419+1060095436+1060612679+1061085130+1061238226+1060935211+1060413800
2411+1060114226+1060337120+1061040737+1061879254+1062530604+1062931867
2402+1063058564+1062730541+1061974128+1061259596+1060978877+1060966108
2394+1060904976+1060910070+1061339782+1062206947+1062944107+1062622170
2385+1060561867+1057032869+1053126558+1049626339+1046311965+1042630202
2377+1038557960+1034400967+1030191508+1025717143+1020878300+1015845872
2368+1010926313+1006217740+1001711750+998045403+996334758+996694473+997959461
2359+999403743+1001559383+1004951429+1009277529+1013961027+1018402444
2350+1021752875+1023137415+1022108223+1019082110+1015612656+1013487980
2342+1013167300+1013793178+1014508769+1015307921+1016554053+1017976172
2333+1018844396+1019101826+1019443479+1020192150+1020988590+1021626840
2325+1022389537+1023590548+1025334802+1027692430+1030608518+1033530031
2316+1035581270+1036372482+1036440429+1036699844+1037618416+1039146193
2308+1041167329+1043542687+1045797766+1047360741+1048280569+1049291633
2299+1050958612+1053070784+1054923145+1055880089+1055761795+1055077828
2291+1054724729+1055190234+1056323497+1057842210+1059410742+1060314891
2282+1060028019+1059119437+1058733523+1059243621+1060083594+1060606063
2274+1060584957+1060261830+1060132618+1060280156+1060148232+1059563175
2265+1059410080+1060440529+1062002445+1062838779+1062620053+1061875880
2257+1060942819+1059881275+1059068163+1058895418+1059042162+1059055063
2248+1059514746+1061382323+1064122888+1065885799+1065961354+1065637168
2240+1066053714+1066628847+1066422360+1065827445+1065800452+1066260069
2231+1066324707+1065633463+1064599904+1063793012+1063634623+1064278497
2223+1065342158+1066016730+1065659530+1064278232+1062570896+1061481895
2214+1061506970+1062422498+1063596118+1064476780+1064992104+1065598927
2206+1066691170+1067932274+1068473665+1067814839+1066328611+1065031866
2197+1064634043+1064765901+1064549424+1063653479+1062187959+1060231065
2189+1058178106+1056864623+1056798529+1057844327+1059687689+1062087726
2180+1064815455+1067426874+1068878236+1067949013+1064685119+1060831934
2172+1058279464+1057571481+1057994379+1058569181+1058845665+1058996776
2163+1059647530+1061473625+1064008496+1065112516+1063472464+1060845100
2155+1059779520+1061051521+1063737966+1066240419+1067528100+1068000287
2146+1068555241+1068977278+1068299464+1066159438+1062930610+1059554641
2138+1057736882+1058892110+1062408075+1066146206+1068680416+1069892740
2129+1069949109+1068972250+1067295744+1065357177+1063742597+1063235874
2121+1063914747+1064540558+1064055205+1063261677+1063674717+1065166899
2112+1066079120+1065479177+1064209822+1063605182+1063866780+1064064799
2104+1063605447+1063110368+1063422315+1064276049+1064701395+1064422925
2095+1064093975+1064247071+1064687832+1064946254+1064803546+1064328051
2087+1063777596+1063418279+1063143713+1062570962+1061921002+1062211975
2078+1063845609+1065623936+1066142237+1065686524+1065622811+1066323318
2070+1066946549+1067086743+1067358530+1068144384+1068741549+1068197247
2061+1066398873+1064077038+1062344296+1062298381+1064139097+1066132048
2053+1065436834+1061140110+1055988593+1054010263+1056383637+1060770538
2044+1064657001+1067785398+1070878928+1073044624+1072017748+1067596840
2036+1063046854+1061446631+1062245916+1063100973+1062988897+1062042803
2027+1060886649+1061054366+1063711370+1067656253+1070175113+1069866276
2019+1067762109+1066050935+1066350708+1068828483+1071929490+1072966952
2010+1070725303+1067786589+1067766343+1070021952+1070452656+1067692376
2002+1064786940+1064803612+1067426146+1069822346+1069740307+1067627076
1993+1065945806+1066572081+1069018628+1071240693+1071394119+1068784420
1985+1064314488+1060067914+1057926300+1058749799+1062583599+1068292319
1976+1072925138+1073741823+1071256770+1068287688+1066395565+1065256348
1968+1064956509+1066308300+1068656929+1069965054+1069466733+1068426889
1959+1068155764+1068466123+1068232312+1066645387+1063974423+1061682427
1951+1061514578+1063831517+1066860739+1068266913+1067548014+1066246770
1942+1065907830+1066596428+1067590291+1068418487+1068837150+1068741615
1934+1068280675+1067643351+1066877346+1066088713+1065434320+1064845227
1925+1064300925+1064282930+1065096571+1065889769+1065595222+1064647474
1917+1064517799+1065360882+1065801974+1065133224+1064281143+1064439664
1908+1065417515+1066182793+1066526232+1066987900+1067606368+1067870215
1900+1067651820+1067278873+1066970102+1066812971+1066821506+1066722861
1891+1066194570+1065408451+1065116882+1066100886+1068363574+1070701420
1883+1071543576+1070737411+1069659326+1069391244+1069797932+1070240347
1874+1070321262+1070010440+1069473812+1068768674+1067854999+1067080127
1866+1067042284+1067822911+1068839532+1069311190+1068921439+1068146700
1857+1067825557+1068407571+1069586021+1070532975+1070570686+1069742358
1849+1068646741+1067740739+1067027530+1066443068+1066185903+1066372541
1840+1066789352+1067154161+1067227665+1066715054+1065378547+1063326977
1832+1061054895+1059357483+1058975671+1059816835+1060974576+1061546467
1823+1061206535+1060089879+1058422702+1056553272+1054767866+1052852852
1815+1050303624+1046692454+1041602201+1034900942+1027106910+1018753227
1806+1009680512+999130567+986098347+970026849+951778937+933346305+916204199
1796+900476007+884958471+867772103+849175195+833193080+822325432+814915131
1786+808884275+803985887+801241883+801535701+805221500+812282474+822165654
1776+833941883+847094978+861962753+878273950+893546362+905738608+914773942
1766+920525667+922435455+919841767+912107875+900184703+886122961+870515579
1756+854577129+841779581+833821405+829180117+826369225+825643577+827191136
1747+829831996+832359722+834483208+836530543+838809043+841412391+844380150
1737+847695913+851459252+856300874+862754164+870354743+878659070+887442862
1727+896547466+906497402+918045510+930579872+942470228+953145217+963334191
1717+973044891+980664391+985708927+988959390+990725808+990846220+988924854
1707+984495478+978248145+971899587+964651710+952488971+934140098+915042289
1697+896664835+876053936+856046553+839651663+824054469+806876371+790467124
1687+777373045+765826856+754201340+747099214+747442124+751941630+757900635
1677+765102531+774595497+786292334+798744789+812305762+829131953+848787031
1667+867047977+882060114+895541298+909379947+923190213+935086987+944461658
1657+951685386+957185702+962292164+969207982+976263332+980631311+983489442
1647+986710927+991141163+995673088+999057526+1001325440+1002969527+1004266801
1638+1005356067+1006895819+1009495130+1012157559+1013837373+1014444660
1629+1014251868+1013705184+1013054761+1011988519+1010188426+1007954518
1621+1005407473+1001410323+993879941+982142019+968851575+955247465+939091877
1611+918206942+892612044+864402022+836212113+810169772+788192131+772444753
1601+764745992+765599528+774357650+789963312+810827606+834300010+857449154
1591+878529197+897054123+912938651+926126149+936578971+944208396+948925371
1581+950784016+949698257+944645385+934271361+920970464+909480775+899311848
1571+887028631+872417427+860309601+853697526+851138175+851103044+852859339
1561+856269911+863547957+876804328+890027552+899788071+907737315+914804111
1551+921522176+928504088+935563011+941981302+947650261+952943824+958138677
1541+964239530+972816637+981735794+987858414+991262237+993402593+995777555
1531+998440976+1000200844+1000189928+997983874+993562768+986557302+975060469
1521+958671202+942792827+932791021+929573572+932846066+940993659+950892321
1511+959764504+966051268+970216333+975709900+984493824+992174589+996712865
1502+999061958+999974179+999844239+999015646+997653667+995544207+991954606
1492+985625300+975713142+963804591+952811967+943105567+933124337+921477054
1482+908058458+894518325+882756717+873309667+866007339+860955394+858401468
1472+858116052+858844743+859032969+857758124+855002409+852164522+851187796
1462+852147188+853683169+855027417+857430100+863325526+871839582+880796648
1452+889526255+897434479+903669374+907877708+910342317+911348353+910970444
1442+909460861+907335391+904974256+902824836+902377326+905127352+910459619
1432+917329390+925554788+934603685+943002423+949737226+954841968+958410795
1422+959964705+958865515+955418225+951953535+950590894+950462080+949744768
1412+947630677+944471053+941114931+938066126+935292349+932675769+930111655
1402+926878195+921551948+913209248+902794600+892496197+884110162+879118951
1392+878113511+879908444+883003959+887049538+892544560+899473214+906981168
1383+914271255+920925541+926796421+931917901+936388032+940462523+944616870
1373+949025935+953255175+956842263+959653156+961757058+963339616+964714959
1363+966350578+968622263+971312016+973682810+975023617+974911939+973100796
1353+969209040+962544301+952360355+938335663+920759809+900540382+879236055
1343+858540736+839789343+824717330+815910713+814835407+820513099+831145414
1333+845358068+861867217+879235063+896251398+912147902+926374516+938453297
1323+948074151+955174556+959933279+962698124+963823381+963560592+962196032
1313+960224253+958166861+956119791+953646845+950240575+945792806+940486341
1303+934304507+926863772+917698763+906587050+893703692+879642346+865270775
1293+851456076+838845564+827810927+818590873+811539558+807138962+805660408
1283+806882789+810173411+814807024+820275384+826382126+833117392+840529876
1273+848706316+857687597+867215429+876543854+884628330+890608640+894121164
1264+895141027+893645735+889654672+883622691+876500651+869268388+862561968
1254+856733431+852084799+849044859+848188875+850002862+854562640+861495395
1244+870199530+879980360+890075982+899757373+908417776+915542925+920736917
1234+923854001+925035957+924619676+923018990+920618821+917760954+914820387
1224+912149159+909899373+908074601+906726913+905860806+905154874+903982974
1214+901648040+897501235+891078313+882346589+871688603+859515147+845967935
1204+830966979+814467489+796881578+779563684+764809043+754990105+751418764
1194+753838251+760675603+769661118+778615472+786137055+791765986+795666078
1184+798230656+799760550+800285930+799733160+798228870+796023874+793129487
1174+789281860+784329353+778489039+772170716+765690300+759248654+753086338
1164+747507755+742820155+739405349+737742539+738178271+740770967+745489530
1154+752388676+761434265+772235686+784019391+795857613+806945178+816616116
1145+824069554+828246263+828102496+822908570+812308277+796406282+775968260
1135+752401643+727414429+702670884+679617672+659329637+642315220+628554376
1125+617943827+610783282+607759352+609445716+615871285+626521397+640598422
1115+657182002+675199808+693400151+710586916+726076731+739861989+752111265
1105+762481055+769953746+773290416+771719171+765507631+756131372+745935253
1095+737525863+733153716+734154260+740618004+751591641+765676936+781486042
1085+797737033+813289304+827322729+839396085+849231497+856554070+861149641
1075+862805174+861136475+855845756+847374572+837043882+826281496+815831651
1065+805825743+796303601+787303398+778694203+770517367+763550738+759052952
1055+757739667+759158676+762009927+764923633+767102363+768531495+769747987
1045+771490389+774410645+778625925+783232413+786369543+785982173+780872800
1035+771674447+761111336+752823085+749355153+751065004+756555924+763561786
1026+769556783+772571913+772233503+769932111+767726719+767017611+767946372
1016+769502664+770039556+768081868+763161251+756188601+749095275+743906443
1006+741758412+742448664+744779761+747362930+749266432+750207961+750510116
996+751102120+753423624+758882853+768051038+780292176+794223582+808579407
986+822670326+836169638+848745880+860059449+869958309+878511664+885853886
976+892001052+896817136+900196347+902178580+902731814+901575197+898463076
966+893589432+887660398+881785283+877310191+875334706+876067168+878726421
956+882185620+885699269+889117515+892681182+896728415+901489189+906997972
946+913054763+919153896+924544981+928592015+931068401+931932523+930999859
936+928194193+924037464+919579705+915906411+913798406+913543027+914798951
926+916855681+919182412+921425912+922748724+921611889+916696896+908155648
916+897901307+888660479+882588736+880419732+881536851+884707194+888909375
907+893796912+899649531+906909053+915546961+924766420+933420405+940803051
897+946942344+952122442+956316089+959214446+960736533+961285797+961336674
887+960937925+959878630+958127032+955784357+952916235+949781950+946854747
877+944279783+941697011+938775366+935473099+931720941+927345089+922399728
867+917221747+912104567+907153383+902511566+898547695+895621418+893632437
857+891984777+890123220+887922393+885362380+882030937+877277243+870785579
847+862706396+853284354+842628221+830844053+818270789+805700568+794498545
837+786315291+782326809+782541367+785878632+791092208+797560054+804974721
827+812553467+819176525+824358013+828552718+832296738+835409521+837263667
817+837616766+836998629+836528625+837617758+841559135+848854581+858723735
807+869363990+878842864+886021008+891009175+894954389+899202485+904286717
798+909612898+914268079+917971477+920917072+922939068+923314859+921361009
788+917016318+910980170+904504980+899084058+896153481+896570424+900012090
778+905119942+910477020+915284966+919280858+922564798+925470565+928172889
768+930525025+932547881+934807326+937948161+941932410+946014113+949524057
758+952417783+954897410+956864757+958080720+958596838+958745368+958852813
748+959053940+959264198+959366019+959394336+959314679+958732334+957234727
738+955059768+953115577+952239083+952602701+953875099+955668047+957602976
728+959228075+960177940+960183365+958794525+955543930+950659899+945344040
718+941109903+938884596+938658857+939785437+941636143+943945937+946483786
708+948866621+951030067+953287329+955498147+956829097+956771405+955847077
698+955051299+955040251+955836095+956896514+957622890+958033548+958592207
688+959364034+959958354+960244299+960353530+960105428+959228538+958023624
679+957092614+956386285+954948221+951662495+945936110+937393406+925695379
669+912949766+904876273+901928494+898688881+892880060+886193422+881239129
659+878970355+878756590+879902754+882253832+885529369+888718568+890881287
649+892123648+893054525+893964298+895163720+897349860+900976445+905536951
639+909821899+913036701+915530289+918269265+921944346+926774588+932513808
629+938278368+942807183+944880321+943241659+936831175+926052314+913795892
619+904612557+902218343+907089208+916360734+926240276+934068380+938588859
609+939822024+938890154+936943184+933937250+928795194+920900334+911364827
599+902585533+896429634+893208348+892226659+892433080+892664112+892301024
589+891733896+891541965+891520331+891071035+890385480+890639801+892809996
579+896767185+901783933+907307339+913019632+918797887+924620800+929989258
569+933855079+935791331+936759192+938033244+939789605+941198161+941617354
560+941181952+940115710+938260902+935823352+933706946+932239772+930185291
550+925928726+919497401+912719594+907493249+904577360+903896503+905026854
540+907068367+908983712+910513209+912029078+913482226+914316575+914310488
530+913902146+913726622+913940784+913833736+912274599+908500079+902218475
520+893911171+885587855+879965805+877965378+877922307+877515817+875722869
510+872996529+870088513+867528368+866259212+867076426+868859053+869296572
500+868131090+867155356+866987705+866616545+865736346+865728208+868189774
490+873475663+880671141+888142840+894128111+898018676+901351112+906069675
480+911717462+915740811+916621936+915621987+914850291+914793592+914585120
470+913846637+912950825+912073273+911250038+910682183+910194051+909174188
460+907923888+908314036+911658314+916280680+919732866+921569348+921714306
450+919272853+914604704+910568784+909724312+910839446+910263983+906834291
441+902941344+900574322+899532890+899287898+899967829+901286407+902128563
431+901954230+901669807+902013312+901730079+898830200+893490390+887847764
421+883596955+882498361+886100665+891961753+896401450+898292382+898391226
411+897960389+897178372+895015190+891526682+888979968+889166077+890596069
401+889488345+883409986+876402469+877795014+888062256+898164031+902664661
391+902901582+900836780+895190714+885561854+877542943+878323173+886062821
381+892043594+891122640+882849276+868003334+850691725+840501163
##END=
