##TITLE=LIS-P257
##JCAMP-DX=4.24
##DATA TYPE=INFRARED SPECTRUM
##DATE=20/5/2021
##SAMPLING PROCEDURE=Diamant-ATR
##ORIGIN=Angelika Moesle
##XUNITS=1/CM
##YUNITS=TRANSMITTANCE
##RESOLUTION=4
##FIRSTX=3997.453
##LASTX=373.96442
##DELTAX=-1.4165319
##MAXY=1.0053544
##MINY=0.39547548
##XFACTOR=1
##YFACTOR=9.3630925e-010
##NPOINTS=2559
##FIRSTY=0.97615385
##XYDATA=(X++(Y..Y))
3997+1042554954+1042631982+1042499571+1042497406+1042750451+1042918002
3989+1042582455+1041837197+1041263246+1041246122+1041522085+1041535326
3980+1041137711+1040753146+1040887594+1041599621+1042381037+1042558837
3972+1042017416+1041484398+1041791999+1042868157+1043832402+1044107410
3963+1043971561+1043937758+1044001799+1043772563+1043136608+1042462585
3955+1042180511+1042341187+1042666612+1042944739+1043246611+1043681594
3946+1044052981+1044026881+1043565734+1042959317+1042452145+1042082349
3938+1041920400+1042104820+1042611165+1043201349+1043555549+1043431477
3929+1042926915+1042477990+1042387467+1042474871+1042385939+1042178983
3921+1042151101+1042196044+1041924410+1041438373+1041359690+1041915625
3912+1042701497+1043192246+1043058371+1042322344+1041481152+1041218367
3904+1041678622+1042264987+1042618231+1042990383+1043341654+1043207715
3895+1042472388+1041539591+1041031336+1041371149+1042189996+1042643186
3887+1042361812+1041696511+1041377324+1041766790+1042622433+1043372592
3878+1043486415+1043007316+1042354555+1041844200+1041652013+1041942808
3870+1042583346+1042840656+1042277846+1041411572+1040966086+1041129117
3861+1041624639+1042208648+1042635419+1042645350+1042367414+1042419551
3853+1043064036+1043494627+1043406459+1043261571+1043267491+1043311670
3844+1043191227+1042754016+1042039315+1041317739+1040885811+1040821452
3836+1040965385+1041216266+1041694474+1042470097+1043262080+1043697254
3827+1043816296+1043934257+1044134719+1044305708+1044474850+1044587845
3819+1044273687+1043540780+1043069511+1043443190+1044270632+1044748585
3810+1044608980+1044179026+1043987985+1044130709+1044168077+1044022488
3802+1044229508+1045047655+1045906353+1046328732+1046345792+1046066965
3793+1045592386+1045101956+1044745529+1044564992+1044578042+1044769274
3785+1044942936+1044861389+1044626295+1044590965+1044931987+1045478946
3776+1045903425+1045960718+1045681000+1045441896+1045612757+1046023805
3768+1046211854+1046174804+1046170984+1046150995+1045978607+1045866821
3759+1046190719+1046862832+1047344031+1047479116+1047590965+1047809316
3751+1047750750+1047214103+1046698209+1046543327+1046730357+1047092578
3742+1047134402+1046495264+1045388295+1044405207+1044402024+1045947350
3734+1048299046+1049830430+1049763461+1048586913+1047399033+1047173616
3725+1047960125+1048797306+1049040866+1049028707+1049071741+1048969759
3717+1048614923+1048122583+1047418258+1046345665+1045302546+1045123728
3708+1045937801+1047156046+1048248437+1048860838+1048745042+1048027794
3700+1047335628+1047115113+1047239821+1047460337+1047687409+1047818419
3691+1047676269+1047355745+1047332318+1047742665+1048138880+1048205594
3683+1047975530+1047626933+1047328817+1047162603+1047169160+1047494076
3674+1048199547+1048949897+1049434025+1049599539+1049523530+1049343883
3666+1049168439+1049050860+1049024697+1049120758+1049355979+1049726157
3657+1050227727+1050778188+1051117045+1051036707+1050575624+1049943807
3649+1049432879+1049263864+1049447330+1049805540+1050111613+1050262167
3640+1050301826+1050225881+1049903447+1049303906+1048601554+1047924539
3632+1047216140+1046565416+1046559178+1047642529+1049099878+1050083985
3623+1050401580+1050212831+1049931139+1050003965+1050363257+1050523678
3615+1050334547+1050093088+1050142615+1050501143+1050884626+1051083115
3606+1051160397+1051221383+1051269764+1051317190+1051278230+1050872849
3598+1050039614+1049259981+1049116429+1049625193+1050211303+1050378345
3589+1050218433+1050375034+1051286188+1052326123+1052610361+1052036793
3581+1051053004+1050117660+1049413081+1048985801+1049021450+1049617490
3572+1050347215+1050523360+1049926174+1049016230+1048470735+1048416943
3564+1048374227+1048025375+1047467276+1046898290+1046346811+1045704745
3555+1044935679+1044181955+1043705084+1043625383+1043660777+1043385515
3547+1042750579+1042127738+1041726112+1041272350+1040478202+1039423370
3538+1038293802+1037023357+1035392664+1033354680+1031022018+1028482337
3530+1025841692+1023184623+1020263687+1016528295+1011672058+1005873155
3521+999287362+991554559+982042928+970359502+956376898+939960479+921039644
3512+899958155+877698017+855834539+835978616+819102959+805674508+796091643
3502+790408091+788103566+788673188+791890712+797408050+804773413+813776407
3492+824160232+835179566+845931404+855917932+864985732+873001946+879873123
3482+885670624+890511393+894337244+896793277+897359653+895832788+892624749
3472+888225330+882498935+874801972+864455706+850945771+834279744+815533654
3462+796721041+780031459+767502385+761152895+762540155+771845212+787619884
3452+807355810+828494146+849481675+869787605+888820097+905578685+919604831
3442+931412392+941749682+950844728+958410808+964241222+968642997+972188556
3432+975227771+977830348+979993931+981723232+983032064+983932586+984396216
3422+984374126+983798074+982501401+980281734+977063128+972831832+967527434
3412+961112056+953503070+944241429+932471617+917520694+899437614+879002647
3403+857601780+837316285+820797438+810480582+807515085+811307451+820069241
3393+831658452+844092801+855916150+866351093+875053362+881844519+886653140
3383+889482343+890433538+889784151+887876159+884925940+881097479+876698696
3373+872120903+867598940+863173101+858967524+855430431+853097259+852117609
3363+852275929+853448658+855670680+858829065+862700878+867140785+871836283
3353+876189041+879920167+883501184+887531254+891934557+896165789+899981645
3343+903564255+907049656+910421363+913808793+917405217+921049448+924319300
3333+927098594+929636239+932000348+933912987+935265744+936428096+937827643
3323+939464128+941040965+942372460+943425191+944083681+944173632+943722607
3313+942957360+942002791+940816185+939511618+938472637+937959099+937784163
3303+937552126+937034959+936169322+934880925+933138255+931067806+928847247
3293+926597597+924456422+922482161+920383446+917729624+914589700+911535907
3284+908860059+906256018+903420003+900520520+897942070+895869137+894170775
3274+892526841+890672196+888536877+886179707+883798091+881772902+880343373
3264+879239714+877989194+876522296+875122113+873877959+872556777+871030486
3254+869575556+868613030+868262650+868308357+868578781+869185644+870360346
3244+872201432+874639959+877560322+880850672+884355936+887913209+891506513
3234+895280036+899292917+903390720+907435622+911459389+915423953+919076715
3224+922246622+925054754+927688078+930200704+932632420+935054587+937415450
3214+939622003+941828556+944355824+947241047+950092468+952490317+954420526
3204+956230801+958182717+960145138+961839553+963326121+965004049+967079019
3194+969258326+971088081+972451214+973649279+975078236+976909455+979033378
3184+981162395+982991895+984452872+985854265+987570451+989543821+991310935
3174+992572405+993489097+994399168+995498816+996813759+998218016+999463125
3165+1000452134+1001472908+1002904730+1004757147+1006668895+1008189839
3156+1008980358+1009082404+1009099910+1009734846+1011078754+1012651517
3148+1014022735+1015061652+1015731601+1016056199+1016241511+1016567255
3139+1017166287+1018059871+1019268376+1020639403+1021713842+1022132146
3131+1022124252+1022210574+1022525878+1022805151+1022853468+1022635308
3122+1022115404+1021402039+1020855335+1020792821+1021288981+1022278435
3114+1023492160+1024376704+1024593654+1024523502+1024821427+1025642757
3105+1026690586+1027721355+1028627925+1029330849+1029898944+1030505870
3097+1031069062+1031198991+1030701494+1029954836+1029528829+1029483504
3088+1029325120+1028728698+1027978093+1027513126+1027368238+1027311390
3080+1027297322+1027487090+1027916216+1028413776+1028854615+1029205314
3071+1029281895+1028868047+1028215478+1027961414+1028341650+1028939218
3063+1029359432+1029625464+1029788750+1029717133+1029405903+1029024140
3054+1028578844+1027996172+1027515545+1027512553+1027883941+1028047736
3046+1027630068+1026845087+1026192135+1026042154+1026438751+1027046186
3037+1027358434+1027178406+1026810775+1026640932+1026671934+1026643160
3029+1026439005+1026182905+1026030823+1025938708+1025582026+1024630640
3020+1023206521+1021805766+1020651243+1019454006+1017954388+1016292375
3012+1014636664+1012727017+1009996676+1006010023+1000631462+993874807+985720262
3002+976004922+964460846+951082304+936482016+921554647+906798712+892447395
2992+879268424+868644286+861570228+857724643+855594926+853575722+851208938
2982+849593906+850530905+855027596+862422496+870833461+878428824+884330981
2972+888611422+891953718+895505580+900562471+907855263+917107865+927367936
2962+937636092+947130981+955268147+961722102+966533396+970021281+972519775
2952+974140473+974723209+974069620+972291748+969883968+967416476+965224182
2942+963361007+961720574+960143419+958459444+956560555+954536958+952704848
2932+951444906+951100892+951957299+954022083+956836008+959780562+962554700
2922+965189043+967771503+970340340+972879640+975298306+977503840+979514387
2912+981454590+983448713+985460596+987236050+988550802+989512819+990438041
2902+991471038+992516831+993471145+994293112+994913279+995295170+995584055
2893+996002805+996565743+997037012+997192404+996998625+996513161+995753007
2883+994769473+993760094+992899231+992029202+990773270+989093242+987529137
2873+986742119+987035014+988375167+990596934+993436960+996552629+999645445
2863+1002568800+1005309199+1007846461+1010021758+1011633735+1012713203
2854+1013577376+1014480508+1015310623+1015812257+1016070141+1016537017
2846+1017496806+1018669662+1019474632+1019627032+1019388373+1019248260
2837+1019449041+1019863525+1020248727+1020488658+1020622406+1020759910
2829+1020959608+1021140018+1021198267+1021228823+1021446474+1021866815
2820+1022255772+1022442039+1022508181+1022617292+1022798848+1022994218
2812+1023183922+1023362104+1023483884+1023548180+1023626990+1023708665
2803+1023643287+1023386932+1023201747+1023430665+1024099723+1024876937
2795+1025391749+1025467376+1025113431+1024517263+1024012574+1023814021
2786+1023806063+1023761184+1023655955+1023607192+1023654300+1023731773
2778+1023757682+1023733174+1023814721+1024141738+1024539035+1024637706
2769+1024369892+1024100105+1024166947+1024496065+1024771200+1024853447
2761+1024905266+1025140041+1025578334+1026048011+1026347209+1026416597
2752+1026386741+1026425764+1026562059+1026734257+1026922115+1027107554
2744+1027188910+1027086292+1026868641+1026703446+1026737567+1027042176
2735+1027570356+1028141824+1028562674+1028799232+1028955006+1029083279
2727+1029165718+1029283105+1029604902+1030121878+1030572012+1030709770
2718+1030536999+1030246650+1030050898+1030051916+1030168858+1030203744
2710+1030075088+1029963048+1030112011+1030512745+1030903485+1031088669
2701+1031131130+1031221462+1031476608+1031847868+1032139300+1032160498
2693+1031943675+1031723415+1031676180+1031783891+1031929288+1031994921
2684+1031915793+1031755753+1031654599+1031652307+1031724560+1031959272
2676+1032447028+1033034093+1033472068+1033765600+1034124828+1034637857
2667+1035167693+1035503176+1035544746+1035407624+1035311753+1035326013
2659+1035347530+1035333334+1035354023+1035425130+1035500630+1035617253
2650+1035838978+1036080183+1036156765+1036024354+1035850946+1035811987
2642+1035884813+1035913141+1035831212+1035724519+1035684350+1035712233
2633+1035784422+1035892834+1036019452+1036173634+1036438074+1036838554
2625+1037202175+1037345790+1037387423+1037632957+1038116766+1038452695
2616+1038244848+1037552491+1036852941+1036573414+1036771139+1037275638
2608+1037939412+1038610061+1039053256+1039168160+1039210494+1039568003
2599+1040297537+1041033755+1041372868+1041231353+1040841314+1040531612
2591+1040509841+1040732966+1040990594+1041114921+1041031909+1040726727
2582+1040353048+1040215099+1040428930+1040772116+1040972451+1040914776
2574+1040604884+1040196638+1039937863+1039897185+1039927423+1039943911
2565+1039986753+1040069319+1040204659+1040434659+1040662750+1040663195
2557+1040375392+1040023548+1039914628+1040241836+1041034519+1042117107
2548+1043082497+1043484632+1043222038+1042677562+1042325972+1042260212
2540+1042231566+1042054020+1041785824+1041581606+1041551813+1041754313
2531+1042144607+1042526880+1042679153+1042531337+1042139706+1041607579
2523+1041170240+1041164066+1041646475+1042209922+1042406947+1042229274
2514+1041997173+1041961333+1042134867+1042313304+1042193243+1041698038
2506+1041185073+1041064248+1041284063+1041516164+1041686389+1041909132
2497+1042117489+1042220489+1042353282+1042557055+1042575325+1042304264
2489+1042023273+1041979794+1042223354+1042854789+1043885940+1044911679
2480+1045470989+1045608174+1045572525+1045186178+1044146687+1042840847
2472+1042143589+1042322789+1042770440+1042997194+1043273348+1044006319
2463+1045007805+1045701371+1045724543+1045099919+1044090795+1043090200
2455+1042471561+1042371234+1042683928+1043305432+1044179981+1045071718
2446+1045588567+1045605309+1045405356+1045282494+1045277083+1045376200
2438+1045636502+1046014383+1046335289+1046509078+1046578912+1046551284
2429+1046397356+1046261317+1046437844+1047012176+1047681043+1048068854
2421+1048113352+1048030532+1048034224+1048153521+1048183186+1047833188
2412+1047139940+1046640853+1046789688+1047291258+1047459382+1047152354
2404+1046848827+1046856148+1046985821+1046999254+1046908030+1046783831
2395+1046584260+1046260362+1045914311+1045763884+1045878534+1045998977
2387+1045804180+1045358057+1045077702+1045238887+1045694496+1046112036
2378+1046382969+1046769890+1047669521+1049179070+1050883098+1052144122
2370+1052630669+1052487372+1052055954+1051586659+1051102340+1050413357
2361+1049548357+1049143293+1049706486+1050525143+1050344160+1049081926
2353+1047784043+1047125935+1046948836+1046922290+1046922608+1046979074
2344+1047170815+1047470713+1047693457+1047706698+1047501652+1047082838
2336+1046574265+1046291619+1046354514+1046414162+1046123304+1045642168
2327+1045293252+1044999720+1044494585+1043867733+1043459551+1043285061
2319+1043091728+1042939455+1043108789+1043493608+1043631621+1043335734
2310+1042948368+1042926660+1043342927+1043812413+1043890969+1043526838
2302+1043037809+1042680617+1042431646+1042232139+1042236722+1042636311
2293+1043330959+1044031273+1044641383+1045257157+1045794695+1045993375
2285+1045852498+1045780117+1046189955+1047036940+1047826504+1048121119
2276+1047949175+1047581289+1047136057+1046681467+1046472792+1046725901
2268+1047262229+1047545704+1047146497+1046258325+1045633892+1045826016
2259+1046701265+1047816064+1048880763+1049693818+1050025227+1049814961
2251+1049303205+1048882418+1048888593+1049419320+1050198507+1050763864
2242+1050987626+1051153204+1051229913+1050598096+1049077406+1047612164
2234+1047199971+1047688809+1048232204+1048425982+1048595507+1049318229
2225+1050847385+1052842272+1054591434+1055380043+1054802973+1053238932
2217+1051886684+1051773562+1052926493+1054813286+1057061663+1059332703
2208+1060953592+1061199762+1059994695+1058100835+1056470906+1055602405
2200+1055548104+1055953358+1055951321+1054928955+1053614712+1053493887
2191+1055108983+1057697427+1060164219+1061571914+1061232101+1059417179
2183+1057656240+1057405359+1058460573+1059367588+1059350655+1059164070
2174+1059800025+1060885859+1061010949+1059562640+1057563998+1056482174
2166+1056824660+1058206637+1060024233+1061703561+1063189429+1065313925
2157+1068378158+1070928980+1071339072+1069325024+1065703201+1062041591
2149+1060122586+1060367546+1061225990+1061005729+1059559839+1057690870
2140+1056017781+1054930419+1054724163+1055355853+1056374972+1057181915
2132+1057347939+1056851461+1056024720+1055142658+1054147157+1052931713
2123+1051792405+1051316171+1051801317+1052946545+1054069556+1054521855
2115+1054044538+1052874611+1051485759+1050341868+1049968762+1050750814
2106+1052310591+1053616431+1054063636+1053955097+1053803143+1053763292
2098+1053856553+1054230932+1054969951+1055798475+1056258985+1056274518
2089+1056195135+1056134977+1055789372+1055184610+1054898207+1055164494
2081+1055418939+1055140303+1054665342+1054747717+1055543647+1056397571
2072+1056621015+1056181958+1055591392+1055416265+1055881359+1056670223
2064+1057208907+1057289245+1057166892+1057027797+1056803207+1056529473
2055+1056397317+1056306666+1055890271+1055331408+1055635890+1057407905
2047+1059657429+1060839197+1060683614+1060066248+1059768705+1059992403
2038+1060537262+1061229809+1062250202+1063577113+1064379727+1063897764
2030+1062540169+1061362475+1061030493+1061460892+1061949412+1062023639
2021+1062385287+1064085368+1066703477+1068409860+1068028160+1066313310
2013+1065130014+1065824217+1068257206+1071093603+1073027949+1073741823
2004+1073655629+1072987080+1071425012+1068946507+1066565846+1065379685
1996+1064908289+1063588317+1061054237+1058803568+1058212621+1058884416
1987+1059330221+1058476169+1056673406+1055485718+1055956477+1057453167
1979+1059010715+1060752048+1062644125+1063532997+1063128125+1062921933
1970+1064023109+1065739741+1066638545+1065960639+1064043607+1061888491
1962+1060225268+1058919110+1057458196+1055897783+1054952318+1055204853
1953+1056414695+1057720535+1058502461+1058703242+1058277617+1056990110
1945+1054995924+1053061068+1051904063+1051645034+1052092431+1053025737
1936+1053937209+1054120038+1053474280+1052748884+1052522257+1052401878
1928+1051762867+1050829306+1050391267+1050723759+1051288670+1051438269
1919+1050997239+1050206656+1049552749+1049460634+1049878493+1050290622
1911+1050286675+1050146434+1050474915+1051176948+1051460041+1050906715
1902+1049919553+1049118403+1048798134+1049002989+1049630668+1050327608
1894+1050644121+1050528835+1050463902+1050875140+1051454439+1051497536
1885+1050867310+1050077810+1049688343+1049922800+1050661691+1051553238
1877+1052223696+1052503223+1052482725+1052455479+1052754358+1053427872
1868+1053988009+1053838601+1053054257+1052254952+1051932073+1052121205
1860+1052581333+1053111232+1053522024+1053633046+1053539148+1053521196
1851+1053611529+1053617385+1053488221+1053390632+1053562384+1054063190
1843+1054466280+1054264035+1053531764+1052722211+1052245531+1052228598
1834+1052452550+1052655432+1052859714+1053152992+1053287440+1052991934
1826+1052432689+1051960974+1051728619+1051627146+1051504284+1051380721
1817+1051349337+1051286060+1051023976+1050743302+1050740629+1050923776
1809+1050908880+1050523296+1049936805+1049412763+1049010501+1048571953
1800+1048125066+1048000421+1048321772+1048880636+1049447202+1049720173
1792+1049321603+1048367034+1047470459+1046997789+1046896508+1046804202
1783+1046313326+1045391224+1044279353+1043129478+1042042052+1041147323
1775+1040431476+1039752997+1039043388+1038306980+1037500291+1036574814
1766+1035532268+1034415369+1033168732+1031572606+1029614642+1027626503
1758+1025621686+1023225747+1020396607+1017486111+1014774613+1012574235
1749+1011212948+1010555158+1010312298+1010445919+1010823227+1011123507
1741+1011039731+1010306251+1008947128+1007261498+1005168130+1002337463
1732+999478403+997703587+997145041+997663545+999192829+1001605574+1004648481
1723+1007741297+1010223430+1011970110+1013324140+1014376043+1014839227
1714+1014714901+1014125608+1013191538+1012223728+1011378334+1010377549
1706+1008959987+1007225276+1005280425+1003178718+1001040344+998534402+994752476
1696+989128000+982338879+975377434+967870302+958933450+948831953+937643668
1686+921923361+896794996+865888864+836287362+807112186+776154427+742759222
1676+707646494+676321485+656240463+649344331+653815049+664848516+674206028
1666+677103474+673152723+663532172+652320142+645381168+645347428+651194966
1656+662722937+686954917+732172388+777176028+803091793+821389022+843216597
1646+867313110+884852413+894623328+900450877+904261704+906256845+906191149
1636+903832960+900023724+897006535+896381212+898919875+904820122+912750651
1626+920235693+925708661+928827195+929601735+928373432+925527678+920778133
1616+913741187+905464607+897112782+888352202+878420103+867080500+854568995
1606+841103113+826584245+810726052+793542794+775658713+757955232+741066907
1596+725327248+710998784+698349904+687479723+678242909+670321165+663174726
1587+656080614+648387534+639630583+629619864+618622429+606838676+593287681
1577+576411006+557919171+541958550+528745713+516030340+503285939+492637706
1567+485550597+481344892+478888318+477576303+478619294+486511882+502204943
1557+515518107+524136186+531904416+539678662+546837642+553017799+557554213
1547+559837539+560098732+558826823+556175610+551946733+545756009+538290001
1537+530648708+522701214+514037300+505412345+498334244+493145642+489522482
1527+487351260+486093387+484857317+483528878+482448010+481469664+480904307
1517+482024104+485537961+491032445+498095841+506446234+515968623+529043606
1507+550619950+576198066+594102518+605512274+615878019+627763563+641845666
1497+657706469+672961746+684898981+693930558+702866965+714096884+726862515
1487+738119171+746784135+753675174+759624566+764980146+769351174+771944711
1477+772379439+770614553+766298782+758958182+749338713+739246574+729201798
1468+718041905+704098770+687436689+671571812+659836058+652378963+648145502
1458+646072633+644200100+641326844+638664810+637788414+639704491+644618340
1448+651433115+658113824+663480799+667727373+671029118+673011591+673515581
1438+672915211+671696839+670149476+668638781+668045987+669603663+673811086
1428+679916189+687513208+697086588+708260868+719770887+732052518+747031451
1418+763555646+777547352+788358012+798072906+807855025+817448967+826144551
1408+833632522+840298207+846597725+852214689+856538227+859540965+861401149
1398+861857585+860055522+854270561+842113256+822431568+796432601+767302877
1388+741059587+725141427+721263185+723544983+725385178+722878981+714526901
1378+701867517+689386760+681395628+677947212+675138252+671277580+669683364
1368+674283883+684896817+698100487+711327138+723483297+733306603+739899271
1358+743730661+745756995+746502252+746048554+744351274+741414295+737420512
1349+733027076+729486100+728184970+729922929+734695391+742099904+751494593
1339+761679038+771215305+779310010+785789174+790588246+793823276+796162814
1329+798795183+802922905+809192440+817422294+826820611+836565362+846171463
1319+855315208+863616296+870818564+876966064+882239842+886767090+890635083
1309+893958599+896845923+899353011+901543904+903558143+905523747+907441606
1299+909206237+910686376+911764507+912371370+912491622+912117115+911246704
1289+909942073+908312399+906419431+904239678+901737683+898928978+895805224
1279+892220577+887976613+883004325+877354767+871074665+864234618+857026174
1269+849704545+842480442+835569797+829260539+823738999+818818402+813962419
1259+808628738+802478437+795230398+786530294+776148888+764227186+751184573
1249+737399568+723010564+707947474+692127222+675756064+659538388+644493632
1239+631504748+621028490+613051744+607061292+602007583+596455169+588957013
1230+578445552+564395852+546824082+526402102+504640574+483714763+465874384
1220+452862487+445591021+444080931+447677545+455393924+466155343+478935298
1210+492873499+507383105+522185352+537188443+552251024+567088252+581443579
1200+595250038+608553653+621383517+633728743+645450492+656063808+664674408
1190+670182706+671473650+667469044+657355261+641197234+620584340+598652110
1180+579122758+564761510+556306366+552633043+551834375+552278780+553101638
1170+554191864+555935233+558889463+563509717+570030832+578518696+588938425
1160+601097130+614541559+628561149+642197828+653975725+661402519+661184805
1150+651173640+633059304+612898899+598268182+594448187+602598849+620341226
1140+643536580+668234482+691894230+713351817+732151635+748190875+761679165
1130+772972170+782311221+789688169+794781792+796936463+795326332+789264963
1120+778370847+762488591+741487822+715021597+682652641+644955797+604947936
1111+567847642+538633188+519702614+510714229+509901238+515171706+524502163
1101+535989423+547960589+559282113+569586300+579052224+587848389+595716341
1091+602044315+606316289+608446196+608675497+607242402+604193320+599432062
1081+592929853+584933437+575897213+566150170+555730442+544580798+532755762
1071+520396530+507666707+494775412+481943193+469326492+457127681+445846008
1061+436270718+429083441+424507336+422376982+422427432+424421237+428092523
1051+433126815+439223006+446106947+453499778+461186270+469109446+477261477
1041+485511542+493690310+501764104+509743332+517536961+525102882+532616762
1031+540282914+548044237+555631070+562841423+569700823+576409032+583160085
1021+589941566+596534170+602789381+608849031+614983099+621256389+627446795
1011+633286758+638741137+644007913+649251516+654444002+659517253+664503419
1001+669420261+674194251+678809602+683355947+687835450+692090746+695998844
992+699620413+703113454+706594208+710108129+713648214+717161626+720635887
982+724249244+728310952+732930250+737839134+742669081+747305631+751868527
972+756481078+761181096+765955086+770738052+775437879+780029613+784604478
962+789305642+794235024+799382247+804576897+809521812+813928998+817628040
952+820540700+822562324+823410646+822550802+819449583+814144484+807451107
942+800184289+791881354+780310223+762385909+735866465+700856546+660464883
932+619994538+584589614+556885155+536737036+523009642+515248829+513768849
922+518764150+529587764+544617338+561729425+579072340+595503783+610495448
912+623978709+636330365+648143974+659786531+671268031+682521758+693511618
902+703978199+713452972+721751323+729179263+736102449+742600902+748630568
892+754219332+759425122+764276713+768683517+772289298+774598724+775469327
882+775518854+776012085+778173631+782373925+787986051+794096438+800173021
873+806009992+811432032+816370072+821030239+825685760+830328485+834696520
863+838638677+842288574+845851894+849397008+852924552+856451396+859833033
853+862522123+863592360+862013805+856888416+847608059+834249442+818240568
843+802410386+789470264+779692920+770294220+758090444+743518166+731777447
833+729284300+738691212+757236584+779256537+799778780+816340788+828605041
823+836911349+841063772+839850747+830842214+809916753+771470641+711736848
813+635205254+558078891+501974593+480862642+493201822+526148675+565626065
803+602164694+630826650+649987989+661243435+668727267+676703376+687037355
793+698752166+709763988+719015571+727284830+736283814+747111980+759548812
783+772520763+784828367+795553405+804345560+811521346+817728685+823479970
773+828911305+833761941+837674241+840726633+843504209+846383894+848922175
764+850257552+850055371+848769838+846985854+844844615+842229052+839193593
754+835972059+832778470+829916737+828010592+827749207+829272252+832039197
744+835376591+838886056+842240638+844918014+846328001+846016899+843605108
734+838659939+830946615+821054621+810631837+801646412+795430733+792474721
724+792672255+795350141+799271099+803073268+805827545+807041715+806343247
714+803575284+799101956+793642994+787923538+782751042+779176326+778284843
704+780820196+786821216+795378724+804947457+814221257+822682512+830290035
694+836951709+842182899+844471827+840713137+827375082+803855066+775052805
684+749539685+734271039+730626808+735214595+743867400+754271087+765611072
674+776978176+786783148+794114581+799952060+806152779+812414993+816626554
664+818807071+820000043+820751540+821384439+822090928+822676210+822818488
654+822419664+821294234+818879642+814613716+808239526+799585193+788687129
645+776649631+765923193+758915531+756123377+755722452+754904814+751649412
635+745573847+737511481+728372892+718374587+707255690+694938792+681716979
625+667971633+654153016+640948836+628959209+618283571+608791866+600581046
615+593880857+588740445+585058209+582900292+582640881+584565487+588417693
605+593592418+599672120+606698498+614947323+624192604+633290196+641091114
595+647618914+653820078+660449541+667576628+674963826+682610817+690650967
585+698678257+705769950+711554274+716630263+721682762+726854813+732039850
575+737131117+741971886+746426180+750432822+753939614+756957184+759647483
565+762233127+764852064+767490290+769972551+772076549+773669174+774642968
555+774829107+774305701+773784269+774130129+775294773+776283273+776366093
545+775638597+774317988+772385232+770021759+767659750+765517175+763424508
535+760961344+757504080+752461767+745941861+738948522+732273033+725319354
526+716837028+706681103+695502048+683053184+668298714+650910919+631949025
516+613219677+596342493+582170503+570620506+561227536+554316063+551231396
506+552828094+558321560+565903810+573505284+579107352+581429256+580492512
496+577359145+573185333+568431014+563076452+557151951+550607281+543155151
486+534844004+526628824+519733902+514239386+509059951+503536088+498184550
476+493550514+489370623+485550756+482743929+480951415+478939627+475846397
466+472171546+468927444+466594273+465161274+464643598+465337514+467589456
456+471170188+475263471+478906206+480880563+480206317+477329815+474130211
446+472521990+472947105+474247725+474853697+473827734+471270674+468209942
436+465947624+465086665+465383222+466542200+468379657+470515740+472635844
426+474803852+477064197+478933579+479973452+481078001+484350527+489731762
416+494008224+495991238+497045847+498847051+502598261+508333886+514385579
407+518907352+522208651+525990450+530733724+535422921+538932258+541312028
397+544633889+550515867+557637288+563891799+568566099+572142087+575464649
387+579160381+582442837+583096616+580907760+578583820+577867145+578287868
377+579062791+579960321+581350701
##END=
