##TITLE=JB 272
##JCAMP-DX=4.24
##DATA TYPE=INFRARED SPECTRUM
##DATE=9/8/2018
##SAMPLING PROCEDURE=Diamant- ATR
##ORIGIN=Rieke
##XUNITS=1/CM
##YUNITS=TRANSMITTANCE
##RESOLUTION=4
##FIRSTX=3997.453
##LASTX=373.96442
##DELTAX=-1.4165319
##MAXY=0.96645701
##MINY=0.70800298
##XFACTOR=1
##YFACTOR=9.0008323e-010
##NPOINTS=2559
##FIRSTY=0.93616158
##XYDATA=(X++(Y..Y))
3997+1040083345+1040003946+1040097715+1040042884+1039823029+1039647278
3989+1039643503+1039776608+1039948187+1040052353+1040005071+1039881172
3980+1039936069+1040289094+1040649603+1040644173+1040401803+1040416703
3972+1040746352+1040882437+1040557158+1040103278+1039833360+1039644364
3963+1039450998+1039479076+1039858656+1040309888+1040501532+1040437496
3955+1040347833+1040379155+1040486103+1040564641+1040573515+1040504049
3946+1040355316+1040229628+1040307636+1040619605+1040956936+1041149375
3938+1041214537+1041192684+1041081697+1040965545+1041024150+1041273275
3929+1041417240+1041176261+1040594772+1040018250+1039832698+1040018382
3921+1040167777+1040060962+1039965140+1040244660+1040762908+1041108980
3912+1041197319+1041229370+1041372474+1041638088+1041964890+1042260369
3904+1042348907+1042100246+1041757087+1041712454+1041878670+1041806687
3895+1041361945+1040846214+1040643577+1040771715+1040798866+1040587355
3887+1040541927+1040943361+1041330026+1041207318+1041036136+1041478759
3878+1042223550+1042562205+1042404864+1042070844+1041907476+1042024423
3870+1042145276+1041904430+1041439093+1041218841+1041561933+1042208981
3861+1042392215+1041867346+1041166195+1040915614+1041357839+1042309770
3853+1043150184+1043307923+1043011782+1042555385+1042031773+1041579482
3844+1041453463+1041792251+1042383872+1042996551+1043756837+1044651817
3836+1045109274+1044853329+1044277336+1043815045+1043475661+1043075221
3827+1042724249+1042696833+1042947878+1043293685+1043838024+1044455670
3819+1044495999+1043985300+1043583403+1043571417+1043612011+1043428048
3810+1042976750+1042239973+1041308372+1040484845+1040073544+1040286247
3802+1041203941+1042179049+1042364469+1042163620+1042224345+1042382216
3793+1042253879+1041970518+1041875292+1042085412+1042546114+1043194751
3785+1043823985+1044075030+1043929343+1043867824+1044290580+1044917894
3776+1045190660+1045034642+1044666916+1044234226+1043855970+1043656048
3768+1043595985+1043575324+1043651413+1043864049+1044096022+1044264886
3759+1044354550+1044240848+1043791206+1043143297+1042605249+1042453470
3751+1042771994+1043174553+1043319379+1043546783+1044269985+1045112519
3742+1045078679+1044271177+1043496058+1043169057+1043208260+1043350238
3734+1043695384+1044312367+1044723734+1044681352+1044422692+1044231312
3725+1044107280+1043980466+1044164098+1045013187+1046205434+1046977574
3717+1046927511+1046226029+1045350650+1044899816+1045227148+1045791419
3708+1045942933+1045954323+1046191064+1046543229+1046669910+1046446612
3700+1046199805+1046299270+1046706001+1047029028+1046869236+1046224705
3691+1045601496+1045652619+1046270265+1046502569+1046185833+1045882076
3683+1045854064+1045886711+1045550175+1044600959+1043286798+1042431948
3674+1042660345+1043368118+1044161714+1045299925+1046478200+1046838973
3666+1046302051+1045344028+1044457127+1044001524+1043948349+1043981791
3657+1043950004+1043942720+1043946097+1043785246+1043316664+1042490223
3649+1041778543+1042059851+1042885431+1043363483+1043352622+1042972049
3640+1042276659+1041389692+1040620399+1040257639+1040272870+1040271082
3632+1039904084+1039362460+1039248295+1039559866+1039512253+1039023474
3623+1038434369+1037897779+1037593359+1037891289+1038745344+1039478016
3615+1039764026+1039847730+1040011363+1040206318+1040196054+1039979974
3606+1039877993+1040014607+1040088841+1039755086+1038996058+1038168888
3598+1037576605+1037190800+1036941212+1036843006+1036762481+1036525144
3589+1036234698+1036185297+1036398529+1036570307+1036669176+1036845258
3581+1037063722+1037138287+1036975912+1036665004+1036280987+1035787175
3572+1035297733+1035186283+1035684664+1036482101+1036831219+1036457731
3564+1035901473+1035529243+1035368987+1035403621+1035536527+1035565929
3555+1035383490+1035170059+1035281774+1035798498+1036347804+1036580439
3547+1036511105+1036370319+1036225890+1035851012+1035120525+1034281237
3538+1033705509+1033516646+1033578232+1033760870+1033996022+1034129855
3530+1033971123+1033511613+1033002240+1032718614+1032739738+1033018795
3521+1033474861+1033907550+1034056548+1033875168+1033577504+1033323015
3513+1033065415+1032770200+1032533989+1032395322+1032192751+1031799463
3504+1031415644+1031430412+1031861512+1032211227+1032117722+1031664703
3496+1031064010+1030483382+1030172539+1030381666+1030985802+1031412731
3488+1031224199+1030683502+1030386831+1030494772+1030733698+1030913356
3479+1031011695+1030922627+1030545034+1029993742+1029460064+1028997112
3471+1028596804+1028324966+1028288610+1028586871+1029287161+1030260746
3462+1031011430+1031018780+1030433384+1029991225+1030037779+1030131747
3454+1029851167+1029439205+1029291200+1029315503+1029199616+1028986847
3445+1029020686+1029426225+1029957320+1030258229+1030130290+1029633829
3437+1029035189+1028699513+1028871424+1029420133+1029876000+1029872822
3428+1029468143+1028957578+1028573163+1028426549+1028463103+1028452111
3420+1028266095+1028080543+1028072133+1028143652+1028046042+1027572626
3411+1026775455+1026170457+1026310581+1026913857+1026953325+1025895771
3403+1024392218+1023490880+1023499025+1023763381+1023376384+1021992757
3394+1019927580+1017669502+1015630284+1014134147+1013152152+1012084202
3386+1010173189+1007186875+1003492722+999475211+995162618+990444022+985406835
3376+980362696+975627147+971323030+967455378+964242720+962178735+961548110
3366+962075828+963290988+964947844+966873757+968767022+970445797+972055769
3356+973782488+975488745+976865684+977913304+978998935+980337929+981664010
3346+982593293+983084059+983318614+983350930+983160147+982979429+983263717
3336+984184325+985346442+986251554+986815428+987150441+987163752+986726493
3326+986033885+985542523+985580269+986018852+986346648+986224933+985867669
3316+985673707+985726883+985866279+985939585+985853564+985629869+985386373
3306+985127713+984787932+984532516+984636947+985028646+985319821+985299425
3296+985128110+985090695+985366374+985995476+986908734+987924170+988756307
3286+989137940+989031059+988727236+988671146+989115888+989893326+990527063
3276+990650566+990361245+990109008+990200327+990523752+990803206+990954521
3267+991104314+991374695+991743217+992099288+992379338+992597272+992759647
3257+992861760+992968773+993149293+993316435+993294383+993050093+992781698
3247+992789844+993222467+993882163+994415311+994717677+994947730+995180630
3237+995353931+995522067+995880456+996507902+997221172+997679688+997651345
3227+997269314+996956353+996997542+997283949+997552874+997745975+997983246
3217+998264421+998451033+998588707+998986167+999765988+1000545876+1000853805
3207+1000722091+1000592231+1000793345+1001332320+1001956786+1002207765
3199+1001692034+1000576537+999592555+999300254+999541167+999760823+999685794
3189+999487594+999333034+999081989+998584667+998027349+997711275+997664589
3179+997723394+997866696+998247667+998867829+999399983+999526665+999451702
3169+999750757+1000606601+1001557869+1002129558+1002314778+1002330340
3160+1002306567+1002353981+1002592577+1002952026+1003162940+1003110824
3152+1003068509+1003411734+1004151557+1004909062+1005313078+1005233745
3143+1004689671+1003805088+1002881169+1002250742+1001993804+1001926060
3135+1001839177+1001636143+1001291064+1000819171+1000259337+999630963+998967757
3125+998385275+997953181+997501552+996747557+995686693+994705691+994198039
3115+994100097+993946001+993454308+992855800+992470525+992200209+991785731
3105+991349796+991233048+991434294+991677525+991921683+992376623+993106249
3095+993972820+994841180+995559614+995900521+995771522+995387770+995053220
3085+994868264+994766349+994718207+994727544+994720458+994644767+994634900
3075+994843762+995156790+995289100+995090635+994607286+994014738+993631450
3065+993756078+994338030+994970245+995270624+995157982+994828399+994556561
3055+994453454+994414384+994330349+994245122+994284855+994531860+994940710
3046+995331548+995570540+995792514+996308444+997221635+998208994+998782139
3036+998802535+998693734+999017423+999847440+1000724740+1001236564+1001423308
3026+1001592900+1001954733+1002454903+1002843820+1002944278+1002876798
3017+1002875937+1002935470+1002916862+1002907260+1003109433+1003492722
3009+1003900711+1004323865+1004795957+1005256194+1005660674+1006003832
3000+1006235143+1006343481+1006380631+1006309774+1006109853+1006059789
2992+1006548635+1007521822+1008423954+1008762014+1008549510+1008106159
2983+1007631220+1007187405+1006939737+1007077279+1007533278+1008053115
2975+1008492229+1008822805+1008972266+1008935646+1008971273+1009380256
2966+1010050746+1010505553+1010504494+1010313710+1010226630+1010169149
2958+1009958169+1009614546+1009238807+1008861081+1008522492+1008248667
2949+1007872265+1007101251+1005871522+1004499153+1003381007+1002590524
2941+1001839906+1000755930+999114371+996890661+994213071+991246094+988111047
2931+984991496+982273312+980413620+979602807+979659625+980312765+981442831
2921+982932611+984500929+985946870+987342483+988746506+989993916+990989685
2911+991881089+992750839+993467287+993974542+994457361+995169107+996251891
2901+997601480+998814124+999537393+999971076+1000702754+1001964335+1003377365
2891+1004514980+1005360493+1006087867+1006711208+1007150652+1007463812
2883+1007840810+1008437662+1009229536+1009955785+1010274110+1010122000
2874+1009843672+1009805131+1009998034+1010182791+1010274772+1010374104
2866+1010515288+1010546478+1010228550+1009409790+1008110728+1006417318
2857+1004391080+1002198560+1000162058+998519704+997336198+996743253+996971517
2847+998034435+999603283+1001218485+1002525561+1003434050+1004165861+1005061106
2837+1006299378+1007808825+1009334166+1010552306+1011258555+1011536950
2829+1011718926+1012116319+1012762838+1013419819+1013849528+1014037862
2820+1014151431+1014367379+1014754773+1015225540+1015593863+1015739616
2812+1015717895+1015707167+1015858350+1016175484+1016525198+1016764125
2803+1016815446+1016676646+1016453216+1016318389+1016321833+1016313290
2795+1016161644+1015942319+1015810406+1015794579+1015856629+1016048140
2786+1016425270+1016850279+1017097416+1017186616+1017386671+1017822208
2778+1018280393+1018500115+1018515743+1018595341+1018899959+1019324702
2769+1019665742+1019842287+1019934666+1020086379+1020377355+1020733890
2761+1020996789+1021131549+1021290745+1021600263+1021962096+1022124338
2752+1021923754+1021474840+1021136118+1021224458+1021703171+1022208770
2744+1022452001+1022485840+1022486436+1022469152+1022439419+1022615038
2735+1023185070+1023982573+1024631939+1024911326+1024832920+1024523336
2727+1024133293+1023785167+1023563922+1023534255+1023713450+1024049589
2718+1024487775+1025019797+1025616649+1026138340+1026363227+1026160988
2710+1025667242+1025211772+1025023041+1025058602+1025138465+1025161775
2701+1025184224+1025333487+1025645389+1025981528+1026152445+1026120725
2693+1026024969+1026000202+1026027485+1026011592+1025973780+1026023910
2684+1026126685+1026077814+1025805843+1025515198+1025419177+1025506788
2676+1025680751+1025929014+1026207938+1026349519+1026270385+1026149597
2667+1026236943+1026524873+1026724199+1026559904+1026037419+1025403218
2659+1024896161+1024613926+1024579690+1024791598+1025165417+1025543143
2650+1025819021+1026009473+1026157809+1026204958+1026040332+1025696114
2642+1025377259+1025262299+1025375140+1025643667+1025952258+1026189065
2633+1026339255+1026444083+1026445408+1026244559+1025936233+1025834384
2625+1026212177+1027014182+1027832876+1028267088+1028299140+1028182458
2616+1028062862+1027944326+1027908964+1028095046+1028475288+1028831558
2608+1029006515+1029103198+1029305239+1029561118+1029701110+1029786734
2599+1029984603+1030205318+1030273460+1030294055+1030468548+1030743366
2591+1030926534+1030973022+1030985272+1031087386+1031325915+1031615500
2582+1031841844+1032016933+1032191824+1032301884+1032289037+1032272746
2574+1032404990+1032636102+1032786424+1032805695+1032828210+1032971579
2565+1033207525+1033478172+1033808219+1034155483+1034304481+1034136080
2557+1033828217+1033577239+1033413672+1033513468+1034190646+1035225089
2548+1035773798+1035398787+1034663731+1034315937+1034415004+1034631084
2540+1034846303+1035039868+1035053774+1034864646+1034729886+1034820543
2531+1035011856+1035137941+1035181581+1035223168+1035377464+1035658109
2523+1035913591+1036088415+1036319858+1036534614+1036397404+1035946503
2514+1035736449+1036081661+1036642820+1036929624+1036829895+1036561500
2506+1036399986+1036525542+1036979025+1037648985+1038291861+1038661773
2497+1038687864+1038550654+1038558601+1038804083+1038924407+1038493836
2489+1037696135+1037156100+1037070410+1037079284+1037001871+1037097230
2480+1037558064+1038178822+1038594426+1038688725+1038723889+1039006389
2472+1039495035+1039925076+1040212145+1040488553+1040793038+1040911376
2463+1040583580+1039890310+1039326502+1039331866+1039826804+1040360349
2455+1040563052+1040369686+1039983218+1039731114+1039899250+1040570998
2446+1041465648+1042017999+1041931580+1041566105+1041418962+1041474190
2438+1041485779+1041501804+1041610209+1041576634+1041215000+1040796349
2429+1040724499+1041067989+1041620738+1042159646+1042489759+1042511480
2421+1042380825+1042372813+1042504725+1042535916+1042378177+1042227060
2412+1042251561+1042440491+1042765174+1043223491+1043683861+1043883916
2404+1043637506+1042981717+1042209710+1041798409+1042075148+1042843116
2395+1043537313+1043797364+1043687768+1043441293+1043267594+1043309181
2387+1043525725+1043724653+1043838090+1043989737+1044238861+1044463616
2378+1044555664+1044603078+1044815649+1045303170+1045962402+1046632098
2370+1047290536+1047950629+1048400868+1048326700+1047828186+1047545024
2361+1047855602+1048201674+1047915267+1047367816+1047333778+1047705677
2353+1047830967+1047561116+1047217560+1047044921+1047092402+1047244380
2344+1047241664+1046906121+1046328871+1045739369+1045361510+1045278668
2336+1045328135+1045303699+1045200460+1045122187+1045145497+1045240326
2327+1045095897+1044308129+1043096015+1042474396+1043156210+1044492754
2319+1045221850+1045047953+1044767108+1045116227+1046062065+1047110679
2310+1047856595+1048091681+1047746403+1047019757+1046371186+1046180932
2302+1046497933+1047123923+1047776401+1048178761+1048177768+1047875402
2293+1047599789+1047661706+1048058437+1048424906+1048385107+1047910433
2285+1047279609+1046885328+1047154848+1048280610+1049819724+1050879132
2276+1050913699+1050188510+1049436171+1049205588+1049512723+1050022163
2268+1050461143+1050732121+1050853835+1051066273+1051640875+1052329046
2259+1052550623+1052385268+1052696906+1053892398+1055099280+1055029947
2251+1053481760+1051638094+1050824433+1051249905+1052143693+1052740545
2242+1052718494+1052024892+1050854365+1049705559+1049170955+1049650065
2234+1051140507+1053070062+1054459053+1054582490+1053539240+1052102040
2225+1051111833+1050991907+1051535451+1052076677+1052230907+1052490560
2217+1053537916+1055031933+1055817715+1055357676+1054244231+1053298923
2208+1052851267+1053008145+1054031992+1056007505+1058213004+1059308767
2200+1058604173+1056958840+1055926516+1056042602+1056397813+1055948965
2191+1054819760+1054076890+1054430181+1055450319+1056068296+1055692623
2183+1054805059+1054472231+1055155171+1056030484+1055909497+1054746189
2174+1053598177+1053177738+1053376733+1054068017+1055152191+1056062336
2166+1056534759+1057366299+1059053617+1060701731+1061909938+1064040077
2157+1067288892+1069038789+1067645693+1064839302+1063224364+1063401042
2149+1064036568+1063677582+1061855968+1059061894+1056536811+1055776194
2140+1057253193+1059746092+1061660681+1062695786+1063439649+1063944322
2132+1063707845+1062569634+1060911454+1059354990+1058483849+1058456235
2123+1058862635+1059211687+1059360420+1059316581+1059043683+1058638740
2115+1058299158+1058032485+1057754091+1057629197+1057919909+1058475571
2106+1058739132+1058419151+1057993613+1058263133+1059332673+1060298709
2098+1060251758+1059435250+1058990508+1059591929+1060782190+1061629690
2089+1061605453+1060856424+1060003097+1059701459+1060165869+1061050916
2081+1061797561+1062040659+1061773920+1061306199+1061014494+1061031977
2072+1061208655+1061385532+1061605585+1062055824+1062800879+1063534942
2064+1063718904+1063050931+1061679223+1060021970+1058705094+1058503848
2055+1059693182+1061375731+1062232767+1062149328+1062237601+1063066492
2047+1063926773+1064283573+1064610838+1065348345+1066274118+1067041092
2038+1067512853+1067585630+1067148570+1066418679+1066257563+1067481994
2030+1069544786+1070831001+1070603002+1069668487+1069161630+1069517304
2021+1070268783+1070549627+1070298251+1070307721+1070439832+1069421548
2013+1067162145+1065293381+1065282057+1067304322+1070422880+1072992794
2004+1073741823+1072899621+1071573408+1070360830+1069231559+1068417038
1996+1068638217+1070084820+1071488247+1071165750+1069409032+1068276781
1987+1068745495+1069688685+1069471611+1067695557+1065516348+1064582694
1979+1065492773+1067244458+1068375054+1068347439+1067603708+1066928384
1970+1066974209+1067721582+1068229830+1067629270+1066542844+1066450929
1962+1067629998+1068766024+1068831053+1068419819+1068550672+1069251028
1953+1069904235+1070142300+1070012705+1069750403+1069515450+1069262948
1945+1068967601+1068757812+1068538024+1067962959+1067212341+1067065727
1936+1067981567+1069460685+1070455725+1070375002+1069600213+1068990315
1928+1068913631+1068968330+1068665897+1067992692+1067237372+1066638600
1919+1066431923+1066883221+1067850250+1068645038+1068708478+1068094408
1911+1067356504+1067074137+1067330810+1067759196+1068033550+1068054940
1902+1067814491+1067330214+1066744223+1066344114+1066364973+1066728131
1894+1067086255+1067191017+1067055131+1066816271+1066660519+1066740647
1885+1067019173+1067288694+1067399085+1067414448+1067475570+1067592716
1877+1067710656+1067899254+1068325851+1069050709+1069949000+1070728226
1868+1070967483+1070501418+1069690605+1068967072+1068515641+1068337109
1860+1068377835+1068608219+1069000580+1069480684+1069926882+1070190907
1851+1070183821+1070001381+1069919399+1070202098+1070866297+1071513610
1843+1071620028+1071282697+1070972053+1070855238+1070842458+1070924704
1834+1071195284+1071577249+1071809487+1071711281+1071458249+1071432489
1826+1071740948+1072080530+1072038281+1071614929+1071217998+1071140255
1817+1071202436+1071001720+1070505193+1070066344+1069902910+1069811790
1809+1069483664+1068927537+1068350817+1067862037+1067443718+1067081355
1800+1066775876+1066398283+1065763221+1064889100+1063966108+1063077287
1792+1062025561+1060595910+1058901771+1057151279+1055486940+1054059673
1783+1052971989+1052159388+1051446118+1050738346+1050139838+1049794759
1775+1049696288+1049696818+1049579540+1049178371+1048537019+1047855933
1766+1047334109+1047050351+1046951218+1046899963+1046739774+1046411713
1758+1045930616+1045362702+1044899551+1044697046+1044714661+1044767506
1749+1044624733+1044205022+1043642539+1043032575+1042276196+1041227317
1741+1039947062+1038725147+1037788580+1037075973+1036273901+1034915570
1732+1032949196+1030801972+1028601771+1026459712+1024573134+1022886545
1724+1021207505+1019536213+1017957829+1016348785+1014339499+1011597410
1715+1008502095+1005633987+1002847661+999690562+995805229+990599642+982828180
1706+972156425+960957947+950780799+939721451+927147954+918315959+916340844
1696+917895189+919226170+919374175+918621901+917010274+914793650+912665431
1686+911051288+909988503+909144314+907805784+905628760+902407427+897321899
1676+889191717+878769153+868805237+859655181+849193546+837803821+829122810
1666+824296009+822632994+823764914+826202254+827346094+826334233+824003509
1656+821335057+819157967+819291668+822824572+827971222+835210994+846588866
1646+860283687+870566392+877132097+882292521+886842054+890821952+894716027
1636+899449853+904496973+908324694+911263858+914172230+917251055+920128302
1626+922535511+924831800+927480186+930166054+932279109+933941858+935560240
1616+936934331+937502046+937368345+936741958+935458921+933241900+929908189
1606+925486728+920270744+914708158+909297286+904505052+900558927+897337792
1596+894442599+891266031+887163293+881814536+875400014+868414664+861277999
1587+854049220+846732367+840024617+835442702+834160129+836186963+841569625
1577+851113963+862809233+872211195+879336139+886752986+895593789+904090242
1567+910734287+916231578+921056658+924911994+927977972+931287578+934636321
1557+935640566+934681086+932593328+929423582+925052449+919614160+913836091
1547+908167750+901950964+894365849+885249565+872954728+856689727+843780687
1537+836424234+830470677+823043235+815067679+810163928+809100945+810572845
1527+813841990+818135842+822607698+827830833+834684137+841753456+847911106
1517+854120474+860465067+865980636+870690225+875079900+879273891+884189032
1507+892205446+901132072+906468048+909874271+913193215+916875514+920781244
1497+924287130+926389324+926876249+926367735+925321837+924040323+923023562
1487+922583257+922508361+922548424+922581403+922536637+922247780+921305054
1477+919181669+915385867+909168088+899747981+889083180+881059945+876259831
1468+873546017+872774672+874495498+878096278+882081673+886034419+890735665
1458+897126017+903319559+906493411+907540568+907768303+907801016+908135102
1448+909033593+910164122+910954340+911169162+910880172+910271467+909440191
1438+908237414+906657839+905454929+905255471+905958012+907352102+909221264
1428+911260878+913395190+915810676+918485618+921073346+923455060+925826906
1418+928034127+929637410+930662581+931261818+931315854+930507822+928588267
1408+925531427+921243998+915566320+908987370+902098836+894089375+883470399
1398+870409911+857023416+845349866+837164389+833558707+833785581+836551908
1388+841196204+847085790+853021135+858178050+862555275+866229098+868974366
1378+870579570+871108479+870698569+869535724+868195207+867478494+868009456
1368+870155356+873843682+878814514+885175596+892780379+900200206+905975362
1358+910035388+912808403+914480622+915078004+914553002+912802774+909953472
1349+906767236+904484854+903987599+905215275+907468321+910017839+912217577
1339+913393269+913159773+911609533+909015779+905766103+902444710+899634213
1329+897548177+895908473+894209897+892057707+889239197+885603518+881071202
1319+875851643+870513679+865633040+861481563+858119179+855550589+853720829
1309+852457791+851403350+849983963+847481727+843161121+836490322+827529924
1299+817237220+807411707+800198887+797185555+798551236+803030309+808777454
1289+814401890+819394443+823830473+827845071+831368240+834248733+836534492
1279+838477821+840163351+841264875+841286596+839993890+837679987+835192452
1269+833604863+833592877+835019813+837084128+838803563+839364193+838154661
1259+834741750+828928252+820774892+810771244+800261996+791481388+786625781
1249+786597239+790601308+796881070+803762717+810177504+815517586+819168894
1239+820250088+817990288+812663980+806239325+801751643+801499804+805560028
1230+812009780+818483504+823533073+826952806+829319090+831332613+833421894
1220+835725202+838215320+840786691+843317271+845698521+847815813+849533328
1210+850723655+851333155+851457585+851280708+850855899+850027073+848626891
1200+846647140+844249997+841833451+840066403+839632852+840886818+843767178
1190+847900444+852712014+857626029+862351247+866938857+871492496+875917268
1180+880038548+883847462+887464534+890889034+893900181+896213157+897675918
1170+898332568+898345746+897861603+896952583+895693121+894233075+892776207
1160+891564888+890901814+891055646+892063137+893670724+895504060+897252764
1150+898731551+899891085+900843678+901853619+903216783+905034557+907081920
1140+908991674+910571714+911826739+912704767+912950845+912151885+909921951
1130+906386067+902699728+900723884+901702171+905221500+909626604+913404924
1120+916102911+918116037+919971821+921936474+924026218+926093248+927890957
1111+929158829+929707009+929459143+928399006+926383099+923112696+918647462
1101+914044357+911092544+911027184+913552134+917245426+920719526+923246132
1091+924642870+925062250+924863718+924373747+923698290+922790397+921560072
1081+919908448+917883799+915868620+914454995+914088394+914866758+916587650
1071+918898507+921490871+924249516+927179873+930150294+932793846+934738632
1061+935839296+936048224+935165627+932973703+929624431+925638772+921413524
1051+916937961+912209432+907843000+904972839+904365788+905707497+907895580
1041+910027640+912006662+914193089+916679036+919083397+920866471+921505440
1031+920511723+917820624+914213022+910851896+908233772+905849476+902857467
1021+898833400+893907465+888466660+882901624+877690011+873649587+871806252
1011+872727390+875992628+880432763+884888328+888793330+892212068+895444129
1001+898565667+901311002+903366046+904701398+905595716+906410833+907365943
992+908463361+909629120+910926726+912538353+914527374+916745853+918976781
982+920973484+922365323+922759736+922081962+920768000+919563832+919083132
972+919458143+920363454+921393327+922403797+923487044+924722932+926071925
962+927422508+928591909+929399742+930002223+931037990+933056016+935802609
952+938442387+940485711+942106542+943558311+944766451+945626401+946278548
942+946877850+947376231+947730250+948113274+948728469+949507165+950133486
932+950313740+949883765+948634766+946243980+942679091+938711378+935714403
922+934668968+935375350+936700305+937461584+936998896+935207015+932493268
912+929794156+928202131+928163325+929072808+929853755+929863754+929128566
902+927924399+926443162+924763857+922840857+920531457+917869495+915365471
892+913887876+914124882+916124830+919330998+923004556+926573419+929720584
882+932414399+934915443+937528998+940247778+942788025+945005510+947094460
873+949295853+951552872+953615664+955410128+957074864+958624574+959889400
863+960901592+962014904+963438198+964940096+966179890+967056130+967593184
853+967814297+967847739+967792908+967357370+966037117+963805461+961241572
843+958800127+956251138+952950141+948391536+942334409+934517056+924449107
833+911736413+896964702+882349273+871020868+865036652+863978966+865735816
823+868572933+872243246+877356719+884181747+892096645+899850691+906162901
813+910211801+911937527+912202810+912490872+913997008+916885315+920394843
803+923322418+924423082+923078658+920005660+916937894+915318718+915418977
793+916538646+917568652+917456076+915630819+911982293+906242035+897809486
783+886655509+874125652+862439851+853493690+848201684+846591581+848078712
773+851610954+855905667+860036880+863933670+868014754+872206030+875372929
764+875595168+871262509+862920419+854332846+850620946+854442442+864147830
754+875687282+885801652+893472325+899235296+903869924+907700095+910619459
744+912413923+913036668+912642717+911367892+909110211+905618430+900831957
734+895148451+889351773+884160292+879667245+875249360+870271177+865079232
724+861254292+860664062+864013070+870109928+876639146+881812748+885208111
714+887149188+887675449+886555515+884365180+882655612+882200010+881600575
704+878691078+873248949+867523392+864147035+863980555+865817731+867801389
694+868905894+869117404+868665510+867585309+865958650+864160346+862698842
684+861956237+862080601+862953066+864274048+865799719+867416511+868913774
674+869859546+869948613+869463278+869297261+870245285+870932264+868617566
664+863186827+856768000+852435143+852358856+855879973+860687239+865084331
654+868479296+870890478+872772553+874886203+877721731+881093519+884443454
645+887329178+889593415+891354768+892841965+894101957+894929193+895109315
635+894700994+894211619+894498092+896188854+899134243+902647479+906148001
625+909218681+911321802+912108510+911968784+911773166+911973552+912217776
615+911996067+911398089+910919110+910758656+910572243+909643623+907113772
605+902621123+897077675+892226769+889199200+887928612+887681342+887425596
595+886032168+883027378+879139992+875628212+873163656+871709569+871139205
585+871515475+872710504+873713226+872567532+867725500+859747560+851378782
575+845807786+844470050+846614957+850633329+854803348+857593316+858742983
565+859579689+861364749+864113262+867613652+872348604+878302955+883920438
555+887527510+889128475+889881808+890620705+891696867+893428884+895818346
545+898216813+899925521+901027840+902198764+903705430+904941582+905117201
535+904137060+902563709+901012675+899780165+898749166+897569037+896305535
526+895899202+897280842+900049354+902724097+903969984+903723310+903258105
516+903439750+903669538+903238438+902522851+902320081+902502786+901933548
506+899774073+896200376+891771631+887190245+883801704+883030756+884990508
496+888085557+890135039+889948295+887808619+884913956+882518336+881359265
486+881667591+883323851+885645966+887476321+888300643+889066161+891103988
476+894122485+896041048+895207719+892615091+890820760+890856453+892285706
466+894868137+898693342+903242411+907108541+909089814+909366752+909235501
456+909487870+909575746+908976775+908334693+908848570+910580654+912050103
446+911791774+910044394+908392041+907818896+907676520+906602809+904098453
436+901186241+899159539+897383949+894077521+889182843+884522919+881173580
426+878510360+875904885+873436818+870106220+862522363+848177249+834197080
416+829687280+832293219+837704688+844231588+851134425+857724699+863380855
407+867863107+871660168+875677150+880601230+886774376+893942960+900090676
397+902058574+899823407+896122434+892830906+890341649+888273228+886208581
387+883326036+877594255+868256859+858314200+849319234+839285588+827457544
377+818594822+822016872+836253250
##END=
