##TITLE=YM- 188 F3
##JCAMP-DX=4.24
##DATA TYPE=INFRARED SPECTRUM
##DATE=18/4/2019
##SAMPLING PROCEDURE=Diamant-ATR
##ORIGIN=Rieke
##XUNITS=1/CM
##YUNITS=TRANSMITTANCE
##RESOLUTION=4
##FIRSTX=3997.453
##LASTX=373.96442
##DELTAX=-1.4165319
##MAXY=1
##MINY=0.25954822
##XFACTOR=1
##YFACTOR=9.3132258e-010
##NPOINTS=2559
##FIRSTY=0.99870223
##XYDATA=(X++(Y..Y))
3997+1072348351+1072438271+1072252799+1071965951+1071895167+1072306367
3989+1073098047+1073741823+1073679551+1072849727+1071819455+1071280959
3980+1071350911+1071583231+1071651583+1071583551+1071359807+1070921023
3972+1070565695+1070703487+1071279679+1071891199+1072230143+1072150655
3963+1071671231+1071068927+1070662399+1070488255+1070381567+1070212799
3955+1069968767+1069769471+1069800191+1070158847+1070751231+1071275199
3946+1071415999+1071232511+1071198079+1071641215+1072269119+1072511487
3938+1072086463+1071039103+1069640447+1068483775+1068331455+1069298879
3929+1070412159+1070723775+1070392383+1070232191+1070584511+1070987327
3921+1070904639+1070348991+1069867007+1070043903+1070891455+1071969983
3912+1072887423+1073297215+1072883967+1071744959+1070463999+1069666751
3904+1069667135+1070370495+1071372287+1072145791+1072203199+1071340799
3895+1069860671+1068595455+1068621759+1070105343+1071449663+1071311359
3887+1070347903+1069995711+1070415679+1070732927+1071004095+1071699327
3878+1072150911+1071595263+1070429183+1069323327+1068436991+1067977855
3870+1068416575+1069314879+1069613247+1069408255+1069696831+1070725951
3861+1071568703+1071489343+1070484607+1068857279+1067393023+1067834239
3853+1070873727+1073134591+1072583807+1070821951+1069303743+1068340159
3844+1067831423+1067784255+1068091071+1068443007+1068764543+1069275007
3836+1069966399+1070545983+1070839231+1070757183+1070196479+1069353407
3827+1068791103+1068740479+1068817215+1068998079+1069900671+1071101503
3819+1071179391+1070578879+1070852095+1071775743+1071751999+1070455679
3810+1068737087+1067628799+1067927807+1069046079+1069217023+1068270527
3802+1067909183+1068862911+1069748863+1069984831+1070300991+1070764735
3793+1070775359+1070353087+1069969919+1069674431+1069204863+1068692927
3785+1068570111+1068835455+1069152895+1069586559+1070399935+1071229311
3776+1071425535+1070956159+1070205759+1069502463+1069041343+1068795327
3768+1068574911+1068454335+1068577471+1068605055+1068227775+1067984703
3759+1068766847+1070346303+1071249407+1070526271+1068602111+1067074239
3751+1067797375+1070100863+1071108095+1070344639+1069955519+1071431679
3742+1072771135+1071873151+1069517439+1067498687+1067165823+1068516799
3734+1070008639+1070367743+1069859903+1069206847+1068712383+1068436479
3725+1068319935+1068043263+1067426943+1066974399+1067267647+1068006207
3717+1068370559+1068062271+1067539327+1067535231+1068337087+1069258879
3708+1069528895+1069185151+1068576063+1068025599+1067941951+1068528383
3700+1069249151+1069348671+1068813311+1068281727+1068276863+1068721727
3691+1069272575+1069906559+1070732031+1071302143+1071161535+1070533631
3683+1069852671+1069174335+1068147199+1066698815+1065726783+1066452287
3674+1068092607+1068614591+1068389247+1068975039+1070127103+1070232767
3666+1069272255+1068386367+1068123583+1068163391+1067985599+1067526591
3657+1067209919+1067329919+1067537855+1067519487+1067780863+1069285311
3649+1071970687+1073741823+1073268735+1071509055+1069875263+1069093439
3640+1069044927+1069133631+1068891711+1068263039+1067424575+1066457855
3632+1065424511+1065007871+1066403903+1068990015+1070248831+1069758847
3623+1068793855+1068194047+1068018495+1068020735+1067975743+1067785663
3615+1067510399+1067236863+1066961151+1066634431+1066260287+1065983871
3606+1066053823+1066533375+1067223231+1067902207+1068416575+1068627839
3598+1068493759+1068111935+1067620031+1067213119+1067112895+1067272383
3589+1067333439+1067017855+1066438463+1065872831+1065427647+1065133503
3581+1064973247+1064831487+1064708159+1064830271+1065309183+1065851327
3572+1065985343+1065560895+1064964607+1064889919+1065652863+1066638015
3564+1067078463+1066887039+1066369983+1065928703+1065870847+1066091583
3555+1066146623+1065818815+1065373183+1065092607+1064893951+1064649599
3547+1064467903+1064475263+1064628287+1064828479+1064956543+1064888127
3538+1064680831+1064535871+1064466751+1064291455+1063992447+1063756543
3530+1063739455+1064012287+1064584383+1065306815+1065868927+1066010879
3521+1065692287+1065068287+1064360255+1063749823+1063288703+1062873471
3513+1062451327+1062276479+1062669887+1063374847+1063648383+1063241855
3504+1062735103+1062718143+1063073471+1063323391+1063313535+1063212095
3496+1063122559+1062973247+1062751231+1062648191+1062865471+1063380351
3488+1063954367+1064269503+1064111743+1063619775+1063276735+1063392703
3479+1063699519+1063807999+1063846079+1064225663+1064863871+1065122815
3471+1064633279+1063739391+1063012159+1062726399+1062875135+1063268287
3462+1063542911+1063457215+1063210879+1063207295+1063547967+1063917631
3454+1063909759+1063475071+1063038975+1063020223+1063291775+1063398975
3445+1063267199+1063235135+1063452735+1063698303+1063719935+1063461183
3437+1063052927+1062765759+1062809919+1063101055+1063399743+1063640191
3428+1063853055+1063893503+1063613759+1063205375+1063024191+1063149247
3420+1063376447+1063567359+1063785919+1064106687+1064419327+1064463295
3411+1064075903+1063424063+1062895103+1062698367+1062646463+1062432703
3403+1062061311+1061875199+1062138367+1062706175+1063166143+1063273983
3394+1063193215+1063266239+1063582527+1063844735+1063703807+1063195711
3386+1062750015+1062708159+1062960191+1063162303+1063157183+1063025791
3377+1062929343+1063051967+1063463423+1063869759+1063771967+1063067007
3369+1062265471+1061947455+1062156799+1062475839+1062550655+1062376319
3360+1062145215+1062010175+1061994303+1061946431+1061561471+1060675967
3352+1059645311+1059129855+1059307327+1059549183+1059147263+1058089599
3343+1056775615+1055289919+1053450303+1051379775+1049567679+1048462015
3335+1048280511+1049033599+1050415551+1051833343+1052902079+1053868351
3326+1055268799+1057185919+1059080831+1060340607+1060776255+1060620799
3318+1060266495+1060012927+1059944127+1060020159+1060220479+1060510783
3309+1060733119+1060710975+1060497791+1060404095+1060669951+1061182847
3301+1061629503+1061842111+1061827711+1061605567+1061256703+1061024191
3292+1061116031+1061434623+1061621055+1061420863+1060979583+1060673599
3284+1060632895+1060655935+1060627583+1060646079+1060648447+1060346751
3275+1059666751+1058923327+1058514495+1058693567+1059530879+1060798847
3267+1061973247+1062608959+1062698623+1062553855+1062463167+1062536639
3258+1062703999+1062733503+1062410559+1061841023+1061455039+1061543743
3250+1061886847+1062039807+1061918783+1061828543+1061912831+1061921151
3241+1061667007+1061386431+1061411519+1061658175+1061677311+1061220927
3233+1060567231+1060179647+1060215999+1060567999+1061145215+1061780991
3224+1062093055+1061863423+1061407167+1061269311+1061651455+1062276223
3216+1062728831+1062896383+1063051327+1063400255+1063689023+1063535167
3207+1063008127+1062562943+1062485119+1062666047+1062851071+1062905151
3199+1062845119+1062750591+1062640639+1062396479+1061907775+1061335679
3190+1061012287+1060988607+1060963583+1060759487+1060510655+1060312831
3182+1060087103+1059878399+1059900223+1060195583+1060529919+1060676927
3173+1060659007+1060702207+1060971647+1061302015+1061311103+1060893503
3165+1060418303+1060274367+1060409855+1060522815+1060516223+1060513087
3156+1060536191+1060481151+1060386303+1060444415+1060720895+1061117247
3148+1061592895+1062107839+1062389695+1062132991+1061422335+1060659583
3139+1060117695+1059786111+1059560063+1059388991+1059278207+1059229119
3131+1059211519+1059201087+1059168191+1058990655+1058497663+1057672767
3122+1056765823+1056190207+1056248639+1056839999+1057524543+1058010175
3114+1058347839+1058526719+1058266303+1057444799+1056412607+1055649727
3105+1055268159+1054994303+1054649983+1054482751+1054776511+1055263679
3097+1055353599+1054903743+1054340543+1054029247+1053872959+1053562751
3088+1052975999+1052242751+1051490175+1050686591+1049819967+1049034879
3080+1048411007+1047753727+1046783551+1045468671+1044074495+1042907455
3071+1042046591+1041367423+1040766975+1040192063+1039439935+1038220287
3063+1036583103+1035104831+1034435967+1034705919+1035510207+1036437951
3054+1037401279+1038464319+1039688831+1041213695+1043131903+1045147007
3046+1046606463+1047037567+1046578943+1045882047+1045608063+1045950975
3037+1046626431+1047328063+1048110655+1049277823+1050998847+1053106303
3029+1055235327+1057111615+1058687807+1060031807+1061167871+1062122815
3020+1063040959+1064067839+1065107007+1065885439+1066294911+1066473343
3012+1066507327+1066284415+1065748991+1065082943+1064447359+1063630271
3003+1062105791+1059432127+1055465215+1050083967+1042680255+1032036479
2995+1016977407+997453055+975108479+952679359+932419647+914602175+897524479
2985+879339775+860000255+841376511+825579455+813114879+802390271+790889215
2975+777015935+761145087+745337919+732441983+725305791+726068031+735430015
2965+752345599+774471999+799040191+823598399+846427519+866624575+883873279
2955+898038143+908879487+916014207+919016511+917574911+911727743+902051519
2945+889644095+875896447+862167167+849512255+838612543+829844543+823389823
2935+819386559+818039935+819470783+823404223+829102463+835669823+842434431
2925+849125311+855740159+862207871+868206463+873340479+877387583+880286911
2915+882071871+883002431+883667199+884737791+886603455+889362175+893103679
2905+897944063+903686079+909679103+915216639+919978047+923989631+927360127
2895+930241151+932849727+935243647+937150207+938226879+938401983+937771199
2885+936297727+933759487+929788479+923803967+915201023+903931583+890927295
2876+877954431+867137599+860411711+858978623+862981887+871633599+883614335
2866+897383359+911413567+924529023+936134399+946006015+953978303+960083583
2856+964833151+968923135+972659007+975962047+978841087+981497599+984024959
2846+986347455+988434751+990326783+991941887+993123903+993934527+994705919
2836+995683327+996735359+997520767+997843135+997776383+997567039+997491135
2826+997699519+998152575+998752063+999496383+1000421759+1001425535+1002291967
2816+1002930623+1003489407+1004136831+1004853247+1005567871+1006370367
2808+1007385535+1008559167+1009731903+1010808703+1011757311+1012620863
2799+1013595647+1014895359+1016474879+1018052479+1019393407+1020449215
2791+1021280255+1021979455+1022643967+1023342591+1024117375+1024954495
2782+1025721919+1026250303+1026511615+1026579775+1026453759+1026158591
2774+1025954495+1026136063+1026622463+1026973567+1026830079+1026218815
2765+1025472383+1024934143+1024690623+1024568255+1024436927+1024440511
2757+1024798719+1025467263+1026202815+1026899327+1027618751+1028337151
2748+1028950719+1029483135+1030003647+1030388479+1030463935+1030320191
2740+1030232447+1030340031+1030613183+1030988031+1031304895+1031280895
2731+1030799487+1030100415+1029499455+1029087615+1028829823+1028734527
2723+1028786303+1028887359+1028970175+1029077951+1029314815+1029748735
2714+1030335103+1030962495+1031585471+1032216319+1032782911+1033165375
2706+1033389823+1033630655+1034003647+1034458751+1034887679+1035246847
2697+1035535167+1035732863+1035845823+1035931839+1036012479+1036058815
2689+1036116287+1036266431+1036434879+1036447231+1036307711+1036243199
2680+1036436543+1036843199+1037266495+1037542719+1037635583+1037618943
2672+1037620479+1037715775+1037818239+1037747775+1037452671+1037061823
2663+1036725247+1036548287+1036614399+1036886719+1037144639+1037188991
2655+1037080895+1037086079+1037378495+1037850559+1038259455+1038520127
2646+1038755711+1039082751+1039458047+1039694591+1039603071+1039225215
2638+1038916991+1039034047+1039559231+1040144063+1040439359+1040309375
2629+1039848767+1039280383+1038805055+1038516031+1038397631+1038385279
2621+1038469503+1038701887+1039031615+1039261055+1039268735+1039135359
2612+1038967295+1038741951+1038425151+1038125311+1038007743+1038078847
2604+1038210559+1038385215+1038740287+1039361023+1040186623+1041056767
2595+1041745535+1042143167+1042449983+1042908607+1043403199+1043625855
2587+1043466239+1042996351+1042351679+1041813439+1041722559+1042130815
2578+1042659903+1042788479+1042355455+1041794431+1041690239+1042130239
2570+1042721087+1043098815+1043114303+1042761599+1042233087+1041844223
2561+1041734911+1041807487+1041953663+1042205631+1042690175+1043412735
2553+1044034751+1044086079+1043521663+1042792639+1042262911+1041883839
2544+1041492671+1041115199+1040917631+1041094591+1041780671+1042860927
2536+1043910399+1044525887+1044714239+1044804479+1044988927+1045119999
2527+1044970559+1044548223+1044093055+1043855807+1043905663+1044103679
2519+1044276799+1044451135+1044878911+1045764607+1046967423+1048036223
2510+1048586047+1048615103+1048402943+1048166271+1047917055+1047604415
2502+1047260095+1046986751+1046886527+1047003711+1047273919+1047557823
2493+1047783807+1048012671+1048277247+1048440127+1048392255+1048297791
2485+1048390463+1048582527+1048544447+1048162495+1047684351+1047407231
2476+1047396735+1047549183+1047790271+1048095935+1048366783+1048443647
2468+1048292415+1048018623+1047670719+1047177599+1046531647+1045906239
2459+1045504511+1045311743+1045062143+1044533055+1043881343+1043544831
2451+1043725375+1044115199+1044280703+1044182335+1044089471+1044109375
2442+1044122111+1044119103+1044239743+1044453183+1044532927+1044413887
2434+1044324351+1044510143+1044996927+1045671487+1046437311+1047158079
2425+1047527871+1047254975+1046497535+1045897471+1045962815+1046584383
2417+1047345663+1048033791+1048591743+1048885311+1048877055+1048796543
2408+1048871743+1049077567+1049279295+1049420031+1049475391+1049411583
2400+1049268671+1049166271+1049115135+1048886079+1048283903+1047531519
2391+1047052671+1046863231+1046537151+1045815679+1044912127+1044207487
2383+1043913343+1044046079+1044536319+1045261823+1046027903+1046674751
2374+1047241215+1047825791+1048313663+1048573567+1048839295+1049474687
2366+1050451007+1051374975+1051905983+1052026943+1051985151+1051960511
2357+1051878527+1051574207+1050925759+1049905407+1048722559+1047699775
2349+1047006399+1046689087+1046738943+1046900095+1046720255+1046179199
2340+1045799807+1045892607+1046120511+1045948735+1045298367+1044594431
2332+1044223423+1044110079+1043895807+1043353983+1042589375+1042030655
2323+1042135807+1042866367+1043689663+1044303999+1044908479+1045663423
2315+1046397247+1046896255+1047156991+1047291775+1047350527+1047327167
2306+1047340735+1047671423+1048454911+1049401855+1049954559+1049740095
2298+1048888959+1047998911+1047702143+1048119807+1048769919+1049079615
2289+1048915455+1048580031+1048450687+1048683327+1049155007+1049628095
2281+1050015615+1050469119+1051187967+1052176575+1053153215+1053713023
2272+1053699775+1053427903+1053359423+1053634175+1054106367+1054720703
2264+1055541247+1056433471+1057025215+1057128703+1056962623+1056724991
2255+1056256127+1055494591+1054824895+1054477183+1054120511+1053544383
2247+1053104511+1053059327+1053130495+1053075711+1053118591+1053566335
2238+1054449663+1055569023+1056551039+1056950271+1056639423+1056039807
2230+1055740607+1055924031+1056254399+1056214207+1055522687+1054473983
2221+1053933631+1054675583+1056546431+1058534719+1059754367+1060040255
2213+1059657599+1059031103+1058791615+1059370303+1060336959+1060757375
2204+1060365183+1059832831+1059809343+1060277439+1060905087+1061454911
2196+1061698367+1061374655+1060585023+1059916607+1059688447+1059320319
2187+1058347071+1057814655+1059097919+1061370495+1062161855+1060818559
2179+1059421887+1059835903+1061695807+1063664255+1065129087+1066105087
2170+1066597183+1066664319+1066476927+1065980351+1065039039+1064133631
2162+1064291071+1065939391+1068215807+1069763199+1069764031+1068143423
2153+1065669055+1063702079+1063149119+1063745471+1064516479+1064529215
2145+1063333055+1061359167+1059930495+1060189311+1061772799+1063057663
2136+1063033471+1062405823+1062372671+1063025855+1063614207+1063654975
2128+1063158079+1062298047+1061351231+1060672575+1060474367+1060666495
2119+1060872447+1060632831+1059773247+1058621759+1057765823+1057592575
2111+1058043519+1058698623+1059071103+1058988031+1058785727+1058897023
2102+1059108991+1058605503+1057128127+1055686399+1055594047+1056987455
2094+1058693055+1059505983+1059326079+1058923839+1058752895+1058498111
2085+1057896639+1057318655+1057240511+1057707455+1058487807+1059319487
2077+1059944575+1060144703+1059821247+1059133247+1058460223+1057991615
2068+1057548223+1057075327+1057028223+1057928511+1059606271+1061126271
2060+1061641471+1061228799+1060726207+1060903167+1061801535+1062490111
2051+1061944639+1060922751+1061902463+1065762239+1070066303+1072106559
2043+1071649279+1070070975+1068618303+1067600191+1066501503+1065119807
2034+1064203583+1064531263+1066258943+1068978943+1071278527+1071309247
2026+1068989311+1066373567+1065186943+1065199423+1065228031+1064961279
2017+1065416639+1067338559+1069551999+1069952255+1067964863+1065098111
2009+1063189695+1062916287+1064134655+1066649151+1069863039+1072559295
2000+1073741823+1073168063+1071130559+1068725503+1067635135+1068362239
1992+1069144127+1067839551+1064431807+1060890367+1059376511+1060414143
1983+1062387519+1063553407+1064066751+1064998719+1066443199+1067967167
1975+1069642559+1071289023+1071907391+1070802431+1068787839+1067573567
1966+1067557759+1067161279+1065287487+1063086783+1062281023+1063016639
1958+1064282047+1065281279+1065583295+1064990207+1063859903+1062905919
1949+1062412927+1062119935+1061816703+1061473343+1060875007+1059821631
1941+1058627839+1057735807+1057224191+1057204671+1057938879+1059118207
1932+1059851327+1059738047+1059140095+1058350911+1057412351+1056605951
1924+1056306111+1056442815+1056723839+1057219903+1058263807+1059817087
1915+1061276927+1062202879+1062930815+1064112255+1065639103+1066648319
1907+1066847103+1066895679+1067232063+1067485695+1067359423+1067303935
1898+1067812799+1068640191+1069243967+1069565695+1069852799+1070118143
1890+1070204927+1070071039+1069860543+1069856319+1070258559+1070909823
1881+1071461631+1071720063+1071658239+1071430015+1071386751+1071682367
1873+1072097343+1072500735+1073019263+1073562175+1073741823+1073494911
1864+1072948735+1072345855+1071874623+1071556543+1071242431+1070830847
1856+1070421439+1070222719+1070311167+1070517567+1070649151+1070719295
1847+1070821183+1070940095+1070958271+1070727295+1070233215+1069670079
1839+1069270207+1069170303+1069327679+1069485631+1069478015+1069598911
1830+1070239551+1071083583+1071455231+1071171583+1070271999+1068742143
1822+1066783423+1064768831+1063040063+1061816703+1061046591+1060566207
1813+1060489151+1061010239+1061864831+1062451007+1062444863+1061963455
1805+1061365695+1060982463+1060909183+1061106111+1061491455+1061863935
1796+1062152191+1062580863+1063273215+1064038015+1064771263+1065504895
1788+1066145983+1066682559+1067279935+1068068671+1069064063+1070070719
1779+1070694719+1070863551+1070918399+1071029631+1071102143+1071100223
1771+1071008575+1070824575+1070640959+1070372543+1069871167+1069259327
1762+1068629823+1067803775+1066831487+1065990399+1065250175+1064447999
1754+1063631871+1062904703+1062302015+1061624895+1060372031+1058440959
1745+1056266111+1054136831+1052182911+1050717375+1049823103+1049165567
1737+1048708223+1048751743+1049373055+1050340927+1051412735+1052370367
1728+1053088383+1053507199+1053528447+1053279871+1053060095+1052783103
1720+1052178239+1051236799+1049800447+1047770943+1045821119+1044352191
1711+1043228671+1042518527+1042278911+1042106431+1041579071+1040502335
1703+1038433343+1034672255+1028719743+1020271807+1007920063+989861311+967505023
1693+943130175+914751231+880027903+842286335+804827391+760142399+696346495
1683+621497535+551222847+483654656+415735168+351456480+300926656+278687776
1673+292323488+339760864+416384992+504419200+577503359+631189951+677502463
1663+724356927+768299135+802772479+828060671+847396863+863442943+881175359
1653+904976191+925002815+934513855+940376703+948241727+957898431+965206591
1643+968803967+970118207+970807423+972502655+977262271+986772927+997904255
1633+1004964031+1007905727+1009248703+1010305727+1011299455+1012075263
1625+1012495103+1012567807+1012198847+1011084799+1009026047+1005722239
1616+1000423295+992349375+980254527+960842303+928499263+877444991+806929407
1606+725771839+650324415+596763071+573358143+577699519+601257727+635980735
1596+676083519+716747007+754273599+787439423+816984319+843499455+866549759
1587+885551679+900766143+913448895+925003775+935829375+945575871+954488127
1577+963292159+971251839+977067903+981834751+987830335+995685823+1003084351
1567+1008075967+1010912831+1011964415+1010547455+1001776511+971160063+915541759
1557+869645695+845235647+832054655+827484031+834868863+854895423+881399359
1547+906847679+928872063+948041727+964385151+978912767+992049919+1000459455
1537+1004085759+1006103167+1008424127+1011080127+1013055231+1014046975
1528+1014773055+1015915583+1017404287+1019157951+1021963519+1026124927
1520+1030175871+1033126911+1035562687+1037849215+1039670719+1040896703
1511+1041802303+1042822783+1044628479+1047955711+1051651071+1053481023
1503+1053632703+1053076863+1052195327+1050724671+1048246911+1045209727
1494+1042738495+1041494271+1041928639+1044666303+1049289599+1053579775
1486+1055751039+1055644607+1053677055+1050004863+1044293183+1035700991
1477+1023026559+1004458303+975700287+930023871+868989567+807147327+753806975
1468+709232511+676187391+662042815+667233919+682185535+700167295+722348991
1458+752523775+784698495+807217343+821075967+831956351+842011263+850830591
1448+857896319+863660863+869629503+877991807+890071295+905094847+921885759
1438+940403199+958972799+973261183+982363839+989222335+996073215+1002847295
1428+1008159487+1011270335+1012385855+1011872127+1010070527+1007278975
1419+1003690751+999953087+997052735+995022015+992970687+989692479+983749119
1409+973668863+958000319+934835839+903415231+867807615+835011711+809645823
1400+794614655+792218367+801736383+819380543+839693887+856978879+867771391
1390+868829567+853061503+813668351+755500159+694798847+648904511+630584703
1380+642762879+675698175+714246143+747325631+770291711+783395455+789941247
1370+793673791+796475071+797525375+794917951+788993407+784136127+785480767
1360+792669823+800217791+802779263+797931903+786425855+771323711+756933439
1350+748012159+748444031+759468287+779041279+803059135+827847871+851896191
1340+875038783+896592895+915371327+930961023+943730367+954177919+962867583
1330+970558207+978011199+985592191+993094719+999956223+1005597503+1009614399
1320+1011812607+1012198399+1011112383+1009441727+1008431359+1008937791
1312+1010740799+1012720127+1013665535+1012680383+1008943551+1001473727
1303+989323519+972055935+950216959+925785023+902325439+884076735+873858303
1293+871384127+873644799+876959231+878769407+877938751+874249279+868380351
1283+862107391+857650367+856560191+859534911+867127167+879822143+897043775
1273+916520063+935214719+951257215+965047039+978330175+992160063+1005807423
1264+1017515455+1025962879+1030862975+1032671551+1032222399+1030446719
1255+1028047359+1025331775+1022279423+1018650815+1014053503+1007969535
1247+999778623+988981119+975674623+960773055+945445759+930062527+913480319
1237+893181119+866085503+829632959+782969087+727982975+669330047+612809663
1227+563121215+522877408+493249536+474771296+467221472+469081248+477548224
1217+489374432+501966560+513940928+524944064+535237344+545465279+556507583
1207+569178687+583869695+600392767+618039615+635783935+652670975+668252543
1197+682691071+696465023+710025471+723623359+737160063+749983359+761042047
1187+769795007+777251519+785733439+797131135+811387135+826777791+841398719
1177+854116287+864312575+871142463+873145599+868290943+854110399+828066367
1167+788882751+738784575+684699839+636324863+601873983+584877439+584107455
1157+595675583+615196927+638907199+663914239+688180031+710497727+730343295
1147+747535999+761947775+773329215+780978111+783585535+780330623+772909887
1137+765998079+764600063+770481407+781232575+792432959+800095359+801404351
1128+794952383+782249471+768987583+762751871+767810175+782184447+800035327
1118+816278655+828825151+837743551+843696319+847208639+848454271+846912639
1108+841305215+830846847+817402943+806014975+802128063+807747839+820377535
1098+835408895+849010303+859059519+864363071+863615615+855294079+839003263
1088+817400319+796585599+783800447+783816511+796662463+818148287+842582015
1078+865660159+885576639+902153599+915619775+926256831+934494335+940842111
1068+945804351+949850303+953333375+956471615+959355583+961844543+963654527
1058+964790463+965789951+967462207+970496063+975234879+981552831+988844095
1048+996259775+1003154047+1009354303+1014942399+1019889663+1024100351
1040+1027668799+1030807615+1033407999+1034492543+1031653439+1020796863
1031+997461951+961115903+920043519+889780735+882681407+898285055+925278975
1021+952006399+973700287+991545663+1008159551+1024786239+1041107711+1055915199
1011+1067550847+1073741823+1069947711+1048078975+1002872639+943010815+891594239
1001+869051455+876560895+899127615+921458175+937033151+945373631+946474495
992+938804863+920276415+889613823+846586047+791538111+725913407+653779135
982+581997055+517947840+467233120+433765568+420509376+427906624+451537024
972+483097984+514565632+541386367+562464895+578469183+590525567+599803263
962+607629247+615646271+625488255+637937727+652424703+667582335+682316031
952+696274431+709477375+721811007+732985599+742836863+751448639+758896447
942+764984511+769351295+771830463+772696063+772649343+772601791+773347647
932+775318719+778673343+783574719+790146431+798061311+806434687+814319551
922+821238463+827278399+832853503+838375615+843995263+849572415+854882879
912+859817343+864380543+868565503+872323519+875644735+878599551+881373695
902+884275839+887502591+890910143+894295039+897775935+901584895+905676543
892+909798463+913714367+917249151+920323967+922957759+925101695+926410303
882+925934655+921879359+911985023+894692991+870362303+841657151+812795135
873+787807999+768103615+751047615+733011903+715982911+708982847+719569343
863+745083519+774735999+798691647+813120895+818492031+815962431+805865535
853+788485311+764694975+735025407+699139647+657548543+613881023+574391807
843+543542335+520370528+502074464+489727200+484444224+480135808+470166816
833+460955040+468453888+500085152+547999039+599493759+646910783+687978367
823+722695359+751592831+775153599+793906303+808610559+820053567+828924991
813+835904127+841615935+846489791+850730303+854610495+858909439+864635903
803+872081727+880578303+889265087+897617407+905278527+911898175+917215359
793+920993087+922876479+922828223+921959231+922289343+925009855+929159551
783+932320383+932568639+929908543+926066111+922847871+920687615+918811071
773+916421311+913404991+910155583+907250175+905551295+906235199+910009407
764+916056127+921908543+924103999+918025855+896083199+847274303+763585855
754+651104127+532688256+435557184+376565536+358998208+377324672+420868128
744+476648640+533893600+586862399+633647423+673759039+706927743+733024895
734+752548031+767039743+778982975+791136127+805349631+821659583+838756735
724+855321407+870698303+884582015+896468479+905643135+911825535+915477631
714+917120895+916714623+913965631+908547967+899307391+884154943+862601151
704+837971263+814011199+789392767+760179391+728203455+701520383+685508671
694+679308031+682029055+695906303+721000127+751674367+780700735+804287231
684+822320447+836039935+846843071+856545215+867192895+879794367+893676159
674+907218111+918988415+928901887+938523135+949050623+957950079+962536447
664+964772287+967304767+971059583+975467007+979526783+982852415+985549759
654+987403455+987529023+984562751+975987263+956101247+916925567+857008511
645+791215103+745580607+736893887+759950591+796753151+833143743+864046399
635+888653951+906923903+919712127+928594687+935012415+940315263+945976575
625+952752127+959848575+965750655+969801215+972489919+974541247+976252735
615+977607231+978740863+980157951+982280959+984880255+987349439+989476351
605+991522239+993514111+994845183+994979455+994460735+994520959+995530687
595+996651455+997062271+996798527+996482303+996694527+997404863+997943359
585+997798783+997210047+996679999+996376319+996232063+996176447+996218623
575+996493055+996975615+997162047+996512575+995368383+995078911+996775551
565+1000032575+1003125503+1004648959+1004534783+1003345471+1000916671+995877439
555+986109759+969735167+947062015+923014975+906685695+905591039+919260735
545+939793151+958829439+972705855+981732351+987221631+989953151+990249855
535+988592703+985716479+982085375+977872127+973512127+969756223+967417215
526+967373695+970041343+974550783+979281535+983368703+987225663+991215999
516+994377855+995477439+994680383+993248895+991965631+990311039+987058431
506+981360767+973141247+962681343+950093503+934704255+914720767+888549887
496+857511807+826599615+800905663+781175935+764073727+747102079+731647999
486+721057151+717762047+722427199+734060543+750404735+768992895+787887871
476+805570815+820724671+832147071+838836415+840517759+837861183+832219711
466+825460799+819403007+815104511+812941631+813465855+818179135+828331903
456+842383423+857585919+873240319+889236479+904378879+918287807+932019519
446+945244287+955522239+961678463+965646335+969754047+974097023+977686591
436+980310527+982345791+984119999+986451647+990329919+995003519+997993215
426+997879423+995466495+991902847+987326271+981976063+977669887+976503871
416+977591807+978807487+979292735+978695743+976368063+972046143+967409983
407+965709759+968518079+974313535+981417535+989556095+997107071+1000839039
397+1002737855+1008884351+1019276799+1029837887+1038555199+1045306943
388+1049715519+1051353535+1050522943+1048556287+1048095615+1051290239
380+1057675263+1064883071+1070516671+1073243903+1073741823
##END=
