##TITLE=X8143
##JCAMP-DX=4.24
##DATA TYPE=INFRARED SPECTRUM
##DATE=30/10/2018
##SAMPLING PROCEDURE=Diamant-ATR
##ORIGIN=ComPlat
##XUNITS=1/CM
##YUNITS=TRANSMITTANCE
##RESOLUTION=4
##FIRSTX=3997.453
##LASTX=373.96442
##DELTAX=-1.4165319
##MAXY=0.95175391
##MINY=0.34708697
##XFACTOR=1
##YFACTOR=8.8638991e-010
##NPOINTS=2559
##FIRSTY=0.92384356
##XYDATA=(X++(Y..Y))
3997+1042254154+1042891294+1043924502+1044386672+1044050787+1043315538
3989+1042576322+1042216968+1042676045+1043888863+1045137118+1045854883
3980+1046069460+1045919169+1045437969+1044852876+1044483167+1044373290
3972+1044371340+1044419151+1044536896+1044693776+1044792491+1044729887
3963+1044521093+1044367507+1044483504+1044872579+1045332732+1045541391
3955+1045176120+1044233288+1043196381+1042677121+1042882216+1043397710
3946+1043529509+1043094977+1042809525+1043481362+1044737754+1045478853
3938+1045427479+1045049499+1044540863+1043866201+1043407259+1043624593
3929+1044215401+1044434415+1043949719+1043063977+1042412985+1042258054
3921+1042190608+1041826750+1041411315+1041499943+1042236402+1043323943
3912+1044515781+1045640643+1046249338+1045662296+1043606706+1040746874
3904+1038447456+1037611744+1038046411+1039346445+1041189341+1042872869
3895+1043685650+1043534351+1043074938+1043211780+1043886845+1044112920
3887+1043387220+1042029424+1040529070+1039123799+1038426879+1039397752
3878+1041479097+1042749408+1042291004+1040512124+1038269393+1036550092
3870+1036623186+1038628612+1040544670+1040796500+1039954131+1039556583
3861+1040037716+1040614470+1040688977+1040096958+1038650601+1036362346
3853+1035013022+1036918657+1040694558+1044000891+1045716360+1045560152
3844+1043892561+1041408827+1038732235+1036476392+1035604839+1036788002
3836+1039119025+1041068234+1042113009+1042535303+1042698101+1042759293
3827+1042737170+1042542901+1041945100+1040844042+1039712657+1039273888
3819+1039297827+1039368030+1040280737+1042629377+1045140077+1046286995
3810+1045689328+1043813683+1041931247+1041249592+1040929106+1039316992
3802+1036985767+1036491253+1038507169+1041442180+1044430919+1047040736
3793+1048521186+1048655809+1048013761+1047259280+1046675600+1046258214
3785+1045960524+1045614552+1044884280+1043795393+1043201290+1043898411
3776+1045297092+1046228829+1046326736+1045975116+1045652344+1045459285
3768+1045181768+1044972975+1045399371+1046348524+1046745735+1045877881
3759+1044347670+1043378882+1043108022+1042455618+1040466533+1037264360
3751+1034735034+1034830118+1036145617+1036463615+1035700258+1035167415
3742+1035445672+1035441166+1034020833+1030847777+1026900942+1024734197
3734+1026123127+1029674365+1033101200+1035345545+1036192756+1035964596
3725+1035498526+1035576932+1036312652+1037423326+1038704195+1040051165
3717+1041199024+1041519511+1040361093+1037942384+1036098210+1036778453
3708+1039325263+1041670945+1042496772+1041675921+1040305012+1040030050
3700+1041278036+1042961093+1044150644+1044690280+1044819927+1044840436
3691+1044870158+1044839562+1044814076+1044979565+1045195352+1045147205
3683+1044682412+1043845221+1042745172+1041316769+1039517380+1038385591
3674+1039409116+1041327192+1041998424+1041731666+1042721502+1045531371
3666+1048279712+1049545047+1049277953+1048207828+1046916939+1045491899
3657+1044304230+1044248418+1045039950+1044793970+1042269284+1038241957
3649+1035640075+1036658960+1039782389+1042939441+1045275910+1046529074
3640+1046919226+1046941484+1046686897+1045757177+1044007683+1041817403
3632+1039380806+1036600592+1034594494+1035578412+1038642195+1041025736
3623+1042000643+1042246757+1042439345+1042750619+1043056916+1043157985
3615+1042940248+1042680819+1042822368+1043229869+1043585658+1044391715
3606+1046042495+1047428534+1047246302+1045623429+1043797747+1042751829
3598+1042384003+1042056523+1041561740+1041359133+1041694749+1041907241
3589+1041240850+1040176642+1040523152+1042980930+1046017951+1047961445
3581+1048345073+1047932059+1047733150+1047920896+1048194782+1048579083
3572+1048948658+1048486286+1046551332+1043914953+1042635564+1043555936
3564+1045151441+1046276841+1047220682+1048499130+1049988389+1051075998
3555+1051213109+1050359375+1049236598+1048754725+1048834679+1048623330
3547+1047883912+1047348042+1047680027+1048867091+1050588275+1052255059
3538+1053103345+1052945926+1052361506+1051780852+1051097247+1050307866
3530+1049677989+1049243860+1048770595+1048300961+1048362422+1049458235
3521+1051319018+1052883456+1053337692+1052970403+1052681993+1052789987
3513+1052752263+1052051376+1051019647+1050568976+1051034373+1051683281
3504+1051707220+1051277394+1051167517+1051520550+1051796991+1051721475
3496+1051560560+1051626123+1051921056+1052236567+1052413755+1052531769
3488+1052808345+1053208919+1053349863+1052989837+1052420278+1052124538
3479+1052179342+1052322505+1052486312+1052844926+1053358537+1053714259
3471+1053793070+1053713722+1053417443+1052746682+1051903438+1051278806
3462+1050923420+1050678719+1050673877+1051222119+1052314099+1053496388
3454+1054277498+1054583728+1054741080+1054990085+1055131634+1054770667
3445+1053852379+1052807000+1052182771+1052169860+1052421556+1052465870
3437+1052281553+1052226614+1052437492+1052656171+1052711042+1052800881
3428+1053141204+1053608081+1053841284+1053512594+1052569291+1051418943
3420+1050691898+1050648795+1051061607+1051635134+1052169995+1052438568
3411+1052300449+1051892141+1051517456+1051431854+1051743397+1052352899
3403+1052981700+1053373062+1053455840+1053255923+1052723550+1051793225
3394+1050661706+1049794187+1049468053+1049507323+1049668508+1049938292
3386+1050247884+1050339404+1050269873+1050610398+1051663982+1052825828
3377+1053266816+1053022181+1052805117+1052955408+1053163125+1053091981
3369+1052786356+1052523767+1052439779+1052326069+1052047946+1052145047
3360+1053293848+1055046032+1056033380+1055694872+1054862993+1054363167
3352+1054057004+1053602231+1053202463+1053157813+1053342802+1053497733
3343+1053600953+1053759582+1054024861+1054291215+1054226661+1053612384
3335+1052880699+1052846741+1053753463+1054959287+1055650626+1055627494
3326+1055366586+1055419305+1055816450+1056137003+1056095648+1055850879
3318+1055704757+1055730848+1055848189+1056104793+1056558154+1056886239
3309+1056609125+1055827142+1055248908+1055341033+1055875221+1056293010
3301+1056211577+1055670463+1055049932+1054628042+1054329477+1054071596
3292+1054036158+1054379911+1054966079+1055502083+1055715247+1055464561
3284+1054939517+1054633220+1054895943+1055577867+1056185285+1056346200
3275+1056136062+1055932446+1055967346+1056170962+1056389909+1056434559
3267+1056022016+1055197803+1054739398+1055453264+1057027116+1058232671
3258+1058363865+1057888246+1057538038+1057311626+1056706226+1055650155
3250+1054817940+1054944359+1055960823+1056941716+1057053072+1056586733
3241+1056620288+1057435961+1057959121+1057326958+1056298860+1056203642
3233+1057122737+1058002628+1058094820+1057582285+1057094965+1057079634
3224+1057442820+1057581276+1057004925+1056013879+1055419978+1055495426
3216+1055696083+1055614583+1055611960+1056147762+1056999008+1057546511
3207+1057506702+1057097655+1056668031+1056361398+1056150587+1056123689
3199+1056535426+1057459093+1058539910+1059214303+1059165685+1058596328
3190+1058003704+1057600104+1057194890+1056785373+1056800435+1057437911
3182+1058212498+1058551947+1058536817+1058660412+1058997508+1059074300
3173+1058584157+1057795920+1057151450+1056841723+1056828140+1056948507
3165+1057012188+1056969286+1056848650+1056523860+1055769984+1054429873
3156+1052384033+1049706904+1046903827+1044503610+1042467453+1040440106
3148+1038333544+1036270961+1034284632+1032322848+1030252598+1027889365
3139+1025320903+1022889418+1020514686+1017455946+1013101072+1007733567
3131+1002471837+998802788+998039364+1000588661+1005603470+1011588076+1017309555
3121+1022090488+1025498428+1027011491+1026171543+1023084426+1018530845
3112+1013512540+1008892455+1005422180+1003798768+1004486139+1007369170
3104+1011650277+1016382324+1021093457+1025579323+1029420585+1032349006
3095+1034760856+1037148364+1039327482+1040845185+1041835962+1042943005
3087+1044525061+1046261711+1047540496+1048067758+1048013290+1047698385
3078+1047304065+1046806928+1046127223+1045368707+1044744748+1044180366
3070+1043381908+1042425425+1041802004+1041862524+1042620367+1043833252
3061+1044812194+1044577982+1042648071+1039351555+1035337005+1031378133
3053+1028608341+1028115037+1029923706+1032718916+1034885930+1035721306
3044+1035423145+1034294786+1032580797+1030895386+1030025313+1030176679
3036+1030966262+1032194277+1034082294+1036678259+1039481942+1041843023
3027+1043497366+1044602324+1045374961+1045897583+1046364528+1047165541
3019+1048341980+1049313794+1049701390+1050058121+1051175116+1053000663
3010+1054796220+1056043736+1056774950+1057259512+1057648520+1057867669
3002+1057859869+1057803047+1057840099+1057791952+1057470323+1056995377
2993+1056533812+1056038020+1055410160+1054629521+1053703568+1052664913
2985+1051435217+1049634079+1046792201+1042736027+1037550619+1031336172
2976+1024067066+1015310921+1004031635+989192035+970781158+950040872+928732440
2966+908430722+890441870+876020327+866271790+861644577+861583251+864842648
2956+870182448+876808094+884315715+892333519+900169763+906822575+911432640
2946+913697697+913753778+911771215+907794994+901799360+893664888+883142235
2936+869931896+853707332+834186992+811697683+787881107+765449560+746911659
2927+733452315+724785873+719855993+717729528+717946390+720185894+723985733
2917+729046806+735548319+743701149+752868022+761220434+766259047+765724455
2907+758358921+744347232+725437739+704647222+685393841+670322181+660483604
2897+655294363+653216986+652827574+653625697+655797149+659055806+662042864
2887+663348479+663107812+663314991+666547155+674343187+686448568+701250377
2877+716844391+731845580+745549492+757710686+768230515+776957947+783840735
2867+789129295+792947223+794555235+792531183+786039555+776049275+765512434
2857+758196795+756532096+759898209+764816859+766916830+763620516+756493632
2847+751420858+755224127+770836970+795413205+822912280+848199085+869082668
2837+885691869+898936368+909626459+918398475+925798102+932206683+937818822
2827+942794764+947323666+951430610+954881384+957488176+959376866+960785768
2817+961875797+962958699+964541360+966838626+969517907+972146486+974670970
2808+977310913+980130600+982857355+985091882+986593044+987356132+987583955
2798+987663371+987991187+988711709+989692265+990739931+991833121+993198919
2788+995079069+997357103+999594925+1001459071+1002878329+1003870922+1004530184
2778+1005147487+1006081308+1007416847+1008804365+1009772548+1010264642
2769+1010668511+1011277744+1012076471+1013042704+1014178191+1015237759
2761+1015876311+1016062107+1016051482+1016042000+1016033662+1015948531
2752+1015781362+1015629726+1015605316+1015771141+1016144817+1016683511
2744+1017266586+1017720821+1017866876+1017682492+1017470538+1017610742
2735+1018073114+1018483573+1018685844+1018819458+1018850727+1018564938
2727+1018093892+1017933851+1018320169+1019001959+1019714748+1020490276
2718+1021394914+1022297870+1023002522+1023434231+1023667837+1023859551
2710+1024140430+1024561581+1025130669+1025803515+1026435813+1026876667
2701+1027085460+1027057083+1026756568+1026289153+1025984940+1026071080
2693+1026321969+1026249614+1025548458+1024081793+1021631613+1018246537
2684+1014846868+1012826783+1012777896+1013955142+1015126671+1015643242
2676+1015637930+1015574384+1015811622+1016396714+1017075679+1017533344
2667+1017608254+1017209361+1016206682+1014639150+1012896919+1011487142
2659+1010724458+1010678866+1011214265+1012065174+1013069131+1014258144
2650+1015643914+1017119859+1018640857+1020242279+1021819561+1023099220
2642+1023883422+1024231680+1024355813+1024366774+1024209624+1023930359
2633+1023901175+1024561715+1025878963+1027252629+1028110128+1028450250
2625+1028557034+1028424764+1027937647+1027424640+1027395255+1027782111
2616+1028044229+1028011548+1028047995+1028366195+1028750227+1029037898
2608+1029374186+1029857538+1030356894+1030786316+1031193749+1031490431
2599+1031428835+1031010172+1030684643+1030931631+1031723836+1032632306
2591+1033352357+1033804777+1033848687+1033344624+1032487462+1031763980
2582+1031592440+1032043986+1032811915+1033562496+1034324642+1035211863
2574+1035978515+1036439273+1036930492+1037628286+1038005527+1037796262
2565+1037803727+1038802976+1040188343+1040625767+1039752398+1038423114
2557+1037484518+1037092887+1037113733+1037432135+1037836004+1038099803
2548+1038159516+1038011915+1037734532+1037713686+1038431250+1039887828
2540+1041478424+1042443918+1042440354+1041841005+1041402976+1041482661
2531+1041810073+1042053968+1042183750+1042276681+1042424350+1042717938
2523+1042889478+1042300889+1040843975+1039490078+1039310267+1040224184
2514+1041236345+1041671483+1041750158+1042101039+1042997943+1044058385
2506+1044683757+1044757524+1044596205+1044229993+1043326230+1041982420
2497+1040975706+1040918414+1041582586+1042232636+1042295913+1041663010
2489+1040690187+1040020972+1040183098+1041268017+1042959547+1044670510
2480+1045678972+1045571180+1044743268+1044104044+1044080912+1044238869
2472+1044068606+1043798486+1044053073+1044884683+1045621680+1045791270
2463+1045794767+1046320348+1047348311+1048203591+1048489312+1048446074
2455+1048371231+1048291278+1048311048+1048608805+1048889617+1048517151
2446+1047437477+1046391022+1046014925+1046208588+1046453559+1046356526
2438+1045781385+1044750934+1043468519+1042373513+1041917664+1042178235
2429+1042841600+1043542824+1044052132+1044241492+1044098934+1043738639
2421+1043433888+1043633671+1044562314+1045699213+1046202066+1045957633
2412+1045653890+1045870013+1046607414+1047551187+1048394363+1049094242
2404+1049865534+1050661033+1050922210+1050316003+1049365841+1048822440
2395+1048740066+1048679546+1048487429+1048348435+1048233044+1047631679
2387+1045753815+1041991364+1036441963+1029842812+1022712969+1014880087
2378+1006174643+997085571+988201258+979451836+970438414+961107800+951673832
2368+942171208+932578207+923524102+916479323+912549366+911231782+911263656
2359+912666237+916851924+924606533+935170608+947086361+958429528+966637768
2349+969422622+966012194+958180455+950164467+945579215+944567256+945420989
2339+946957050+948804923+950847736+952709192+953890271+954544423+955501444
2329+957204203+959286557+961342147+963393097+965663129+968595047+972963504
2319+979082800+985858265+991467312+995088080+997432820+999668356+1002431423
2309+1005923822+1010271433+1015332304+1020372195+1024439600+1027289681
2300+1029653519+1032339390+1035355430+1038093886+1040017072+1041051221
2292+1041635910+1042333704+1043239014+1044115207+1045067587+1046348053
2283+1047574454+1048107163+1048124041+1048363700+1048951617+1049369876
2275+1049453662+1049658018+1050338462+1051245991+1051809767+1051702849
2266+1051129053+1050703061+1050917234+1051452162+1051336502+1050268394
2258+1049237136+1049123829+1049471818+1049475382+1049192284+1048966007
2249+1048914162+1049563741+1051457811+1053712578+1054553401+1053687496
2241+1052705999+1052791870+1053278651+1052978607+1052054335+1051684895
2232+1052295674+1053180609+1053811360+1054449038+1055422062+1056693988
2224+1058124408+1059554963+1060653129+1060835831+1059492425+1056760022
2215+1054058752+1053114104+1054434715+1057256284+1060647749+1063947358
2207+1066340111+1066821715+1065009952+1061839250+1058872702+1056813682
2198+1055275806+1053981219+1053347442+1053624219+1054070587+1053555160
2190+1051929529+1050182859+1049207414+1049219114+1050281305+1052188487
2181+1054045101+1055373915+1056977355+1059233400+1060605722+1059323709
2173+1055863252+1052672713+1051747028+1052985735+1054748678+1055666159
2164+1055649751+1055674497+1056997528+1059584416+1061255974+1060334525
2156+1058194813+1056960678+1057253998+1058822941+1061021627+1062610879
2147+1062454737+1060407553+1057237792+1054095871+1051713137+1049824918
2139+1048131236+1047615069+1049673148+1054058954+1058805323+1062065931
2130+1063263282+1062829019+1061567516+1060155387+1059004501+1058516307
2122+1059035501+1060188807+1060774572+1059998775+1058550266+1057740847
2113+1057805267+1057794776+1057099807+1056318966+1056397306+1057388957
2105+1058446777+1058951042+1059221565+1059825352+1060579429+1060866898
2096+1060726223+1060825745+1061315754+1061523068+1061010061+1060286782
2088+1060187328+1060958014+1062079918+1062556343+1061556892+1059512733
2079+1058257215+1059052244+1060844035+1061665760+1061347628+1061350855
2071+1062363890+1063619341+1064375234+1064802638+1065365675+1066011421
2062+1066057954+1064670167+1061576124+1057675082+1054932053+1054962918
2054+1057060200+1058224400+1056224354+1052308652+1050097795+1051853476
2045+1056585052+1061849539+1066247516+1069453051+1070677031+1068876565
2037+1064881314+1061470416+1060244149+1060116587+1060026412+1060871067
2028+1063210428+1065528540+1066656832+1067849409+1070453578+1073189075
2020+1073741823+1071873912+1069319840+1067737313+1067914502+1069498508
2011+1070667213+1069802116+1067820965+1066863406+1066957548+1066357931
2003+1064706076+1063557745+1064174442+1066103479+1067582584+1067031920
1994+1064609109+1062282054+1061902258+1063312371+1064969606+1065679369
1986+1064868336+1062386417+1058980696+1056329927+1056185755+1059443740
1977+1065151502+1070296764+1072428341+1072212218+1071509918+1070359369
1969+1067962178+1065332523+1064513488+1065606275+1066900727+1067572632
1960+1068410630+1069906815+1070844469+1069465087+1065666727+1061595423
1952+1059985460+1061966006+1066204883+1069946623+1071234217+1070258233
1943+1068404914+1066607676+1065219889+1064675479+1065191310+1066224048
1935+1066900323+1066673845+1065326807+1063082395+1060817944+1059237166
1926+1057961341+1056402282+1055070711+1054829909+1055382993+1056019326
1918+1057076339+1059117539+1061343660+1062476054+1062524604+1062623588
1909+1063418280+1064269593+1064370258+1063837683+1063189852+1062450366
1901+1061257856+1059445287+1057145600+1054630866+1052356530+1050841046
1892+1050298318+1050594260+1051465544+1052727114+1054522401+1056963973
1884+1059294458+1060284428+1059941348+1059676876+1060374065+1061493010
1875+1062246078+1062541415+1062611685+1062488225+1061976362+1061036354
1867+1060227136+1060244687+1061120745+1062321123+1063268998+1063725654
1858+1063874062+1064086285+1064598417+1065369575+1066089021+1066257804
1850+1065541182+1064166776+1062753907+1061869241+1061987121+1063190053
1841+1064765923+1065999788+1066769668+1067137494+1066955396+1066071941
1833+1064622962+1063049916+1062161149+1062630917+1064091127+1065723280
1824+1067258668+1068666360+1069557548+1069584917+1069070565+1068661451
1816+1068357843+1067498596+1065757910+1063626267+1061998283+1061455958
1807+1061883699+1062591243+1062772803+1062182734+1061449166+1061397187
1799+1062013749+1062567506+1062485199+1061619631+1060325985+1059644397
1790+1060326523+1061646327+1062433421+1062142455+1060866024+1059034088
1782+1056999142+1054965541+1053208650+1051960058+1051093750+1050184540
1773+1048967016+1047836707+1047404393+1047447295+1047333854+1046737935
1765+1045581468+1044080979+1043013275+1043114948+1043991074+1044796660
1756+1045257283+1045314777+1044653766+1042932851+1040409644+1038349750
1748+1037768760+1038103569+1038312766+1038095298+1037739374+1037481895
1740+1037314457+1036999956+1036078642+1034324911+1032718916+1032880706
1731+1034579902+1036839511+1039213637+1041267076+1042724797+1043723105
1723+1044284999+1043947701+1042344934+1040286923+1040119485+1042787670
1714+1046368966+1049479013+1051899337+1053409576+1053703971+1053105699
1706+1052765308+1053279525+1053807393+1053399825+1052346309+1051832899
1697+1052512403+1054696160+1057778436+1060147654+1061067555+1060957611
1689+1060406208+1059306562+1057249358+1055254490+1055525753+1057355402
1680+1058684485+1058823345+1057941369+1056725929+1056054091+1055919132
1672+1055682365+1055697226+1057039825+1058992195+1059701959+1058758320
1663+1057482898+1057632785+1059186867+1060645194+1060877388+1059431637
1655+1056531929+1054303050+1054622057+1054914906+1053482468+1051211898
1646+1050298116+1050921000+1051063020+1049920472+1047778137+1044666206
1638+1039851247+1032543476+1023450840+1013209604+999443693+978018928+946294358
1628+908259316+873520252+847601082+828740072+812266234+793191992+764480705
1618+718644184+663521229+625470856+611623176+607435538+601284570+593397153
1608+593856364+611409204+645081101+687200224+729588526+767053000+798279358
1598+824326023+846497603+865301186+880531611+892481523+902921735+914042794
1588+926517884+939164649+950250002+958597370+963579162+964611899+960714489
1578+950128156+932917253+917368830+912607600+917645944+929092197+944277568
1568+958255500+967676490+973755305+978148172+980693636+980916215+981035573
1558+986120854+993610925+998219847+999908217+999340944+996905760+993319421
1548+989277906+984695477+978805888+971036888+960864981+945789152+924922111
1538+905603907+889701645+869423059+836292545+790368540+742004912+694579275
1528+642403502+585828071+537350531+510071177+511492183+544995432+598361126
1519+654833269+711104151+763158346+802640418+829103393+847438350+860852574
1509+873699391+895148835+924450795+946629974+959639656+968075316+974491495
1499+980318884+986700029+993492239+998993291+1001964143+1002809807+1003394025
1489+1005328777+1006951718+1004064182+993215125+974688319+955270191+945006832
1479+947551758+957022845+963907179+960381293+942493375+912462957+877048021
1469+839261716+797866074+754414977+719670870+706110726+711740282+725340100
1459+736448181+735544284+722192530+709370392+703241077+703094753+708043999
1449+715654437+721747507+725011881+729962539+742893074+765909780+795048808
1439+825424526+855911465+884381413+904011293+913618214+920190400+930902614
1429+947017503+962837727+973209483+978254149+980654567+982330295+983832733
1419+985595408+988360627+991988859+995310524+997219858+997039845+994343282
1409+988461224+977787541+958921017+927971907+885751716+838279075+790655807
1400+747487270+715630027+698984178+695471270+701895989+716032013+735956760
1390+760347670+787104704+810858273+825070417+827355579+818844606+800243697
1380+770750023+729735051+678079884+619507298+564676990+528966347+519385215
1370+531785832+557730388+586432597+608457920+622524884+636703810+660123511
1360+691506951+721334090+742172283+753455132+760221251+767929664+777791440
1350+786298176+788835034+785210635+781051644+781688514+786164831+789603031
1340+790427311+793438375+804356559+823517007+847142341+871025826+892085253
1330+908895178+921621224+931112753+938010805+942638085+945118457+945078043
1320+941313171+932376273+918482530+903109212+891846603+888781811+893632611
1310+903069336+914553851+927306189+940342096+951824460+960536090+966704945
1300+971057935+973467163+972636898+967328501+958161291+947657130+937951428
1290+929238050+921428636+916620805+918303593+927963838+943466938+960570922
1281+975288205+985030959+987920984+981355051+962428949+931052300+892452272
1271+855534628+828628782+817029347+822766628+843990871+874724866+907238212
1261+935342552+955701226+967186817+969922381+965197799+955989099+946508195
1251+940511149+940024031+945046506+953436910+961417124+965400877+963741557
1241+956747615+945613510+931473048+914602334+893837033+866969786+832647098
1231+793304088+756966897+734950113+735537694+758485206+795338093+835096000
1221+869828811+896187221+913778121+923259967+925204671+919388714+904382549
1211+877629146+836455074+780519540+714984684+651551009+604472823+582960977
1201+586018574+604257709+626696988+646620054+663002709+678378448+695674885
1191+716140276+739105137+762527595+783574447+800197164+813103761+824809308
1181+835509620+841039520+836658354+823029890+807740828+800578170+806950776
1171+825217615+849437792+873922104+895678383+914101566+929522964+942087220
1162+951263172+955635730+952555741+937719032+906437870+858401655+802443863
1152+753723302+723427135+712673296+717667932+736714738+768295271+804760159
1142+831848774+834600814+804662049+746658754+679970658+630365970+615103268
1132+634564568+676675352+726899965+774629009+814210803+843702259+863313513
1122+873619168+874303379+864892005+847014510+825853477+809230760+804538185
1112+814800805+835753515+855983954+861871325+846503991+816157727+786433001
1102+770351264+771127129+785504829+809372376+838307990+866606263+889352176
1092+905191363+916193199+925351062+934331064+943051167+950750636+957078591
1082+962305959+966901634+971118523+975057221+978938695+982844444+986213382
1072+988122111+988218876+987213843+986473954+987056558+988862202+990605913
1062+990396043+986220914+976517632+961095226+941671919+921095172+900970709
1052+879509834+853752184+826150360+806533592+802878059+810513041+815014910
1043+806785086+790046708+777371298+778190198+793231666+817149916+843844548
1033+869504088+892556971+912436463+928929600+942113781+952158933+959004332
1023+961936250+958917789+947033776+925545734+899120819+876673538+865755825
1013+867443320+875911458+882762372+882904325+877727861+873405870+876109493
1003+888006551+906551715+926835479+944782034+958748602+968917349+975950562
993+980337107+982384763+982283089+980210822+976605185+972169685+967095365
983+960239004+949895020+935641722+918472981+899222762+879057078+862151801
973+855046166+861239229+877772578+898260025+917927765+935134498+949965693
963+962927363+974343423+984002592+991409684+996566109+1000248943+1003383064
953+1006368307+1009092776+1011275457+1012564127+1012441002+1010349235
945+1006251907+1001072484+996065274+991512298+986396287+979276530+969309719
935+957593009+948460699+947687525+957116786+971723587+983757756+989612648
925+991791429+994713260+999917026+1005525400+1008933743+1008555965+1002997956
915+989154983+960896721+910426935+834516288+742481875+656734131+601572645
905+588835840+613325330+660464238+716563983+772607982+822566106+862150590
895+889389968+904642246+909909221+908813342+906249788+906327253+910315444
885+916996701+924418384+930531762+933218911+931658776+927568912+923609435
875+920691572+917929715+914610739+910933015+907374247+904675801+904322164
866+907970098+916040016+927213123+939455817+951317572+962204622+971851620
856+980040963+986795852+992328644+996584937+999155551+999348879+995528463
846+985588683+970970652+959585121+960314721+973675621+991451846+1005678649
836+1014429214+1019313300+1021579297+1021362300+1017869296+1009273125+993959788
826+973489757+954510532+945957531+952436920+970466388+991823707+1009796016
816+1021908996+1028495169+1030395627+1027525103+1017744625+996293568+958675642
806+907360462+854031651+809997008+774589066+739268877+704480725+685881093
796+699647610+745098485+805250370+861396984+904186196+933757336+954184599
786+968967782+979628487+986224545+988349128+986228176+981590204+977189403
776+974434001+969983506+954239605+917285515+862381440+812302814+794306768
766+816219995+861622521+907799769+942040956+960858122+961601037+941716704
756+907161351+876477050+868910455+885692407+906418706+905092985+867762932
747+796699655+703171949+599994018+501506173+426363186+391573689+399679650
737+435999829+481002756+523264403+560699256+593088704+617450094+632249079
727+643302020+660675183+689068539+724269033+758863858+788428811+812304294
717+831425405+846941684+859950425+871427072+882024501+891878477+900839112
707+909038879+916855084+924166083+930227549+934593518+937729388+940478871
697+943243418+945895465+948309736+950696773+953383854+956473123+959769169
687+962940341+965713966+967814408+968492028+965336456+951998017+918009130
677+857136857+780933697+718928695+694899223+706989676+741846888+793757315
667+852083719+895148700+918578420+931309106+940215072+947621020+953392462
657+957097957+959065188+960151049+960540998+959193961+954307656+943702562
647+926193498+904248262+883736204+869281980+861393084+859399224+864375972
637+876874464+893757147+908996380+916440120+911463237+892531217+863581011
628+833845257+812842920+804471143+806413225+814949684+828605987+847287522
618+869825986+893228136+914117301+930498006+941868743+948232270+949644064
608+946365637+938681835+926637512+910910825+894591581+883332536+881879791
598+889745623+901557348+911856750+918480378+921790612+922194212+918806715
588+909961336+895279625+878050835+864887096+861758153+869862433+884656576
578+899153500+909111637+915635945+922850247+933062769+944709209+954494393
568+960856845+965068488+968991452+972923762+976209788+978835341+981268239
558+983229889+983999566+983998222+984799235+986958180+988713121+987901012
548+984946299+982623412+982824002+985049115+988061726+991275464+994198102
538+996167687+997197129+997981668+998954760+1000191584+1001903354+1004210640
528+1006756441+1008987068+1010485741+1010956720+1010138088+1007755825
520+1004014085+1000648105+1000440253+1004204924+1009397325+1012877216
511+1013851855+1013592897+1013264476+1013042637+1012927111+1012952126
503+1012485720+1010838773+1008882637+1008305547+1009163853+1009609279
494+1008038856+1004580550+1000044991+994589733+988402990+983019010+980917425
484+983492074+989826014+997942599+1006172760+1012793833+1016254425+1016776846
475+1016251466+1016096670+1016381651+1016937829+1017966061+1019489480
466+1021198628+1022574378+1022811145+1021305613+1018704336+1016946772
458+1017270352+1017572884+1013695108+1003372036+987731153+970721311+956784195
448+948521690+945638524+945303379+944881825+943920904+942482011+939059681
438+931100111+917114445+898363918+876534746+849392671+812753822+767864235
428+723905040+694022761+690567952+716500639+761071891+811684100+860981952
418+899719428+921848375+932268951+937630740+941685503+945481576+947973380
408+948556590+949263529+952995250+960001498+967348540+971132644+969274416
398+965829693+969599205+980720332+991440750+998532533+1003491395+1005229189
388+999315324+986089451+975760596+979011992+992034988+1002065682+1002124924
378+992441413+977825601+968684011+972557483
##END=
