##TITLE=X9409
##JCAMP-DX=4.24
##DATA TYPE=INFRARED SPECTRUM
##DATE=5/11/2018
##SAMPLING PROCEDURE=ATR platinum Diamond 1 Refl
##ORIGIN=ComPlat
##XUNITS=1/CM
##YUNITS=TRANSMITTANCE
##RESOLUTION=4
##FIRSTX=3997.453
##LASTX=373.96442
##DELTAX=-1.4165319
##MAXY=0.92569464
##MINY=0.53077424
##XFACTOR=1
##YFACTOR=8.6212032e-010
##NPOINTS=2559
##FIRSTY=0.79820418
##XYDATA=(X++(Y..Y))
3997+925861698+925635619+925442380+925336393+925330516+925439615+925679867
3988+926010343+926344069+926635275+926868475+926939340+926670950+926007094
3978+925149861+924466369+924207520+924292904+924453717+924569937+924765388
3968+925182908+925689823+925862113+925447151+924796638+924449362+924396126
3958+924338051+924339364+924436502+923993194+922308734+919760196+917834723
3948+917748163+919024298+920034187+919947419+919580370+920087422+921327952
3938+922340398+922521953+921713738+919937325+917817300+916795866+917673494
3928+919356365+920099521+919450322+918655935+918852631+919487449+919388444
3918+918580852+918467259+920015519+922500175+924601879+925672884+925617159
3908+924171084+920809768+915545588+909854968+906061959+905215235+906899972
3898+910407928+914555058+917609266+918260262+916779757+915562319+916589215
3888+918392868+918255215+915621086+912768205+911346674+910792746+911277467
3878+913588450+916238136+916658490+914096747+910151083+906701548+904992682
3869+905832631+907842106+908387806+907146101+907091828+910248981+914513437
3859+917028236+916938634+914155514+907875015+900561882+899740877+905506096
3849+912482807+917399918+919221340+918035082+914440912+909465034+904537966
3839+901453753+901701403+904708805+908369277+911447061+913902748+915861199
3829+916950250+916708407+915385051+913468911+910354761+905501878+901748416
3819+902451404+905851644+909154331+912411250+916423009+920225282+922210213
3809+921414305+918162572+914607049+912478105+910554084+907383034+904965166
3799+906029949+909575100+913715524+917839009+921566130+924229229+925550373
3789+925832798+925346072+924172260+922878840+922241878+921911333+920872476
3779+919545455+919832513+922158844+924752114+925854369+924768430+921854847
3769+918683037+917052434+917289852+918646532+920132500+920425227+918439051
3759+914798214+912096537+911713931+911876749+909995317+904810713+898141317
3750+894692197+895543968+897460730+898315889+898829371+900904457+904004019
3740+905864434+904418359+899077021+893020596+892120775+897781112+905747799
3730+911962687+914771043+914239032+911986332+910510873+911099646+913308651
3720+916302157+919324907+921357197+921204404+917921490+911713032+905946707
3710+905755681+911201347+918051122+923096760+925006470+923962981+922093025
3700+921925022+923369438+924673989+924866052+923711736+920727564+915571238
3690+909812172+907345700+909913251+914976864+919950323+923503287+924695352
3680+923118193+918933729+912226653+904740055+901756159+904362842+907319428
3670+907849503+909043020+914203771+921282529+926903043+929631822+929931947
3660+928960499+927185123+924479091+921589568+919772018+918103874+913719188
3650+905012110+896411364+896263065+903792598+912434341+918847100+922708693
3640+924806248+925895437+926196668+925600082+924146264+922143703+919502106
3631+915406553+910552217+909398247+913670032+919289302+922719202+922513587
3621+918652893+913281688+910184131+910389607+911592111+912217458+912636291
3611+913236472+913677913+914568885+917238345+921016212+923509786+923435464
3601+921810392+920517041+920086731+919891142+919850074+920608164+922051197
3591+922624483+920557487+916162776+913288878+914971610+919270012+923063159
3581+925082383+925575608+925342754+925114670+925367366+926218654+927070148
3571+926430214+922595999+915509083+909127990+908728169+913629103+919167482
3561+922719202+924664379+926281154+927578238+927524518+925933324+924195904
3551+923717336+924026518+923572079+922054170+921084382+922174262+924780875
3541+927275140+928609559+928686094+928117854+927721974+927745758+927704068
3531+927089991+925947912+924757299+923920047+923444175+923252042+923600356
3521+924806594+926665903+928604650+930266433+931511042+931955664+931110254
3512+929184020+927388249+926927725+927598426+927955866+927025555+925541108
3502+925182148+926411408+927985180+928722529+928837020+929338680+930507446
3492+931520514+931558194+930735115+929800241+929194667+928711882+928089370
3482+927679248+928186162+929589510+930874910+931175243+930636110+929858247
3472+929078033+928394403+928133065+928417426+928893920+929250599+929577204
3462+930020858+930504335+930934368+931341518+931677594+931795681+931742791
3452+931647519+931216863+929948471+928063374+926625596+926411477+927267881
3442+928686578+930244171+931529018+932190454+932100783+931423584+930606105
3432+930160377+930257653+930645997+931032543+931323819+931408166+931041116
3422+930273140+929730412+929938100+930554943+930871177+930775145+930714581
3412+931027220+931670611+932383486+932932574+933258833+933321747+932931191
3403+932085297+931236706+930817665+930809023+931027704+931390605+931758830
3393+931963062+932050037+932153950+932183748+931957323+931606175+931538075
3383+931915772+932384868+932460090+932059439+931544643+931348985+931636250
3373+932233319+932770239+932890884+932484149+931848571+931495832+931625672
3363+931930014+932023280+931893233+931870418+932286763+933110879+933875606
3353+934133557+933952418+933736502+933704837+933770379+933752887+933477099
3343+932769686+931563932+930015050+928399589+926883270+925465818+924154768
3333+922983099+921743122+919905384+917081196+913554711+910030577+906538246
3323+901694143+893458788+880924547+865641339+851449601+842716596+841922485
3313+848430998+859421128+871813914+883388323+892850795+899706239+904222770
3303+907232315+909634904+911871011+913847715+915333613+916222027+916528512
3293+916512680+916735163+917581058+918793933+919797391+920362243+920684215
3284+920932971+921063710+921090950+921243052+921667278+922192998+922573529
3274+922807006+923045184+923301337+923414653+923293801+923113699+923147645
3264+923406564+923634648+923710976+923810533+924061916+924283985+924227708
3254+923971485+923886999+924170047+924574431+924714987+924486765+924084524
3244+923797121+923856786+924280874+924797399+925069385+925010895+924792697
3234+924607755+924514074+924451989+924350979+924249693+924289862+924530875
3224+924791868+924787374+924480888+924182838+924182354+924411129+924619785
3214+924747205+924956898+925384167+925995478+926663552+927231791+927475085
3204+927189617+926472526+925745132+925333213+925182977+925097247+925006332
3194+924910784+924797675+924703994+924670808+924617849+924443623+924253219
3184+924300233+924659055+925089020+925282604+925199708+925140596+925441343
3174+926030393+926452752+926467824+926336740+926285164+926100913+925622068
3165+925142532+924913688+924675994+924090470+923309426+922766146+922599041
3155+922576226+922532462+922594893+922859758+923138865+923276794+923463326
3145+923866396+924150481+923798089+922871234+922089568+922065370+922658430
3135+923161127+923009716+922250105+921404349+920983234+921095098+921402828
3125+921456202+921118052+920628698+920246023+919953227+919582305+919114108
3115+918739799+918646463+918821242+919083964+919265034+919289163+919138375
3105+918848137+918558175+918420384+918421145+918417757+918357884+918304510
3095+918209101+917864590+917187390+916372677+915639753+914981911+914307063
3085+913683928+913300286+913278231+913614376+914180749+914786253+915337692
3075+915850206+916237099+916286463+915952737+915499127+915236337+915184691
3065+914987373+914127237+912303879+909667053+906707909+903960601+901770955
3055+900235278+899266042+898664548+898191096+897728775+897436324+897595548
3046+898221862+898956999+899422500+899480506+899046531+897947594+896264586
3036+894579088+893519076+893228561+893508290+894167169+895002623+895783667
3026+896476630+897206789+897901618+898275997+898237833+898022194+897853499
3016+897685910+897362762+896911089+896560424+896515209+896801575+897317477
3006+897923880+898497098+899011133+899587392+900377009+901341612+902190134
2996+902622104+902659161+902638973+902825575+903135724+903288310+903089333
2986+902545776+901845692+901290312+901143188+901447530+901971937+902365466
2976+902398790+902061262+901480786+900907430+900786993+901551167+903114845
2966+904749872+905696500+905858903+905751118+905849431+906175344+906471252
2956+906553180+906390845+906020269+905529602+905020337+904482034+903847838
2946+903254433+903050063+903412412+904144506+904945461+905653635+906146791
2936+906309332+906202723+905980170+905621970+905113189+904811681+905153772
2927+906012457+906782577+907099502+907098603+907024350+906978719+907052904
2917+907370106+907926315+908569499+909158963+909627507+909928254+910081324
2907+910272557+910750987+911561898+912454529+913082434+913257559+913031895
2897+912637812+912371910+912428672+912765924+913168233+913448862+913541367
2887+913456328+913256314+913044478+912894796+912839901+912920929+913110296
2877+913222091+913105111+912892998+912829530+912877235+912781549+912523805
2867+912378133+912455843+912534798+912448722+912326625+912332502+912409936
2857+912393343+912237438+912080497+912110502+912352621+912657586+912921137
2847+913196372+913574484+914067433+914557685+914816189+914744909+914620254
2837+914851104+915506041+916294206+916915681+917245811+917324213+917311353
2827+917330574+917313912+917139547+916862929+916648051+916540266+916442298
2817+916255697+915987859+915760881+915698658+915785909+915906208+916007079
2808+916108158+916177986+916157936+916065915+915957231+915847994+915761711
2798+915758461+915842256+915927018+915949488+915969606+916136504+916551051
2788+917111408+917510331+917506044+917230670+917087072+917288262+917652684
2778+917941955+918184557+918495053+918761369+918784600+918651234+918676192
2768+918943408+919177092+919189813+919201566+919501138+920010472+920439400
2758+920675227+920783151+920813986+920816267+920827191+920720443+920316128
2748+919734269+919356710+919362172+919569377+919770359+919932209+920047253
2738+920090326+920157389+920388930+920752177+921088184+921318826+921446730
2728+921452261+921326777+921133677+920995402+921075601+921495748+922162301
2718+922777139+923098281+923093303+922833900+922430415+922114665+922168178
2708+922634301+923220308+923599042+923721761+923749623+923796637+923855265
2698+923885340+923886584+923936156+924134441+924417697+924528109+924330791
2689+924062608+924063645+924330307+924512000+924366397+924065926+923955929
2679+924080722+924161198+924056939+923967613+924071043+924245683+924326367
2669+924388728+924574362+924804105+924862664+924687678+924441757+924331552
2659+924446112+924741121+925087153+925337568+925444869+925519261+925701438
2649+925976120+926197982+926291109+926321668+926364464+926412998+926457523
2639+926535371+926663137+926849877+927170397+927622693+927930423+927798648
2629+927393019+927231031+927533644+927984696+928178626+928045537+927796435
2619+927675791+927825888+928248247+928814412+929356587+929788280+930135418
2609+930453795+930754750+931039111+931363020+931822437+932464584+933183819
2599+933688797+933690042+933231247+932734219+932604517+932862469+933204629
2589+933336819+933195088+932895862+932566423+932308886+932264569+932497355
2580+932843041+933096222+933259524+933410105+933519411+933595462+933742932
2570+933963272+934179603+934462512+934924073+935449032+935763261+935706707
2560+935373811+935044164+934895104+934771072+934480073+934251782+934498809
2550+935150013+935665363+935764229+935717423+935835509+936030615+936063386
2540+935955117+935918267+936015335+936101895+936105145+936212446+936667438
2530+937382110+937881627+937730908+936976620+936151398+935857564+936229246
2520+936797900+937065531+937096297+937216734+937385014+937350307+937157691
2510+936993351+936842425+936716871+936869941+937432650+938130798+938583785
2500+938723235+938826941+939155135+939564428+939653961+939383288+939216668
2490+939494807+940035184+940467637+940558276+940199800+939510363+938927466
2480+938826526+939092566+939324383+939335653+939213487+939011053+938680854
2470+938337587+938346644+938972337+939996329+940796869+940844989+940186525
2461+939455675+939302260+939761538+940303851+940446689+940168480+939817194
2451+939784976+940163157+940632599+940821966+940729944+940627483+940685212
2441+940934660+941444754+942219645+942950702+943181621+942850661+942416963
2431+942286846+942354877+942287192+941979946+941555374+941199455+941151751
2421+941570100+942291893+942916963+943172702+943077431+942797771+942461349
2411+942095198+941685974+941315329+941194754+941472064+942023157+942552541
2401+942894770+943099002+943252417+943379837+943494398+943591052+943618361
2391+943580750+943601906+943789337+944084415+944313675+944360480+944288370
2381+944331581+944717436+945440197+946288926+947232650+948643603+950788725
2371+953176174+954914146+955736119+956126952+956529331+957052147+957783758
2361+958718010+959448860+959368177+958169544+956074754+953582286+951113809
2351+949044738+947817759+947745372+948799992+950569076+952404533+953844455
2342+954826964+955370383+955344664+954691455+953716067+952949957+952640982
2332+952506510+952096733+951299373+950364914+949563820+948971660+948551858
2322+948337740+948435984+948833316+949311124+949569835+949339539+948474010
2312+947144638+945894083+945285675+945490322+946251661+947102879+947602673
2302+947582415+947262656+947013692+947013139+947208037+947468754+947644017
2292+947595413+947343961+947141804+947250557+947582001+947725668+947536232
2282+947467233+947983343+948900448+949710806+950238047+950590785+950783402
2272+950675548+950079654+948980371+947850115+947421602+947882195+948664829
2262+949181561+949338018+949304348+949231547+949271854+949594587+950349566
2252+951621000+953169606+954236186+954076410+952832423+951464266+950683153
2242+950380401+950218689+950359383+951318663+953209913+955354827+956854899
2232+957498705+957693119+957562173+956882623+956013705+955853791+956571574
2223+957436343+958135528+958997532+959676045+959124329+957249327+955214271
2213+953890431+953278359+953360770+954170713+955129232+955533893+955655090
2203+956381931+957886288+959385254+960121358+959980180+959263779+958549868
2193+958704113+960160974+962003482+962629312+961626615+960218289+959689112
2183+960173626+961119355+962064668+962713176+962866592+962535217+961919342
2173+961336169+961161459+961539502+962156483+962612374+963016827+963914090
2163+965574145+967447005+968356022+967691958+966556102+966619432+967957514
2153+969195694+969296081+968451431+967445760+966525059+965081681+962724722
2143+960472645+960017445+961624886+963651507+964487100+964140031+963465182
2133+962714974+961644521+960464901+959755760+959558028+959310309+958857874
2123+958828768+959635461+960720432+961307131+961368180+961302430+961148530
2113+960754932+960380761+960407033+960593980+960326488+959643274+959345984
2104+959910213+960914777+961759497+962282313+962495394+962431580+962442020
2094+962947551+963777544+964393419+964741110+965257289+965988762+966293242
2084+965647431+964397498+963435453+963328290+963985786+964995466+966010125
2074+966845303+967360929+967375586+966820898+965876759+964764133+963738205
2064+963431443+964360648+965756046+965985097+964707994+963617837+964395078
2054+966660638+968480400+968489111+967173636+966262199+966938569+968947214
2044+971533363+974284888+976671438+977740438+976998872+975185401+973633477
2034+973091994+973421917+974049683+974375458+974246932+974190516+974445840
2024+974084805+972356926+970327402+969629668+970272299+970905044+970717405
2014+970254877+970603536+972148547+974097734+975328446+975471768+974719762
2004+973329480+971994647+971765111+972923091+974521683+975415006+975359973
1994+974927450+974672057+974556874+974303002+974377463+976026663+979687205
1985+983739202+985804955+985253585+983385980+981306193+979068565+977087990
1975+976454001+977148761+977572573+976413279+974169982+972593237+972875318
1965+974607414+976570981+977890189+978227579+977630095+976510832+975526801
1955+975278875+975815864+976272930+975488361+973233379+970303688+967307209
1945+964293308+961823656+961180887+962686904+965030934+966835486+967822766
1935+968610654+969805139+971196595+971956760+971611350+970284813+968012340
1925+964846752+961883598+960772631+961565083+962764822+963724654+965262267
1915+967607265+969505221+969780872+968684493+967605122+967576292+968358096
1905+969155318+969635960+969947907+970240773+970512620+970712082+970875868
1895+971232823+971827888+971994509+970971277+969246095+968430552+969291587
1885+971114599+972935052+974194871+974763802+975050791+975694943+976763667
1875+977582114+977418328+975897515+972914242+969191131+967128351+968885613
1866+973333283+977615023+980063934+980714239+980458501+980158583+980262566
1856+980774181+981395103+981691149+981160659+979476337+976787243+973500595
1846+970144810+968107611+968926473+971658502+973849393+974318212+973627047
1836+972922054+972349390+970791382+967509367+964018557+962996431+964432551
1826+966263237+967893770+970057144+972561296+974342065+975019333+975205935
1816+975399934+975170606+973917700+972115084+971222591+972042421+973867645
1806+975445772+975803212+974569457+972451783+970982547+970911335+971461944
1796+971465816+970206550+967988211+967043589+969484480+973723217+976742995
1786+977392539+976436440+975046643+973789865+973112528+973299751+973490847
1776+972088397+968188018+962630142+958493452+958404265+961205638+964485095
1766+966874272+967400545+965537364+962402750+960342597+959878410+959673279
1756+959221053+958538391+956504926+951661791+944643390+939212934+938206157
1747+940128934+942276476+943410120+943528897+943252072+943539199+944481125
1737+944688675+943221513+942139100+944774682+950309397+956515296+962283764
1727+966484199+968537092+969167278+969150271+967718161+963247261+956244209
1717+952498352+957185375+966607540+975281364+980896070+982934790+981691564
1707+978552524+976124147+975769127+975672888+973531085+970199498+969322008
1697+972659886+980071470+989083859+995535472+997779253+997010101+995133854
1687+992320658+987523776+983424559+986327149+994675612+1002826827+1008415469
1677+1011066054+1011719954+1012201149+1012782456+1012370605+1012392383
1669+1016644118+1024221977+1030092423+1032113720+1032277091+1034264788
1660+1038526133+1041962048+1041907153+1037217848+1028799556+1024226955
1652+1029713620+1035790371+1037005942+1036892281+1042231475+1052571507
1643+1061525959+1066518776+1067549198+1064731163+1059070203+1055283901
1635+1059254246+1067481305+1073001847+1073741823+1070655743+1065583694
1626+1058576701+1046992752+1029983946+1012652478+1000458184+994399063+996451956
1616+1010194233+1030465695+1046874665+1055022838+1053328560+1039473590
1608+1011751757+971760963+925855337+884098708+855478091+841467492+836011663
1598+833068420+831404079+832143156+834369653+834434849+829069175+818782241
1588+808798819+806012034+813901011+830333281+849767767+866911736+879207869
1578+887649114+896364697+907894443+917612170+919731642+911485018+894836970
1568+878982688+870694167+868675773+869538399+870081611+867582229+863439801
1558+867970850+882722738+897861173+910707569+921334935+930197434+938316016
1548+945335592+949268812+948966682+945366981+940647740+938389233+944687984
1538+957555536+967149576+969830789+966986205+962229976+957273387+949143742
1528+934554603+914271526+893841670+877996307+867913189+865379585+870699214
1519+880452685+893564776+910373152+927900556+942219092+951452512+955409031
1509+957371769+968377039+993242881+1013943339+1020346073+1012113138+988037812
1499+947821146+898378320+855427552+828334522+811693320+797391170+784299475
1489+778989041+784633961+794751993+802543348+805691998+805021020+802634264
1479+800061666+797560418+795250542+794820231+800197037+813322402+829048641
1469+841559514+849685148+855211912+860983837+867625509+872401719+872934906
1459+869353180+866196926+870587696+879801619+886292088+887200552+882345940
1449+873758538+866544410+865726170+871240282+879390875+886992863+892292097
1439+894567612+894464113+894647258+897248755+900613597+902453339+902638696
1429+902431907+902044807+900082553+896060078+891527024+887561517+882927177
1419+877107824+873409602+874077676+876413133+877703372+877852087+878208835
1409+879545742+881287932+882925587+885266851+889023840+892943370+895315746
1400+896167033+897045007+899330755+903590302+909627852+915790956+919872820
1390+921001417+920315437+920261233+921934079+923822840+924269121+923317101
1380+922114527+921303823+920626900+920302232+921693965+925382093+929813515
1370+933321678+935544856+936339105+934629272+928938652+918530935+903718137
1360+885775079+868248574+857716134+860179080+875215606+895863935+915277681
1350+930990784+943457963+953605447+961935520+968302025+972095242+973178139
1340+972706623+972291799+972111835+971447149+970963188+972681871+977859423
1330+985689219+994073219+1001095422+1005677910+1007419201+1006418093+1003557331
1320+1000830143+1000777114+1005022765+1013667482+1026160379+1041245647
1312+1055301254+1062269876+1056763231+1037490318+1007845847+973244234+938183549
1302+905931635+879673992+862563140+856431079+860637736+872310873+887895036
1292+904558708+920387340+933677874+942228840+943477183+935796170+919964151
1282+899239494+877482479+856599912+835717346+813019165+788601541+765997526
1272+751138890+749032346+760452025+781668179+807010100+831211324+850252074
1262+861706806+865033484+861282510+852373689+840755586+829360796+820992144
1252+817290673+818330844+823053887+829936710+837572437+845032625+851791484
1242+857383030+861337751+863524563+864374398+864599164+864688696+864662908
1232+864153090+862657443+859889256+856085531+852090780+849145532+848294245
1222+849615389+852127008+854813060+857635865+861097223+864825588+867105666
1213+866041920+861086714+853528420+845842153+840661214+839846984+843818713
1203+851473868+860912073+870531072+879641636+888229867+896402860+904182601
1193+911582916+918564052+924929174+930473430+935270796+939674149+943988315
1183+948121271+951363533+952416908+950134894+944890971+939138266+935950416
1173+936737958+940591600+945616428+950271095+953449335+954016330+950801862
1163+943372371+933183749+923704892+918222928+916883739+916587002+914103592
1153+908132690+898087943+883296508+865235503+848756842+838670060+835719074
1143+837285103+840906029+845670555+851291622+857448503+863809754+870003831
1133+875740496+881065656+886240304+891423594+896593956+901593410+906158337
1123+910014537+913021939+915296348+917198452+919074838+920904072+921898542
1113+920127245+913281619+901215506+887549833+877308184+872901443+873348554
1103+876747826+881974327+888258836+894649125+900348524+905077859+908977824
1094+912333539+915343569+918009847+920243949+922060669+923556800+924711254
1084+925379949+925435536+924490084+921325947+914214280+902718757+889458782
1074+879411685+876621236+881439758+891050875+902064028+912178533+920291792
1064+926258131+930603270+933969909+936757731+939195166+941428922+943463632
1054+945194207+946575500+947750212+948976085+950421814+952068733+953759554
1044+955322748+956773939+958372669+960455775+963275193+966018491+964860925
1034+954127986+933151532+910836233+898704717+899451745+906281124+912569159
1024+917549601+923018981+929169778+934776603+938970332+941802194+943885023
1014+945826329+947834836+949793494+951554075+953069633+954368999+955529053
1004+956687102+957997046+959398182+960319644+959620528+956041222+949336013
994+941362135+935459126+933999984+936677325+941314984+945769152+948946701
984+950807323+951858832+952394439+952044258+950130262+946500970+942124166
975+938719985+937425528+938020316+939907902+943215222+948041625+953314656
965+957522903+960128410+961364723+961226379+959612853+957225060+955554219
955+955672790+957105867+958139331+956869625+950907918+936936659+914130279
945+889314769+874971068+878897926+897342713+919732679+937931129+949800546
935+956842592+961155513+963980255+965451980+965003694+961809690+955204730
925+945350111+933373186+920512755+907933505+897989561+894296663+898920287
915+909888707+922606439+933492793+941656937+947801235+952715789+956801663
905+960193952+962935798+965103528+966794695+968079680+969106922+970152484
895+971395365+972737181+973955795+974912516+975524450+975669708+975201234
885+973938510+971432630+966777065+959348127+950436540+943276615+939605634
875+936390682+928394127+914753689+901027729+893765619+894545211+899955064
866+905954313+911371771+917787571+926670051+937023910+946140350+952194701
856+955432330+957250018+959000436+961493802+964865350+968724454+972567242
846+976031987+978869381+980985603+982629964+984333645+986400088+988459273
836+989790304+990102251+989700840+988980360+988191020+987593052+987352247
826+987326044+987256354+987084893+986976762+987192056+987913918+989079434
816+990486308+992053650+993759267+995424369+996861594+998128120+999403910
806+1000756926+1002177974+1003672238+1005146659+1006329598+1006996081
798+1007228728+1007310241+1007474234+1007946027+1009004657+1010674460
789+1012527616+1014110375+1015400200+1016537854+1017226046+1016535157
781+1013038402+1005172862+992451950+977191488+964356500+958213930+958391474
771+958720015+949530635+922907877+879429108+831251839+796112130+785342825
761+797094709+820982120+847388063+871540131+891499576+905639116+912191047
751+908931778+892291198+858269508+806269640+742898764+681438497+636149645
741+615661437+620142639+642899655+674141473+704656037+728500720+744089584
731+753153135+758686467+763588714+770058027+778971549+789574925+800156246
721+809181909+815838929+819746222+820543789+818081120+812853789+805747791
711+797259394+787497834+777106502+767659931+760922643+757931765+758795566
701+763029186+769747739+777648538+784783850+787440934+779401030+755459001
691+718720908+683378420+666563268+675550837+703684589+738280879+770045444
681+795705880+815737021+831628706+844590699+855485696+864885254+873009090
671+880098841+886520241+891768866+894655139+896335797+898906114+902431769
662+905132063+904202720+896792103+881409614+860084223+839097536+826016350
652+824978461+834418671+849093541+863968908+876410229+885475992+890420966
642+890656240+886438728+878826162+869420935+860558159+854892567+853902591
632+857124526+863079319+870448315+878540002+887170546+896091535+904630126
622+912097643+918032040+921620196+921824012+919224105+916903651+917981224
612+922811569+929412381+935776190+940968675+944808905+947639938+950147685
602+952735908+955253126+957497806+959620044+961875855+964246295+966439329
592+968249896+969821386+971399237+972996584+974479233+975695842+976512007
582+977128850+978296647+980734704+984318711+987949455+990199389+990497163
572+989725522+989181343+988855499+986640064+979432227+966133328+950458802
562+939856602+939752412+948802273+960942501+971215332+978271343+982577351
552+984537669+984667370+984279441+984892758+986768244+988641726+989412330
543+989593124+990529104+992709970+995388694+997510171+998495031+998268330
533+996909023+994521367+991634264+989401545+988861859+989924568+991358544
523+991770741+990277445+986749992+981721362+975281433+965889066+950353368
513+924490637+885516852+836872560+790721497+762644921+761184950+783491882
503+820559414+862049174+898646780+925415140+942295834+951798890+957303254
493+961514267+965051260+966620192+964597167+958230661+947227119+930261248
483+905525800+874906355+846110890+828361209+825754804+835411068+852517218
473+874121578+896627211+915180405+928159198+937313457+943875068+947655424
463+948771023+947822598+945031250+941003106+937443642+934635840+930150214
453+922764832+914573172+907885455+902042664+895237828+887644897+880928972
443+876142115+873461455+872571935+872364454+871214494+868112097+863641681
433+859233282+855623348+852912614+851001660+849279727+847009259+844430854
424+842357427+840415915+837604655+835831699+839957880+849420007+858843901
414+864771799+866525051+865737716+864382902+862962270+861548689+860385800
404+858239226+852463291+841583367+827185392+814920302+811470352+816364027
394+824801815+835017124+846853217+857881510+863652951+862000778+856286720
384+853837740+859269925+871561563+887834610+905097356+919195551+925000386
374+925229092
##END=
