##TITLE=LIS-P298
##JCAMP-DX=5.0
##DATA TYPE=LINK
##BLOCKS=1


$$ === CHEMSPECTRA SPECTRUM ORIG ===
##TITLE=LIS-P298
##JCAMP-DX=5.00
##DATA TYPE=INFRARED SPECTRUM
##DATA CLASS=XYDATA
##$CSCATEGORY=SPECTRUM
##ORIGIN=Angelika Moesle
##OWNER=
##XUNITS=1/CM
##YUNITS=TRANSMITTANCE
##XFACTOR=1.0
##YFACTOR=8.7641433e-10
##FIRSTX=3997.453
##LASTX=373.96442
##MAXX=3997.453
##MAXY=0.9410427195211093
##MINX=373.96442
##MINY=0.31052920167614567
##NPOINTS=2559
##XYDATA= (X++(Y..Y))
2559I80838513I80687871I80502885I80581368I80889452I81232085I81403945I81354366
2551I81177065I80859800I80335377I79823945I79682756I79851216I79911133I79706492
2543I79523546I79606994I79801229I79785247I79474647I79104130I78997695I79315776
2535I79938201I80529681I80841981I80970111I81135783I81333623I81417411I81339880
2527I81101710I80722624I80450042I80635232I81225488I81814043I82114782I82044120
2519I81651500I81209914I81043086I81113952I81072398I80849462I80939983I81708016
2511I82601391I82722584I81824109I80445145I79408678I79106035I79309383I79679152
2503I80172426I80960114I82000390I82921376I83419071I83467766I83144516I82480130
2495I81520786I80409508I79367260I78631803I78387852I78708790I79475463I80386861
2487I81202840I81865799I82354992I82591326I82646822I82695245I82581328I81904224
2479I80815729I80093807I80042256I80283418I80424878I80446913I80419777I80392165
2471I80571371I81183186I82013856I82461631I82308950I81848592I81393540I81169040
2463I81288873I81659321I82130220I82687491I83395812I84043536I83956212I83187499
2455I82674026I82669197I83001832I83526255I84148883I84784433I85248735I85135702
2447I84074957I82541611I81770109I82211288I83199400I83827674I83688798I83027744
2439I82315547I82005967I82411440I83356571I84058566I83874600I83412883I83350382
2431I83327734I82923757I82440072I82241892I82317179I82556165I82874518I83198856
2423I83520270I83782583I83754903I83365412I82966603I82795151I82791750I82889480
2415I83104255I83421860I83722599I83855693I83818628I83737833I83610314I83291485
2407I82828952I82549976I82752237I83331271I83841071I84001438I83906496I83819240
2399I83935401I84275653I84660044I84776612I84478594I84078221I84084750I84674122
2391I85569605I86269220I86488415I86351376I86137418I86077501I86203591I86252150
2383I86037035I85561444I84757162I83913298I83817540I84535042I85456029I86009492
2375I85863543I85152774I84486007I84271437I84404055I84714928I85119381I85442563
2367I85383871I84843942I84213016I84031294I84446492I85157534I85823689I86348044
2359I86719444I86690676I85967802I85091905I84985470I85618640I86451486I87139608
2351I87414775I86938912I85823009I84788922I84407592I84679291I85187391I85468475
2343I85313277I84841630I84437856I84436224I84817078I85353674I85744390I85700592
2335I85210786I84713499I84799940I85632378I86562954I86989579I86962511I86541735
2327I86004119I85885170I86131841I86402111I86688296I87145049I87685182I88051074
2319I88053658I87694838I87331259I87301947I87372201I87037186I86590430I86989443
2311I87844528I88312299I88330457I88107386I87769922I87462518I87375942I87616288
2303I88153564I88845563I89465198I89609447I88736407I87339965I87020727I87900228
2295I88826928I88856308I88019313I87403962I87955384I89199145I90142371I90345992
2287I89993090I89547762I89238318I88886640I88229259I87403282I86878927I86951765
2279I87406206I87763529I87911382I88103169I88454167I88849099I89176090I89355907
2271I89249200I88784422I88315563I88359225I88786938I89056121I88906159I88634937
2263I88716752I89139296I89395897I89202205I88883988I88830872I88902351I88740896
2255I88514560I88644662I88873651I88860797I88782790I88791087I88664521I88268161
2247I87827050I87565893I87477412I87454017I87374717I87099142I86569687I85970794
2239I85721267I86153400I87203197I88434308I89292046I89423441I88981378I88626163
2231I88933499I89794773I90513636I90487656I89795998I89028441I88558086I88242385
2223I87889823I87678517I87813652I88077665I88086303I87828818I87657774I87895468
2215I88570804I89350942I89804091I89878017I89871896I89895700I89709489I89219344
2207I88693561I88405472I88430568I88741236I89199213I89489002I89343189I88933227
2199I88817611I89292861I89962349I90182769I89802935I89264570I88967844I88811286
2191I88478174I87877309I87102883I86114907I84787426I83276999I82035551I81384086
2183I81282208I81508816I81872124I82290655I82797735I83465386I84371139I85582323
2175I86936531I87937906I88213345I87952732I87644784I87614248I87927364I88395135
2167I88577673I88163630I87363428I86628924I86140138I85851981I85774042I85868576
2159I85856198I85510301I85047427I84841358I84875362I84946432I85194192I85830966
2151I86574108I86975433I87035961I87006513I86966456I86924562I87024672I87439327
2143I88159141I88869774I89065166I88470557I87369413I86430267I86241132I86912592
2135I87938382I88554549I88411797I87856974I87545694I87802158I88323248I88567607
2127I88393230I88088274I87800526I87366148I86753653I86261195I86193593I86566627
2119I87135936I87631998I87969122I88168798I88153768I87874317I87615812I87820453
2111I88516260I89186835I89330744I88990831I88595559I88393230I88304886I88280402
2103I88410301I88656360I88876847I89103523I89418748I89693031I89790829I89797562
2095I89776003I89643384I89472612I89536949I89926032I90438757I90866470I91132388
2087I91211143I91101987I90831513I90454875I90155497I90212081I90613270I90885853
2079I90667337I90280294I90285667I90613542I90640338I90034508I89081488I88240277
2071I87752715I87648729I87855546I88237420I88615962I88794079I88620315I88106706
2063I87458914I86931499I86654359I86608249I86718560I86929322I87255225I87768766
2055I88413769I88894121I88978385I88773336I88465797I88075625I87708713I87680965
2047I88136494I88849711I89474108I89767026I89728056I89681061I89970034I90571308
2039I91259634I91912118I92365743I92342620I91825746I91202914I90877487I90961887
2031I91317238I91677621I91841864I91871313I91983937I92241965I92491153I92545832
2023I92368598I92212857I92540051I93520071I94710716I95550023I96016026I96424356
2015I96761139I96683744I96130690I95545195I95397614I95655982I95872797I95824442
2007I95823626I96205500I96776850I97058274I96904980I96649876I96737472I97268628
1999I97817534I97838277I97359284I96979927I97063510I97336976I97410155I97254346
1991I97024269I96775898I96496446I96209921I96009769I96041257I96403885I97033790
1983I97685323I98058084I98066177I98005172I98211174I98578834I98753415I98658065
1975I98425064I98025098I97396758I96763248I96482028I96701359I97283454I97943147
1967I98456960I98773273I98886917I98745389I98446079I98347533I98742805I99485811
1959A000103066A000277579A000079059I99665764I99001650I98133506I97511422
1952I97633907I98440094I99290827I99499753I98883109I97961170I97550596I97974364
1944I98719478I98974582I98479676I97743471I97375539I97326980I97107173I96768553
1936I97093979I98406429I99765126A000005132I99255462I98721722I99101760
1929I99908287A000365788A000330967A000181958A000251191A000567572A000913538
1922A000980867A000554787I99669573I98649088I97926485I97645061I97509789
1915I97196265I96725978I96240729I95720252I95223577I95111361I95650542I96546705
1907I97198986I97359012I97263119I97162601I97072624I96999241I97054873I97266655
1899I97530057I97775096I98001227I98175196I98170980I97809916I97087790I96381305
1891I96115864I96142864I95796762I94689089I93103240I91489846I89917871I88156965
1883I86054106I83732664I81607702I80235199I79937045I80506694I81366472I81921635
1875I81757935I80821714I79570064I78671793I78438860I78782377I79603661I80836132
1867I82179119I83175461I83595829I83525167I83079159I82301605I81438834I80992147
1859I81224535I81865255I82560994I83357523I84486279I85973174I87660562I89364136
1851I90913260I92251555I93537345I94967861I96472030I97675529I98251435I98275103
1843I98144932I98174516I98355762I98474371I98340052I97916488I97264955I96346212
1835I94929095I92713068I89363864I84335502I76914559I66804922I54789043I42661627
1827I32188819I23874366I16885420I10560522I05929404I05212106I09638447I18175088
1819I28475424I38553640I47413803I54771428I60746145I65627675I69611409I72724960
1811I75006548I76677273I78110781I79578158I81033632I82300721I83398601I84479546
1803I85591300I86709786I87801614I88713148I89303676I89762741I90413457I91160680
1795I91556972I91497259I91469375I91957141I92814539I93421797I93368341I92796108
1787I92086155I91444212I90919789I90630408I90706783I91086413I91586080I92109142
1779I92589971I92852692I92761898I92404304I91942859I91434418I90882452I90311715
1771I89772602I89450849I89651749I90452019I91506237I92403760I93099295I93834956
1763I94740232I95647957I96312616I96710132I96992372I97197081I97225509I97097379
1755I96992304I97030254I97203610I97487619I97842017I98149625I98307407I98377729
1747I98564824I98977370I99379171I99294703I98513408I97391181I96440406I95751196
1739I95098031I94513624I94402700I95048587I96261744I97629011I98944930A000265473
1731A001609957A002811143A003730226A004456297A005124968A005659456A005888989
1724A005847978A005757730A005762287A005848931A005986378A006198977A006490670
1717A006790457A006993466A007072901A007150704A007382549A007721033A007912888
1710A007820055A007591066A007419342A007348339A007440901A007863309A008590877
1703A009287364A009724598A010096134A010643340A011145184A011113899A010491951
1696A009888977A009988475A010801531A011659745A011975854A011867786A011891318
1689A012300328A012835496A013181665A013312720A013325708A013232264A013064212
1682A012976548A013075162A013268445A013417386A013540348A013735944A013969421
1675A014106664A014155019A014285257A014550836A014746499A014674409A014430186
1668A014281041A014341094A014494592A014597762A014624286A014621430A014639248
1661A014722356A014864972A014955561A014895713A014793902A014886871A015235285
1654A015634093A015848936A015833158A015713053A015624300A015565199A015444414
1647A015279423A015221275A015329546A015485696A015579142A015605393A015551938
1640A015372460A015104502A014864972A014699777A014580283A014546483A014668900
1633A014838856A014817705A014594022A014492755A014794718A015407757A015989240
1626A016289027A016314054A016236523A016173138A016077720A015883689A015668846
1619A015559419A015515825A015357974A015014185A014633671A014420937A014433179
1612A014580012A014763842A014968687A015235761A015601313A016054869A016559569
1605A017086100A017583590A017960160A018176023A018314762A018492676A018768251
1598A019175833A019692570A020126540A020269292A020219373A020270992A020430135
1591A020409052A020181084A020128376A020490800A021036577A021434434A021688518
1584A022052574A022676086A023457721A024194810A024751197A025056492A025138648
1577A025261202A025766581A026616022A027355355A027683910A027732809A027692614
1570A027584072A027515722A027753076A028365435A029080828A029592397A029799418
1563A029733789A029457806A029076680A028746357A028604829A028651959A028675083
1556A028444326A028051978A027870596A028103938A028604149A029115649A029402718
1549A029227253A028598368A027964450A027767562A027900113A027899024A027500148
1542A026778429A026025222A025676469A026062627A027070191A028225743A029019008
1535A028999489A027985125A026528562A025711085A026077386A027142621A028189630
1528A029066070A029940538A030784674A031447361A031948115A032435133A032980775
1521A033512610A033890880A034110551A034419791A035040379A035808684A036408530
1514A036855693A037369166A037947860A038493366A039113818A039910347A040702388
1507A041239800A041455799A041434512A041368338A041466476A041693289A041792651
1500A041671730A041428323A040998978A040239514A039315467A038507512A037704590
1493A036586919A035234411A034125173A033598030A033631559A034057095A034725222
1486A035471833A036098406A036535300A036967909A037545583A037980505A037817894
1479A037109097A036328414A035649406A034814451A033638700A032180573A030574865
1472A029080828A028068164A027671464A027722471A028152700A029080352A030407357
1465A031768434A033004374A034295741A035743327A037157248A038352382A039372255
1458A040368596A041431996A042515117A043393326A043802064A043757178A043643330
1451A043854296A044382187A044867300A045034535A044965642A044922796A044996586
1444A045034739A044877025A044503448A043897890A042930180A041549516A039980941
1437A038540769A037365358A036510204A036131934A036279039A036649012A036845628
1430A036798837A036721442A036800129A037128276A037745192A038496834A039045400
1423A039256842A039418093A039908443A040850717A042174865A043747453A045296237
1416A046443492A047003551A047199079A047512876A048275672A049305134A050054601
1409A050304876A050501696A051152141A052219348A053341440A054144022A054199110
1402A053373404A052265799A051483960A050584328A048679241A045881664A043110610
1395A040860170A038990653A037392493A036430157A036454504A037090939A037640729
1388A037835644A037814153A037760834A037858564A038269818A038870139A039200122
1381A038837291A037680310A035939535A034152921A033120942A033398626A034748006
1374A036370104A037675754A038648292A039577712A040638323A041749805A042769134
1367A043720113A044793577A046150370A047744789A049365799A050836508A052090810
1360A053083955A053771329A054195641A054456390A054582140A054501753A054099884
1353A053266017A052045652A050848886A050289234A050556920A051154249A051574141
1346A052000833A052915495A054217200A055117988A054752777A052818854A049853292
1339A046760077A043847903A040729660A037300408A034104158A031505373A029331376
1332A027617260A026989803A027934185A030187142A033145630A036396424A039547108
1325A042098082A043967804A045650363A047510495A049455368A051365963A053161010
1318A054573367A055536588A056550612A058260919A060975593A064442044A067618981
1311A069295827A069569226A069872549A071062582A072461880A073109265A073024933
1304A072952503A073353488A073741822A072989500A070543736A067020836A063265138
1297A059486453A055887110A053329470A052615029A053465966A054625802A054904234
1290A054277729A053942441A054794943A055984840A055630849A052745403A047838165
1283A041849643A035001954A026926146A017965941A009660261A003143710I97715043
1276I92003863I85862319I80154540I75458064I71727734I68733677I66220651
1269I63450414I59088682I52560366I45322982I39505979I35565295I32251252
1262I27609524I19080500I05028139H86784819H66650422H45093330H21604900
1255G96619510G71329368G46548278G22676206G00145012F79079358F58767864
1248F38172701F17132755E96702108E78231363E62543234E49961208E40313595
1241E32594736E25375068E17998026E11010543E05410491E02053330E01753781
1234E05172491E12223359E21923543E33032854E44611261E55930178E66354835
1227E75586467E83587056E89999619E94070746E95491468E95174679E95019753
1220E96855062F01467341F08459415F16874047F25799159F34556559F42766890
1213F50338610F57256349F63551732F69541343F75740152F82416321F89461034
1206F96629184G03643089G10258049G16506369G22624995G28613722G34220914
1199G39455890G44749627G50499912G56669409G62827412G68517712G73710794
1192G78890750G84563028G90703077G96753625H02027434H06056735H08853360
1185H10985123H13157556H15619234H18301059H21561510H26034846H31603613
1178H37214139H41715834H44565031H46347429H48910985H53669825H59438065
1171H63748789H66310713H68914735H72316443H75466175H77595489H79326675
1164H81579495H84244862H86279983H87157172H87875558H89783229H92753279
1157H95396815H96772446H97366374H98468403I00752712I03617687I05925323
1150I07121545I07640935I08471197I10271345I12875367I15748843I18590015
1143I21143574I22949298I23808804I24094309I24430413I25399958I27348299
1136I30088817I33000719I35735387I38602335I41784235I44404919I45279115
1129I44565490I43801061I44147367I45154862I45412006I44300864I42750244
1122I42270776I43615667I46383456I49665807I52579477I54238165I54054539
1115I52446586I50798576I50407316I51612311I53946607I56697054I59105276
1108I60635766I61529617I62444279I63589834I64868279I66293490I67791335
1101I69166422I70476764I71804041I72876009I73505439I73890237I74118954
1094I74082841I74024760I74427242I75353125I76375651I77151573I77676267
1087I78020736I78283186I78787477I79849856I81237729I82319287I82764410
1080I82780529I82800796I83172196I83967365I84913176I85527915I85437190
1073I84638893I83485721I82414705I81645515I81110891I80658015I80215612
1066I79940717I80162769I80974736I82129064I83436618I84869037I86286291
1059I87510805I88550333I89489138I90276689I90709163I90651695I90262544
1052I89856050I89541165I89218256I89025584I89430378I90743508I92778493
1045I94974934I96795212I98058696I98950507I99818650A000876132A001850371
1038A002301955A002553727A003226614A004232817A004877889A004698819A003998116
1031A003491920A003747908A004824161A006133007A006998566A007220482A006955583
1024A006507400A006058537A005656464A005403196A005255207A004895911A004189155
1017A003319039A002404648A001419121A000417407I99595918I99273757I99711875
1010A000808463A002211502A003646506A004875305A005760722A006554803A007586714
1003A008683642A009238125A009067692A008713974A008679765A008995806A009313547
996A009418486A009479015A009539815A009395227A009015461A008473968A007633436
989A006092814A003396774I99743091I95725488I91275412I86197266I80534850
982I73545292I63996123I52358922I39609694I24042758I04124767H81764073
975H58201921H30199622G93198760G47855220G00327346F53492218F06151847
968E59771704E21246745E00501587E03809135E26520283E61187223F09582594
961F68978699G10210306G13044949F85625765F40373222E89466288E44318752
954E14254229E03997114E10388662E27665157E53071392E83240683F11317249
947F34896540F56187713F76616388F96173928G14879714G33552175G51896626
940G67351891G78664618G87293548G95267546H04585618H17704886H34552580
933H50220103H61712240H71100974H80496713H89484531H97081142I03508259
926I08501393I11016662I12640189I15528288I20163962I26206009I32957941
919I39227071I44180419I48444693I53199997I58314936I62504262I65730234
912I68941038I72724824I76871373I80885031I84609377I88046721I91359539
905I95294783A000459369A004740917A007093236A009109110A011982383A015354166
898A017852364A019478204A020799904A021857046A022568971A023079247A023397057
891A023116584A022173631A020824251A019031312A016594322A013535179A010226780
884A006961025A003890797A001513043A000286012A000137819A001061187A003260143
877A006210198A009083403A011708508A014011179A015751138A017046110A018386989
870A019931488A021353094A022197366A022131737A021139544A019462357A017254220
863A014553964A011466189A007941860A003672622I98373241I91671432I82839085
856I70877001I54406897I32261590I05074590H73555986H33187354G76984576
849G15666858F71138142F43255880F21050520E99113187E78472593E59043320
842E38646848E19119913E05209760E00256956E08999225E33657761E59336170
835E80705827F02165392F24007512F44944084F64443815F81436641F95197377
828G06827234G17674231G28030403G38960712G51447082G62054006G69609403
821G76835226G85871262G96210772H05385411H12965225H20505592H29005576
814H37813575H46063352H54437178H63464849H71631314H78154393H84162570
807H90237602H96021892I01490957I06927377I12483155I18831517I27306337
800I35982194I41577485I45344609I48969524I52976109I57332808I61808388
793I65816062I68840452I71188349I73638125I76827235I80634687I84203971
786I87070782I89412491I91590093I93788777I95800775I97279713I98148469
779I98596720I98858490I98954247I98580058I97524888I95714947I92581197
772I86855056I77746385I66837227I56269953I45766813I32820221I15479593
765H99358650H91553249H89737255H90347029H91967087H94329403H97902563
758I03375165I11271631I21962886I34882614I48081046I59543395I67727950
751I71009144I69741920I66503368I62577714I58214758I54135674I50396843
744I44399818I31673510I09369400H77222320H31357758G64748753F86827972
737F22295165E77430005E45021054E21869000E08720895E06052468E13026553
730E28372832E50408677E75239278E98306252F18560618F37250626F54101041
723F67293555F75464781F77608445F73914228F66483969F57724868F50252238
716F47656717F52070544F62101562F75260140F89712669G04116776G17826709
709G31314589G45864645G62270957G79616209G96730978H13933954H31489357
702H48183621H63063320H76817254H90112464I02094747I11822169I19592749
695I26012862I31161125I34721771I36554224I36935894I36308641I35070593
688I33366883I30746334I26184586I18251803I04761746H82966688H51820098
681H13600435G71706209G29015999F88924846F55560528F32306052F20398511
674F18733975F24797717F35859557F49644912F64558479F79635813F94074537
667G06800506G16608452G22352956G22934031G17614791G06342189F89629629
660F68608114F45169128F21457762E99253423E80045861E65311499E56345241
653E53780256E57210324E65313335E76514731E89607816F03899299F19003837
646F34517726F49832958F64303851F77517720F89365616F99986277G09649771
639G18583724G26950885G34973237G42916834G50949320G59119117G67400382
632G75638256G83449913G90178110G94829087G95915542G91334003G78679920
625G56214696G24144875F85623588F46643509F14135160E93095011E84731319
618E86778138E95483919F07638334F21238499F34843492F46699889F54474074
611F55675193F48429307F32247359F08538442E80533762E52220523E26614068
604E04591450D85173025D66831532D48662478D30649065D13236346C96947351
597C82362815C70188575C61153933C55799872C54317805C56515232C61902073
590C69818058C79524975C90273869D01364069D12119763D21751768D29277616
583D33758500D34903001D33679269D32312885D33347790D38207897D46247149
576D54971463D61273170D63102222D60819614D57182217D55606843D58087190
569D64564464D73803339D84412711D95306091E05864761E15913971E25461984
562E34453304E42694273E49745243E54621876E55647054E51327148E42459538
555E33441388E30147170E35495348E47410913E61305084E73764148E83741982
548E91608048E98215323F04519819F11241078F18609449F26422876F34277720
541F41797956F48763982F55059161F60539040F64999522F68192983F69755777
534F69052966F65017408F56175676F41235040F20404428E96728836E75916518
527E63889485E63616154E73911117E90926931F10553160F29916396F47630941
520F63288738F76831299F88313371F98025899G06479772G14098963G21039417
513G27364587G33219880G38696767G43706358G48182074G52285914G56254958
506G60186256G64089466G67961937G71696076G75112541G78213238G81227086
499G84309080G87360878G90254213G93054715G95878885G98687412H01371957
492H03887703H06171195H08107974H09709602H11190648H12832130H14895135
485H17586209H20885154H24438863H27834586H31023627H34346103H38115539
478H42302010H46670950H51103140H55694881H60612660H65892930H71357779
471H76783386H82198791H87881339H93990171I00391377I06880315I13293490
464I19310917I24347577I27590210I27794919I22969293I10388049H87055293
457H50741397H01748731G44308788F85634742F32636579E89170990E56129208
450E33371712E21095594E19618118E28289622E44868406E66107620E88972674
443F11361047F32074615F50599427F66932968F81308919F93946067G05090675
436G15150936G24566534G33556188G42089769G50055265G57414182G64266700
429G70791343G77086930G83095176G88681150G93753174G98357021H02717256
422H07091502H11507369H15660108H19020873H20921403H20469547H16407330
415H07377891G93117148G76007141G60957962G52293463G49676315G47500890
408G39686511G25858786G12330644G06518742G10805595G21745698G33577815
401G41150283G40216919G26938304F98940493F58158429F12816930E75128082
394E55055506E55265009E71416387E96327307F23740710F49724143F72509761
387F91833687G08123498G21825949G33205802G42537816G50254873G56808760
380G62488588G67495119G72100869G76565704G80945798G85139002G89102402
373G92919852G96674598H00327057H03714890H06679499H09183751H11218396
366H12584098H12930608H12043014H09831135H05915071G99447420G89547525
359G76009045G59985152G44506424G34044973G32438721G40389323G54995555
352G71816861G87232272G99232849H06804365H08718225H03147757G89937560
345G73874630G63475747G64359533G74642391G87858641G98885864H06154600
338H10371064H13160820H16182150H20150649H24608615H28785428H32374843
331H35424056H37931369H39896372H41573966H43323243H45242543H47175514
324H49005518H50752823H52436062H53968864H55236088H56246643H57125328
317H57977965H58883990H59921545H61045813H62135260H63271294H64724523
310H66538070H68305437H69511452H69941953H69191399H65786903H58363444
303H48584266H40847827H37056560H32407692H17578252G85879083G40581178
296F96819611F73533918F79870719G09342979G47363306G82293342H09513190
289H29164175H43100443H53310189H61278474H67744289H72867797H76803925
282H80081854H83264027H86467146H89516903H92346309H94936185H97072436
275H98495131H99272482H99779290I00138925H99739980H97303262H90988360
268H78012184H55207048H22282685G85299573G54789825G38407793G35754872
261G40919458G48576599G56546787G64322128G71554752G78050763G83992359
254G89623628G94970683H00127787H05625078H12073890H19430903H26952160
247H33809643H39457369H43639692H46570295H49128887H52517945H57467008
240H63706011H70302745H76513931H82173968H87317607H91696409H94918299
233H96936690H97946973H97640114H94731136H87038563H71747814H46111503
226H09150631G63928964G18605963F84059094F68191487F71310478F87245619
219G08458105G29676033G48461662G64371843G77936167G89778962G99933145
212H07829611H13297996H17290435H21186301H24818969H26691275H26635031
205H25165546H22537448H19038828H15373311H12815195H12876880H16318373
198H22443460H29580462H36268396H41949924H46729031H50825117H54450848
191H58014486H61863425H65713589H68960098H71630361H74311438H77217695
184H80096749H82856241H85541194H87873654H89324844H89420329H87477361
177H82038765H70835328H51259154H21236492G81515923G38539596G03204631
170F84503333F84458651F98593916G19887062G42381462G62568499G79243652
163G92766626H03915927H12940333H19558150H23581737H25108350H23897166
156H18566841H06600880G85926894G57165743G24452414F94706891F75484232
149F71035107F79969129F97112733G17081527G36741149G55123413G71742255
142G86053324G98171830H08739988H18094786H26084085H32383684H36699781
135H38528833H36183860H26657338H08905524G88033698G73634010G72077406
128G81521636G95258160H08100765H18558407H27021666H33849428H38967156
121H42322481H44230152H45150322H45004034H42606761H35902164H22758411
114H01614548G72703775G39689504G07883288F79373296F53270847F32515249
107F25456934F37537899F66335911G04260821G42391664G73925637G96723020
100H12648776H24512994H33853168H40880608H45828923H49802796H53987838
93H58567813H62812092H65809822H67331539H68246473H69707728H71967009
86H74171543H75166864H74213641H71100430H65861170H58598417H50152365
79H42874583H39523951H41110208H46779766H54934533H63438733H70159108
72H74127336H75653677H75961353H76500874H77194640H76033035H71290245
65H63548773H55242004H49433639H48892350H54601557H64025045H72306105
58H77234562H80112459H82817815H86154369H89079533H89173318H85182375
51H79537573H77116497H80692853H88243354H95709999I00764546I03208677
44I03830421I03188954I00821198H95465845H85826087H70690332H48844947
37H21458680G95081063G78212830G75879759G88094022H05842028H19047941
30H28680830H38546312H49311834H59592107H68093451H74110810H77283529
23H78146571H78587886H81040247H86594324H93242473H96667099H96889831
16H99066004I03159302I04271668I00118318H94072395H91279986H93224110
9H97485392I02026873I07244030I13260369I19450813I26121473I32581099
2I31946229I17434054
$$ === CHEMSPECTRA INTEGRALS AND MULTIPLETS ===
##$OBSERVEDINTEGRALS= (X Y Z)

##$OBSERVEDMULTIPLETS=
##$OBSERVEDMULTIPLETSPEAKS=
$$ === CHEMSPECTRA SIMULATION ===
##$CSSIMULATIONPEAKS=
##END=


$$ === CHEMSPECTRA PEAK TABLE EDIT ===
##TITLE=LIS-P298
##JCAMP-DX=5.00
##DATA TYPE=INFRAREDPEAKTABLE
##DATA CLASS=PEAKTABLE
##$CSCATEGORY=EDIT_PEAK
##$CSTHRESHOLD=0.93
##MAXX=3997.453
##MAXY=0.9410427195211093
##MINX=373.96442
##MINY=0.31052920167614567
##$CSSOLVENTNAME=- - -
##$CSSOLVENTVALUE=0
##$CSSOLVENTX=0
##NPOINTS=39
##PEAKTABLE= (XY..XY)
388.12973892103173, 0.7811305517725994
420.70997243940565, 0.6799921391445465
443.37448271305675, 0.768717467050202
460.3728654182951, 0.7439814201673756
483.03737569194664, 0.7357708210346179
524.1168005629397, 0.5481594197554642
555.28050218921, 0.676659702487628
583.6111400312743, 0.5881047837078833
611.9417778733382, 0.5998693700288689
657.2707984206409, 0.7123628845397444
687.0179681548084, 0.5856125943908087
743.6792438389366, 0.6448261131881158
790.424796278342, 0.5902947774762449
859.8348589913994, 0.6691210861546688
875.4167098045345, 0.6419197909312719
930.6614535965596, 0.486458599403801
946.2433044096947, 0.6192031499023729
1007.1541757701325, 0.455400764742831
1117.6436633541825, 0.4939612739850868
1157.3065563330724, 0.46462857679694614
1181.3875984988272, 0.3993003660512602
1194.136385527756, 0.3788852092104707
1212.5513001250974, 0.31052920167614567
1249.381129319781, 0.5124669071714013
1297.54321365129, 0.4853409520294685
1327.290383385457, 0.5422673221478618
1386.7847228537917, 0.5676156276995546
1409.4492331274432, 0.44351163468706645
1453.3617217826427, 0.7797784802168641
1561.0181455824859, 0.4384323649205795
1722.5027812822514, 0.44171029298824366
1740.9176958795933, 0.43864676303454175
1920.8172461767003, 0.8536492574388108
1949.1478840187647, 0.8329505910792383
1961.8966710476934, 0.8258196108266201
1970.3958624003126, 0.8271607745296041
2102.1333283659105, 0.5214838381622605
2121.9647748553552, 0.4397442038000817
2953.4689955199374, 0.793340861387879
##END=


$$ === CHEMSPECTRA PEAK TABLE AUTO ===
##TITLE=LIS-P298
##JCAMP-DX=5.00
##DATA TYPE=INFRAREDPEAKTABLE
##DATA CLASS=PEAKTABLE
##$CSCATEGORY=AUTO_PEAK
##$CSTHRESHOLD=0.93
##MAXX=3997.453
##MAXY=0.9410427195211093
##MINX=373.96442
##MINY=0.31052920167614567
##NPOINTS=100
##PEAKTABLE= (XY..XY)
3561.1611772322126, 0.8665834064133807
3579.576091829554, 0.8664538259254473
3534.2470712822515, 0.8664461362661158
3566.8273048006254, 0.8663483257976449
3497.4172420875684, 0.8662527195112137
3586.6587512900705, 0.8661739219752178
3352.9309890930413, 0.8661431063709607
3273.605203135262, 0.8656177511942285
3520.0817523612195, 0.8656156057319486
3512.9990929007035, 0.8655974262695014
3304.768904761532, 0.8655894991018867
3365.6797761219705, 0.865560650171386
3446.422093971853, 0.8655592794593738
3391.177350179828, 0.865499197751395
3619.238984808444, 0.8653749817955755
3637.6538994057855, 0.865350424666049
3653.235750218921, 0.8652855743877006
3626.32164426896, 0.865039109149818
3412.425328561376, 0.8649548287657735
3603.657133995309, 0.864914833597824
3290.6035858405003, 0.8646776075198082
3648.9861545426115, 0.864661990692862
3399.676541532447, 0.8643558609202215
3377.012031258796, 0.864314197935802
3752.392982666145, 0.8642124523669894
3667.401069139953, 0.8640438907224861
3433.6733069429242, 0.8639464965508219
3544.1627945269743, 0.8639002437845561
3708.480494010946, 0.8632553807497851
3426.590647482408, 0.8631290789278602
3678.7333242767786, 0.8630170214680407
3687.2325156293978, 0.86277401368469
3697.1482388741206, 0.8627489201895934
3732.5615361767004, 0.8626295919964923
3763.725237802971, 0.862460254725307
3721.229281039875, 0.8624191272300431
3772.2244291555903, 0.8622332800657092
3742.477259421423, 0.8622317901613482
3796.3054713213446, 0.8613327731057775
3848.7171513291632, 0.861225365900393
3780.7236205082095, 0.8611208789075561
3811.88732213448, 0.8608508696751124
3826.052641055512, 0.8606441016243072
3835.9683643002345, 0.860437392293262
3464.8370085691945, 0.8600097888652407
3862.8824702501956, 0.8599106068083432
3937.9586605316654, 0.8598002189178224
3007.297207419859, 0.8597555752482665
3933.709064855356, 0.8596305240695905
3994.6199362157936, 0.859326779020342
3949.290915668491, 0.8592804666579019
3874.214725387021, 0.8592297424257245
3881.297384847537, 0.8589230771639285
1882.5708850899136, 0.8588340869292747
3034.2113133698203, 0.8588308687358549
3980.4546172947616, 0.8586080062122935
3974.788489726349, 0.8584684722868142
3922.3768097185302, 0.8581025596634816
3966.2892983737293, 0.8580076089349694
3022.8790582329943, 0.8575178379328638
3901.128831336982, 0.8574731337907192
1920.8172461767003, 0.8536492574388108
1949.1478840187647, 0.8329505910792383
1970.3958624003126, 0.8271607745296041
1961.8966710476934, 0.8258196108266201
2953.4689955199374, 0.793340861387879
388.12973892103173, 0.7811305517725994
1453.3617217826427, 0.7797784802168641
443.37448271305675, 0.768717467050202
460.3728654182951, 0.7439814201673756
483.03737569194664, 0.7357708210346179
657.2707984206409, 0.7123628845397444
420.70997243940565, 0.6799921391445465
555.28050218921, 0.676659702487628
859.8348589913994, 0.6691210861546688
743.6792438389366, 0.6448261131881158
875.4167098045345, 0.6419197909312719
946.2433044096947, 0.6192031499023729
611.9417778733382, 0.5998693700288689
790.424796278342, 0.5902947774762449
583.6111400312743, 0.5881047837078833
687.0179681548084, 0.5856125943908087
1386.7847228537917, 0.5676156276995546
524.1168005629397, 0.5481594197554642
1327.290383385457, 0.5422673221478618
2102.1333283659105, 0.5214838381622605
1249.381129319781, 0.5124669071714013
1117.6436633541825, 0.4939612739850868
930.6614535965596, 0.486458599403801
1297.54321365129, 0.4853409520294685
1157.3065563330724, 0.46462857679694614
1007.1541757701325, 0.455400764742831
1409.4492331274432, 0.44351163468706645
1722.5027812822514, 0.44171029298824366
2121.9647748553552, 0.4397442038000817
1740.9176958795933, 0.43864676303454175
1561.0181455824859, 0.4384323649205795
1181.3875984988272, 0.3993003660512602
1194.136385527756, 0.3788852092104707
1212.5513001250974, 0.31052920167614567
##END=

##END=

