##TITLE=X8048
##JCAMP-DX=4.24
##DATA TYPE=INFRARED SPECTRUM
##DATE=30/10/2018
##SAMPLING PROCEDURE=Diamant-ATR
##ORIGIN=ComPlat
##XUNITS=1/CM
##YUNITS=TRANSMITTANCE
##RESOLUTION=4
##FIRSTX=3997.453
##LASTX=373.96442
##DELTAX=-1.4165319
##MAXY=0.99405855
##MINY=0.42820922
##XFACTOR=1
##YFACTOR=9.2578917e-010
##NPOINTS=2559
##FIRSTY=0.98569256
##XYDATA=(X++(Y..Y))
3997+1064705220+1065378082+1065474849+1064553471+1063078532+1061778970
3989+1061087438+1061286444+1062490977+1064194860+1065465964+1065908787
3980+1065891662+1065699995+1065173990+1064307079+1063528952+1063207683
3972+1063281079+1063498048+1063723065+1063906877+1063907199+1063516526
3963+1062758229+1062054012+1061868655+1062224369+1062755460+1063099520
3955+1063116968+1062914292+1062696164+1062572807+1062595856+1062792351
3946+1062926074+1062681549+1062344378+1062641439+1063577045+1064373650
3938+1064676313+1064606200+1063990639+1062662105+1061294234+1060894998
3929+1061420166+1061954155+1061943275+1061553052+1061266614+1061241827
3921+1061070312+1060338283+1059284405+1058756018+1059327413+1060755288
3912+1062511322+1064196083+1065222920+1064722861+1062294610+1058767027
3904+1055890931+1054795140+1055280906+1056956204+1059397461+1061630247
3895+1062782436+1062669445+1061758754+1061084283+1061305051+1061734224
3887+1061270091+1059645076+1057676194+1056266345+1055932779+1057218756
3878+1059632586+1061459247+1061578161+1060134254+1058081353+1056547053
3870+1056635965+1058544392+1060667535+1061379927+1060624527+1059560606
3861+1059077608+1059066470+1059181393+1059174568+1058607165+1057000499
3853+1055431497+1056269629+1058999319+1061779163+1063598549+1064025341
3844+1063019428+1060991057+1058666848+1056691914+1055625546+1056044483
3836+1057768518+1059638444+1060612874+1060567549+1060239649+1060375624
3827+1061026017+1061701647+1061818179+1060953973+1059136454+1057363488
3819+1056696163+1057033528+1058262075+1060402601+1062524198+1063505774
3810+1063061148+1061586016+1060047145+1059521719+1059672954+1059019085
3802+1057271163+1056294352+1057516718+1059992870+1062460331+1064291756
3793+1065277066+1065587583+1065524681+1065228264+1064721896+1064144706
3785+1063765944+1063644583+1063383962+1062618969+1061781417+1061760364
3776+1062539006+1063312820+1063615739+1063383190+1062580983+1061431176
3768+1060620536+1060737390+1061823201+1063245926+1063890009+1063017626
3759+1061135531+1059825991+1059855993+1060244863+1059624989+1057463667
3751+1054851861+1053795344+1054085001+1053940012+1052687385+1051402052
3742+1051498111+1052269221+1052053346+1050027292+1046831794+1044499216
3734+1044603773+1046736122+1049702161+1052457604+1054159234+1054475223
3725+1053839768+1053149459+1053063122+1053742035+1055016359+1056582464
3717+1058101247+1059035502+1058619527+1056558320+1054309374+1054296240
3708+1056388994+1058462884+1059281508+1058878022+1057929024+1057273674
3700+1057283139+1057712055+1058350730+1059235861+1060329076+1061330675
3691+1061742594+1061218263+1060270166+1059909495+1060142817+1060342081
3683+1060246473+1059962095+1059535819+1058618883+1056710842+1054479923
3674+1054096139+1055509529+1056393308+1056167969+1056891242+1059765664
3666+1063092889+1065097825+1065393405+1064577228+1063335547+1061902263
3657+1060579331+1060184666+1060784389+1060846840+1058897208+1055048228
3649+1051683919+1051546462+1054221685+1057798714+1060892809+1062718054
3640+1063373339+1063604472+1063668533+1062992967+1061178088+1058651332
3632+1055898979+1052795612+1049888999+1049424286+1051709543+1054376654
3623+1055937157+1056244842+1055747873+1055203647+1055309428+1055984736
3615+1056746961+1057593012+1058726852+1059797534+1060406142+1061070312
3606+1062364723+1063527278+1063420532+1061986797+1060166896+1058856326
3598+1058086568+1057370699+1056620964+1056332402+1056581240+1056493036
3589+1055326425+1053839832+1054137408+1056873022+1060281240+1062599783
3581+1063325889+1063117805+1062880877+1062745223+1062427882+1062122902
3572+1062043776+1061595738+1060012185+1057711604+1056504303+1057374240
3564+1059070269+1060444707+1061596124+1062953887+1064557720+1065951280
3555+1066400284+1065509036+1063972419+1063139437+1063312305+1063471136
3547+1062802781+1061637586+1060963115+1061515002+1063339281+1065587390
3538+1066903240+1066690906+1065777447+1065267151+1065256142+1065199678
3530+1064787694+1064068477+1063214379+1062551561+1062620901+1063748174
3521+1065370936+1066305770+1066048111+1065388319+1065350333+1065820068
3513+1065780988+1064754859+1063519552+1063247536+1064071053+1064949552
3504+1065025395+1064630987+1064682172+1065270628+1065653253+1065446392
3496+1065080699+1065115402+1065530604+1065872604+1065869965+1065721692
3488+1065825026+1066288129+1066776084+1066901308+1066681442+1066472135
3479+1066441102+1066406014+1066299203+1066386441+1066802159+1067222320
3471+1067288634+1066972322+1066319097+1065316726+1064204067+1063461543
3462+1063305351+1063524960+1063899087+1064472156+1065325804+1066267591
3454+1066906781+1067059046+1066938908+1066835638+1066731918+1066380003
3445+1065653704+1064777071+1064259887+1064473121+1065114371+1065432164
3437+1065146949+1064727304+1064650560+1064892638+1065246613+1065647394
3428+1066029440+1066182993+1065865780+1064973052+1063701561+1062585941
3420+1062162819+1062560574+1063495602+1064497329+1065085914+1065032477
3411+1064559780+1064138204+1064130993+1064676699+1065687633+1066831582
3403+1067652202+1067799058+1067182660+1066037810+1064818405+1063878484
3394+1063298977+1063063337+1063154954+1063412934+1063577947+1063535004
3386+1063336770+1063067651+1062905085+1063155919+1063899022+1064727432
3377+1065159761+1065172509+1065035503+1064891350+1064771019+1064732647
3369+1064777586+1064864503+1064943436+1064822654+1064417366+1064275145
3360+1065101044+1066557506+1067396153+1067008119+1066051008+1065373769
3352+1065132012+1065131562+1065317305+1065656472+1065950958+1065993579
3343+1065760514+1065396367+1065074969+1064817504+1064440801+1063848611
3335+1063320932+1063264983+1063724160+1064345451+1064766513+1064917168
3326+1065022562+1065353488+1065892241+1066259930+1066083393+1065448581
3318+1064874482+1064783832+1065147207+1065701283+1066202951+1066340923
3309+1065840091+1064928113+1064311586+1064448849+1065092868+1065588420
3301+1065486116+1064881178+1064201041+1063709158+1063388791+1063238071
3292+1063350998+1063709802+1064159128+1064565446+1064837591+1064871134
3284+1064644765+1064411314+1064605299+1065328121+1066019397+1066022744
3275+1065429202+1064909249+1064804498+1064946269+1065214937+1065599301
3267+1065797534+1065493005+1065049860+1065222663+1066068456+1066774861
3258+1066684919+1065946258+1065039430+1064163957+1063274705+1062408889
3250+1061793199+1061716262+1062298344+1063279985+1064116185+1064541689
3241+1064874933+1065368167+1065550563+1064869396+1063718301+1063039773
3233+1063101774+1063342436+1063225517+1062769431+1062384810+1062453635
3224+1062933027+1063277860+1062959553+1062141186+1061572302+1061639775
3216+1061901040+1061887648+1061861766+1062244971+1062779925+1062887315
3207+1062506815+1062087685+1061946365+1061938961+1061770150+1061526848
3199+1061655356+1062307293+1063000693+1063122247+1062542483+1061678340
3190+1061037863+1060645580+1060098329+1059378017+1059109156+1059628208
3182+1060384831+1060681377+1060502651+1060295983+1060287613+1060308216
3173+1060129168+1059745513+1059324515+1059036082+1058943757+1058946525
3165+1058884268+1058746747+1058585597+1058274308+1057665184+1056807931
3156+1055740211+1054447346+1053210751+1052434877+1052058175+1051698019
3148+1051212317+1050643111+1049960914+1049206544+1048473034+1047669347
3139+1046722473+1045806503+1044931802+1043575648+1041065374+1037121042
3131+1031884232+1025665267+1018833572+1011883994+1005524545+1000624198
3122+998004538+998246230+1001542486+1007478104+1014977960+1022743394+1029805642
3112+1035640373+1040041756+1043140809+1045402116+1047328570+1049056726
3104+1050339934+1051000434+1051190169+1051036553+1050425112+1049491565
3095+1048901435+1049156583+1049960656+1050681226+1051164610+1051749782
3087+1052628475+1053459396+1053652801+1052867012+1051163064+1048906135
3078+1046666074+1044944549+1043851785+1043213690+1042891004+1042757346
3070+1042583192+1042191295+1041555518+1040747581+1039905715+1038974293
3061+1037438191+1034889673+1031842899+1029325284+1027831417+1027352668
3053+1028051798+1030072250+1032822092+1035109926+1036180543+1036388305
3044+1036646286+1037389453+1038404186+1039464180+1040543618+1041504012
3036+1042196961+1042811428+1043632498+1044602936+1045412868+1045816546
3027+1045741476+1045332583+1044880940+1044599459+1044578084+1044817651
3019+1045000498+1044526771+1043234550+1041753558+1040735864+1040113542
3010+1039427675+1038405281+1036920555+1034818530+1032009327+1028469898
3002+1024161484+1019156000+1013715162+1008148327+1002820222+998229941+994712981
2992+992081474+989777803+987232697+983951184+979452134+973267870+965131786
2982+955412085+945323214+936388529+929571708+924761303+920746344+915785735
2972+908759284+899937590+890520809+881664992+874041200+867810967+862525484
2962+857083036+850133972+840920447+829862168+818172491+806874967+796390852
2952+787090410+780009105+776822942+778958704+786543674+798081795+811103869
2942+823271909+833112971+839925994+843311292+843048997+839227894+832200091
2932+822719571+812483779+804125254+800097740+801482673+807751406+817394299
2922+828761356+840519537+851582708+861012752+868322808+873786052+878218145
2912+882356396+886322038+889559835+891365894+891520025+890378523+888531002
2902+886582272+885119179+884652856+885568312+888118761+892367428+898158894
2893+905247474+913371455+922050605+930449692+937695430+943236770+946696558
2883+947611820+945633281+940790363+933331261+923540996+911886278+899167511
2873+886523362+875426261+867452035+863685399+864214173+868184901+874370967
2863+881857303+890332554+899726286+909599604+918997393+926904339+932772871
2853+936630479+938947027+940749544+943741915+949647402+958999093+970654261
2843+982564320+992998668+1001302146+1007812700+1013115632+1017413165+1020674204
2833+1023117972+1025188128+1027124432+1028826642+1030156592+1031222444
2825+1032276000+1033411257+1034510331+1035465510+1036284134+1037018674
2816+1037775426+1038709874+1039845132+1041004210+1042030661+1042966203
2808+1043911532+1044830077+1045587409+1046101761+1046328323+1046193957
2799+1045786029+1045540281+1045916532+1046852075+1047779827+1048204044
2791+1048133609+1048028472+1048407943+1049420229+1050736273+1051876165
2782+1052606006+1053042133+1053447743+1053940977+1054400540+1054648155
2774+1054617509+1054349806+1053995767+1053801074+1053957652+1054519712
2765+1055445082+1056507136+1057262214+1057418664+1057174912+1056943649
2757+1056864266+1056764602+1056476168+1056028130+1055588204+1055300994
2748+1055222576+1055384112+1055817535+1056441916+1056979768+1057129779
2740+1056916544+1056766340+1057044794+1057582710+1057880802+1057703492
2731+1057179418+1056429941+1055514937+1054664766+1054129232+1053835712
2723+1053568911+1053387545+1053485213+1053773969+1053986367+1054072768
2714+1054201727+1054512308+1055072371+1055912563+1056948736+1057978019
2706+1058777521+1059161370+1059066792+1058657770+1058210311+1057858203
2697+1057589535+1057438365+1057456199+1057544854+1057551807+1057499206
2689+1057465148+1057300136+1056782564+1056046350+1055525689+1055424673
2680+1055532964+1055607648+1055644475+1055692761+1055702805+1055702097
2672+1055855714+1056193657+1056510355+1056656117+1056704662+1056773680
2663+1056897745+1057061663+1057188625+1057198733+1057199441+1057454718
2655+1058098930+1059025008+1059966538+1060576498+1060640172+1060334033
2646+1060038131+1059888120+1059773712+1059668962+1059645205+1059620353
2638+1059338229+1058605813+1057555155+1056745738+1056839800+1057936686
2629+1059361085+1060334806+1060716465+1060839887+1060846003+1060598839
2621+1060185889+1059982633+1060105089+1060259929+1060290446+1060374079
2612+1060543470+1060586606+1060560402+1060798231+1061293526+1061646020
2604+1061661215+1061491631+1061209249+1060715435+1060102578+1059727614
2595+1059791224+1060039805+1060068713+1059812728+1059499958+1059205472
2587+1058775590+1058224862+1057920397+1058212500+1058960947+1059623443
2578+1059887734+1059978964+1060177906+1060409618+1060593302+1060906008
2570+1061331125+1061512749+1061523500+1062129662+1063683405+1065272495
2561+1065655120+1064718033+1063362587+1062307229+1061664498+1061371429
2553+1061364347+1061473411+1061523114+1061401367+1061012689+1060471104
2544+1060241387+1060681248+1061545906+1062219540+1062299825+1061857324
2536+1061348831+1061298805+1061842065+1062637189+1063294342+1063657781
2527+1063659777+1063305416+1062821388+1062383329+1061782511+1060869181
2519+1060128202+1060184795+1060863515+1061319859+1061054538+1060425907
2510+1060198379+1060754837+1061718064+1062374380+1062466125+1062301950
2502+1062089552+1061656579+1060955582+1060352060+1060220463+1060596778
2493+1061303892+1062094058+1062669252+1062925559+1063169633+1063802642
2485+1064894698+1066233533+1067459569+1067995618+1067414115+1066106892
2476+1064978138+1064341846+1063788027+1063169053+1062953565+1063477768
2468+1064378865+1064922833+1064746168+1064279330+1064305147+1064992946
2459+1065683449+1065787426+1065391152+1064791751+1064115541+1063655463
2451+1063848096+1064568730+1065070591+1064922190+1064465202+1064167820
2442+1064066803+1063966173+1063717786+1063216632+1062510678+1061950163
2434+1061907478+1062374573+1063066363+1063791311+1064452133+1064871778
2425+1064930624+1064742369+1064492823+1064310105+1064346932+1064626223
2417+1064816409+1064566219+1064009889+1063574728+1063482339+1063713279
2408+1064154557+1064594032+1064919743+1065293870+1065774872+1066006842
2400+1065728967+1065247965+1064965970+1064818534+1064578194+1064333089
2391+1064318861+1064500999+1064389746+1063079047+1059736821+1054387599
2383+1047889535+1040930106+1033519677+1025611378+1017558155+1009672905
2374+1001821906+993610688+984723067+975251882+965738269+956614815+948069837
2364+940926725+936601700+935463932+936404818+938673143+942785513+949111353
2354+957206361+966696153+976765064+985021866+988586598+986105681+979078522
2344+971670089+967495784+966703041+967586177+969070773+971038754+973510850
2334+975910258+977433355+978183154+979146767+980782405+982525562+983910173
2325+985313583+987461255+990745408+995132498+1000298873+1005555707+1010003187
2315+1013141642+1015271609+1017182225+1019536243+1022568467+1026177430
2306+1030047270+1033683080+1036635598+1038907142+1041004146+1043429114
2298+1046210374+1048883408+1050825764+1051831484+1052515677+1053754976
2289+1055603270+1057311531+1058474022+1059433322+1060468786+1061408706
2281+1062153612+1062832526+1063332134+1063319709+1062843922+1062458979
2272+1062652448+1063366772+1064110970+1064468422+1064534800+1064860640
2264+1065803071+1066893196+1067057500+1065661752+1063156306+1060559694
2255+1058690605+1058032100+1058603302+1059689951+1060574051+1061622006
2247+1063498434+1065409372+1065711391+1064378994+1063221976+1063355698
2238+1063851251+1063377524+1062119683+1061330160+1061644346+1062642598
2230+1063642587+1064222158+1064346739+1064446982+1064954252+1065692205
2221+1066226064+1066417860+1066078629+1064870104+1063250175+1062672986
2213+1064099381+1066723291+1068815337+1069670465+1070039570+1070563708
2204+1070724729+1069764335+1067697913+1065077609+1062635773+1061036511
2196+1060249113+1059690787+1059265477+1059231418+1059104005+1057964177
2187+1055837236+1053913293+1053489205+1054908389+1057283782+1059470535
2179+1061296295+1063148773+1064537568+1064187199+1061930913+1059590029
2170+1059155897+1060577914+1062065859+1062221471+1061090785+1059874600
2162+1060156788+1061971538+1062837033+1061324430+1059688727+1060014889
2153+1061713815+1063621341+1065266121+1066345043+1066974640+1067617500
2145+1067798801+1066471941+1063689200+1060366997+1057319000+1055810002
2136+1057372952+1061715425+1066425328+1069636021+1071446200+1072489583
2128+1072706552+1071799338+1070053477+1068497802+1068226945+1069184957
2119+1069879193+1069056063+1067376645+1066479281+1066753357+1067122334
2111+1066812589+1066240679+1066064271+1066164386+1065887091+1065066149
2102+1064365410+1064277849+1064217394+1063370249+1062127280+1061716519
2094+1062571004+1063944734+1064990242+1065479098+1065620676+1065714867
2085+1065891404+1065827472+1064948715+1063382224+1062333690+1062765246
2077+1064031522+1064741790+1064611544+1064378544+1064386334+1064424062
2068+1064574846+1065323357+1067003097+1069297562+1071017541+1070723506
2060+1068089424+1064542075+1062290232+1062462584+1063845006+1063753325
2051+1060915086+1057282366+1056300082+1059309385+1064319891+1068491814
2043+1070994299+1072740288+1073741823+1072449923+1068591350+1064790592
2034+1063669048+1064818856+1066350709+1067696948+1068954081+1069458196
2026+1069128171+1069408557+1070863795+1071492491+1069443903+1065845757
2017+1063191780+1062692558+1064487543+1067963813+1070711788+1070055022
2009+1066635795+1063777275+1062877851+1062152453+1060080495+1057748109
2000+1057534166+1060360044+1064187843+1065713515+1063833932+1060515141
1992+1058218037+1057593462+1057853375+1057962567+1057040867+1054920235
1983+1052570209+1051484140+1052947040+1057570349+1064013108+1068551497
1975+1068479775+1065271915+1062146788+1060107278+1058379058+1057279533
1966+1058037702+1060083392+1061297582+1061103984+1061126518+1062516021
1958+1064232717+1064470224+1062609441+1059651257+1057505645+1057679671
1949+1059994802+1062634678+1063804251+1063159396+1061483004+1059663425
1941+1058379315+1058122751+1058870490+1059834682+1060069872+1059428879
1932+1058543298+1058038989+1058149727+1058697687+1059111667+1058942083
1924+1058536988+1058588108+1058930301+1058861219+1058617981+1059189505
1915+1060368735+1060710478+1059669091+1058412279+1058229369+1058859673
1907+1059178303+1058741403+1057780622+1056530507+1055259918+1054318774
1898+1053713643+1053158665+1052694210+1052676891+1053141218+1053762573
1890+1054405047+1055446949+1057528822+1060704748+1063789508+1065140511
1881+1064526173+1063372695+1062958265+1063288161+1063662996+1063521290
1873+1062670411+1061126968+1058951290+1056508230+1054745952+1054408072
1864+1055264618+1056433740+1057064045+1056933348+1056546989+1056586198
1856+1057345847+1058627059+1059871316+1060481147+1060345880+1059909366
1847+1059525389+1059168516+1059058680+1059713193+1060909806+1061897627
1839+1062364594+1062387256+1061941601+1060883409+1059233672+1057306445
1830+1055846056+1055632371+1056442174+1057383511+1058056952+1058562806
1822+1058750609+1058294588+1057409071+1056742969+1056439084+1055960400
1813+1054980498+1053865135+1053267858+1053505172+1054366546+1055289212
1805+1055636877+1055195149+1054502779+1054325534+1054714276+1055127161
1796+1055201587+1054772800+1053768690+1052713718+1052515484+1053076642
1788+1053457722+1052959208+1051503777+1049574748+1047805966+1046615469
1779+1046094035+1045975442+1045803155+1045245602+1044401225+1043934967
1771+1044414681+1045597131+1046913560+1047806481+1047773389+1046681204
1762+1044999918+1043494848+1042337122+1041146882+1039807983+1038372252
1754+1036485072+1033595713+1029867450+1026732471+1025404389+1025368785
1745+1025562255+1025610670+1025705312+1026089547+1026854476+1027778559
1737+1028315638+1028112575+1027828777+1028781381+1030946179+1033519999
1728+1035901702+1037536760+1038279220+1038556193+1038659527+1038189406
1720+1036605725+1034319952+1033223002+1034472539+1036833317+1039150702
1711+1041120807+1042472776+1042885403+1042533939+1042248660+1042439361
1703+1042357531+1041151517+1039254422+1038172474+1038482990+1040023020
1694+1042165220+1043727269+1044080343+1043420873+1042207520+1040414981
1686+1037704413+1035156732+1035132395+1036939291+1038454598+1038967984
1677+1038493549+1037345287+1036139338+1035096856+1033893096+1032908623
1669+1033325242+1034845506+1035862493+1035808927+1035438663+1035712224
1660+1036381802+1036431119+1035255881+1032549432+1027953615+1022613986
1652+1019511971+1017432544+1013584594+1007220832+1000334670+995131274+990447768
1642+984756481+978067652+970767961+962395657+952516738+942913763+934703767
1632+925191249+910439474+887484851+857435659+825392218+794615504+766269423
1622+743929138+730604337+725602780+727219490+730285643+725432746+711228094
1612+695998729+690891714+704035986+734212140+772197058+809391551+842105149
1602+869819960+892930067+912076142+928110160+941893622+953814690+963529562
1592+970587368+975174365+978009836+979856391+981241839+982367310+982927567
1582+981819737+977479582+968944068+957013214+946877924+946983640+956988427
1572+969839822+982414180+994079264+1003113999+1008076154+1009384471+1007970824
1562+1004019990+996230091+983429686+972738324+972609430+977488788+982345871
1553+985697045+987387215+988067868+988055957+986856832+983925110+979281069
1543+973222094+965177498+954972610+944854123+933570957+914613200+880223725
1533+830893383+779484001+732878006+688278234+647145012+618319345+608446092
1523+620457360+654268552+697312197+737167234+775245377+812487256+843803754
1513+867289276+884658973+896933051+906314743+919300506+937520117+952090848
1503+961030748+967223188+972462316+977568623+982766932+987237590+989633393
1493+989116466+985118246+977112408+964666493+947290294+925708048+903037544
1483+883052951+866824949+850591861+828647013+799821990+770951642+754104152
1473+756459136+767124037+766032946+747135838+714866672+676870617+646336625
1463+634156674+636770025+645789888+659826373+684172046+717547883+747643301
1453+771379207+791841519+809706639+824316451+835594853+843336851+847486112
1443+849836332+853042968+858161250+865213647+876055150+892962130+912569828
1434+929364525+942563972+953417965+962138192+968249510+972085356+974979544
1424+978024644+980873828+982551573+983218383+984192426+985701295+986327157
1414+984800905+980702700+974084498+964657931+951208678+931697168+905328661
1404+875747337+848082294+822471312+794531099+759373926+713750988+659787615
1394+611253041+585947554+589542996+618323401+666770093+723366647+771121741
1384+801135651+815043629+816297736+806427122+786008397+754970998+713229167
1374+665828499+625425309+601896393+594555691+595976420+596827814+590839016
1364+579805332+575084677+589641115+623914766+667570110+711511828+751859584
1354+787741961+818765196+844438823+864312614+877518436+882484517+877512384
1344+862454019+840517734+818390361+804569686+805341762+820108602+843012235
1334+868437474+892749925+913592866+929828851+941720239+950290391+956403189
1324+960504807+962850262+963818254+964313484+965712838+968905696+973575683
1315+978763949+983646848+987599742+990050141+990614518+989473917+987639466
1305+986640121+987658201+990798330+995146791+999632450+1003787827+1007610668
1295+1011017405+1013789266+1015893351+1017538325+1018913085+1019963614
1286+1020426654+1020013125+1018474704+1015568735+1011133358+1005159818
1278+997658868+988500711+977539071+965168548+953059998+944056102+940611444
1268+943260720+950849746+961689703+973994041+985822527+995493684+1002289581
1258+1006514749+1008684311+1008746633+1006142489+1000418239+991595193+979859546
1248+964724309+944729801+919227882+891529683+869363938+860336414+866376846
1238+882851562+902551585+920017019+932872149+940783924+944165101+943506661
1228+939189555+931755820+922521499+913806809+908228192+907506142+911596621
1218+918477955+924675288+926471303+921393968+909497365+893887564+879663339
1208+871224979+869594492+871600008+871262708+862490975+842061949+811955392
1198+779459793+753770844+740708144+739782581+746037408+754499396+763271773
1188+773456509+786993643+804633618+825476366+847790062+869920332+890729472
1179+909700234+926717759+941622120+954011636+963458613+969653564+972326211
1169+971492522+968160919+964549253+963079078+964956923+969780655+976291853
1159+983187350+989431361+994407872+997989472+1000244985+1000954931+999475421
1149+995028584+986790003+973490312+953734598+927897376+899036492+869416345
1139+835549527+789765118+729871277+667082992+622077804+611682473+638383516
1129+690762177+752194437+809533901+856439597+892036244+918061142+936553349
1119+948724994+954882925+954822534+948046466+933487646+909377034+874770911
1109+832802003+792567947+766314105+762880842+782548223+817556543+857381127
1099+894015750+923821447+946415271+962937887+974955916+983890472+990696284
1089+995826863+999431834+1001572810+1002340830+1001895303+1000344392+997540082
1079+993141275+987025836+979513619+971042359+961664079+950787102+937076070
1069+918301804+891525627+854538059+808547561+760034298+719310547+696060537
1060+694880727+713823740+746408895+785003000+823414130+857960441+887228286
1050+911219726+930538540+945834476+957612873+966364132+972533008+976222320
1040+977261132+975739773+972291252+967998482+964275434+962436605+962804036
1030+964170684+964254638+960696731+951818574+936878030+916120653+890504069
1020+860602957+826518526+791758465+767256021+766333355+792202898+833222035
1010+872945860+902629423+923175432+939131740+953717408+967716616+980430941
1000+991026373+999238815+1005245512+1009411640+1012241510+1014280440+1015938870
990+1017392305+1018644352+1019740143+1020859111+1022105685+1023353354
982+1024383861+1025032708+1025177955+1024706804+1023511414+1021599381
973+1019323781+1017367518+1016364953+1016621260+1018125429+1020566235
965+1023357153+1025893052+1027856783+1029274422+1030345425+1031200425
956+1031757270+1031875283+1031639579+1031308202+1030941865+1030289799
948+1029003114+1026518786+1021554442+1012298746+997911183+980051342+962731477
938+950564789+946663530+951046885+960417375+970302282+978389242+985483231
928+992945423+1000278013+1005938074+1009375715+1011133358+1011551522+1010353750
918+1007295258+1002591213+996617416+989336590+979966550+966974607+948048655
908+919841190+878098522+819305237+744094343+660390171+582804206+526856338
898+501376664+504899258+528731093+563529237+603758014+647424239+693137634
888+738107026+778533200+811259675+834934417+849981643+857944538+860857268
878+860733782+859356190+858534797+860153052+865404670+874120068+885171715
868+897403172+910052407+922651487+934794354+945968456+955701806+963873172
858+970533609+975283172+976916170+973498939+963210869+946831311+930242380
849+922459692+928791842+946193666+966345654+982546358+993025000+999322384
839+1003618436+1007406511+1011122413+1014328083+1016491079+1017791477
830+1019044039+1020685986+1022068859+1022117596+1020557930+1018072185
822+1015338116+1012205778+1007536242+999273131+984587413+961039697+929683218
812+897892608+877190149+875761372+892509520+918620111+944420378+964689542
802+979058692+989397689+997277401+1003065133+1006706094+1008831296+1010476849
792+1011837252+1012099611+1010487215+1006844774+1001290751+993011673+978516462
782+952937607+916471731+878302035+850089484+836572115+835977221+846787755
772+868605705+897879152+927784899+952476950+969558278+979508533+984140920
762+984834899+981389597+972287389+954916339+924313909+872666762+793506257
752+690313366+582411279+499832932+467042011+486170188+532944897+570105268
742+570718576+535302746+489320618+462534268+468417704+500532062+543441309
732+584025993+615539501+637560836+655299123+676432300+705424653+740558905
722+776625932+809395994+837373613+860847997+880559351+897147122+911080209
713+922781991+932763600+941459876+949057336+955792650+962096150+968019793
703+972931343+976208349+977962193+978967269+980122356+981798877+983494390
693+984432186+984605504+984886534+986016769+987797461+989508169+990877328
683+992204895+993720782+995404707+997284419+999392367+1001580150+1003181279
673+1002309282+996620249+986808352+981056095+988524018+1001841543+1009703229
663+1011190787+1010076004+1009182439+1008772064+1007980610+1006388817
654+1004065895+1000877415+996224940+989765763+981988805+973229112+962547471
645+948955097+933885465+921561620+916539976+920763663+932616937+948421945
635+964517641+978407463+988986220+996301169+1001163595+1004542905+1006914371
625+1008252948+1008542026+1007870902+1006354823+1004532861+1003267745
616+1002372956+999651636+992000803+977556454+957433889+936263498+920360821
606+914085586+917475325+927184146+939423071+951887657+963290510+972046405
596+976060913+973460374+963229347+945666116+922757590+897912244+875434824
586+860656845+858785696+870784474+890070195+905111820+907989977+901508330
577+896266048+900589914+914410910+932409818+949611091+963146551+972366772
567+978792921+984446930+989893370+994570696+998420384+1001926013+1004762256
557+1006052933+1006283680+1007320045+1009793043+1011756838+1010958946
548+1007922730+1005617643+1006147253+1009011246+1012688003+1016372872
540+1019633847+1021933913+1023289229+1024357657+1025526715+1026634932
531+1027530042+1028446334+1029877558+1031980613+1033984390+1034786596
523+1034040467+1031811351+1028237348+1024603727+1023302170+1025076102
514+1027757441+1028926370+1028425345+1027757634+1028021796+1029252468
506+1031143962+1032962833+1032923817+1029786070+1025425570+1023122350
497+1023627431+1024977017+1025370717+1024831448+1024230438+1024319285
489+1025660309+1027919878+1029340157+1028401202+1026136482+1025148532
480+1026202346+1027102735+1025059169+1019721086+1013088655+1006754702
472+1000579968+994133925+988093299+983918864+983016415+985668202+990281789
462+994267647+996353190+997708056+999773963+1001036246+998126092+989398332
452+975625365+959210074+943735477+934191604+935459168+948046209+966399542
442+982487898+991260468+992277390+985886201+970074947+940940181+894267356
432+829403700+758085374+706152111+696057253+729644393+789036308+848494857
422+891150727+916103398+930933849+941933539+948222038+947212713+941034566
412+936356145+938996344+947724039+956535109+962368745+967334183+973657320
402+979505249+980436542+973890578+965334655+966440490+977735502+988569085
392+993166577+993550877+991916333+986727874+977344507+968198648+963860810
382+961942469+957522415+949126934+935905918+914482375+884135285+854301775
##END=
