##TITLE=S. Graessle SG-V2459 17-36
##JCAMP-DX=5.0
##DATA TYPE=LINK
##BLOCKS=1


$$ === CHEMSPECTRA SPECTRUM ORIG ===
##TITLE=S. Graessle SG-V2459 17-36
##JCAMP-DX=5.00
##DATA TYPE=INFRARED SPECTRUM
##DATA CLASS=XYDATA
##ORIGIN=Angelika Moesle
##OWNER=
##XUNITS=1/CM
##YUNITS=TRANSMITTANCE
##XFACTOR=1
##YFACTOR=9.3298158e-010
##FIRSTX=3997.4121
##LASTX=373.82813
##MAXX=3997.4121
##MAXY=1.0017813425346205
##MINX=373.82813
##MINY=0.09761227695468054
##NPOINTS=2560
##XYDATA= (X++(Y..Y))
2560A071832520A071320025A070851995A070732911A071034007A071409977A071406719
2553A071003724A070638487A070627179A070777823A070665000A070142027A069502846
2546A069211397A069498821A070124012A070585014A070722689A070879977A071237165
2539A071407741A071041162A070405175A069968257A069757433A069464898A069017503
2532A068770519A069087777A069869106A070628138A070963029A070769965A070127398
2525A069272281A068570044A068271248A068450513A069054493A069720251A069991639
2518A069943469A069938742A069898238A069418069A068494083A067718377A067580510
2511A067843019A068005801A067974688A067959675A068082784A068355258A068822905
2504A069383890A069687222A069541114A069132689A068645046A068174333A067870107
2497A067684070A067278840A066479751A065561451A064935047A064797819A065358804
2490A066781422A068407773A069091419A068553242A067660432A067597887A068418761
2483A068646899A067656663A066608099A066731016A067514580A067655257A067305928
2476A067228689A067132924A066609057A066235514A066609632A067416323A068222119
2469A069063054A069313935A068202379A066458541A065779367A066747307A067892020
2462A067890231A066791452A065133797A063612283A063787842A066958706A070031696
2455A070241626A068725479A066971675A065670760A065004875A064908790A065158712
2448A065563943A066134894A066806976A067292384A067546267A067819636A068130571
2441A068161300A067836950A067477718A067105644A066364628A065674146A066496426
2434A068798948A069965829A069438002A069152303A069696996A069496138A067794018
2427A065369154A063414236A062868392A063516773A064136725A064713681A066463396
2420A068915668A069816080A069085861A068293864A068016789A067689628A067146020
2413A066842178A066942223A067163909A067363808A067511833A067356078A066961262
2406A067012498A067738693A068153314A067543776A066448575A065502612A064873525
2399A064732080A065204072A065845745A066199163A066357856A066363223A066010763
2392A065516859A065659900A066721688A067683367A067485703A066253722A065374392
2385A066516550A068688042A069263912A068587932A068888389A070823885A071832520
2378A070494999A068050330A066350509A066723349A068733912A070131614A069944875
2371A069035582A067975902A066993205A066390630A066154634A065888612A065706792
2364A066273782A067682792A069187120A069935867A069575804A068562122A068116643
2357A068997123A069871086A069432571A068381835A067662157A067547353A067930479
2350A068391098A068404578A068000690A067646122A067576294A067570800A067213995
2343A066361881A065607066A065868871A066727438A066939668A066203380A065031515
2336A063953052A062986518A061926454A061342726A062517210A064695665A065497693
2329A065191742A065364490A065945343A065601955A064369143A062973613A061621653
2322A060330896A059485490A059658047A060991927A062504369A062508777A060550218
2315A057716482A056064640A057615669A060587208A061437342A060196097A058478772
2308A057367280A056997698A056791090A056236622A055474907A055012562A054968992
2301A055022273A055362020A056836449A058676052A058721092A057060115A054836684
2294A052621877A050831338A050323379A051307482A052554221A053235504A053540688
2287A053670569A053636070A053693121A053922280A053750874A052822480A051613625
2280A050824055A050697114A050743751A050173183A048777525A047274027A046484330
2273A046194287A045712585A045219319A045654193A047000339A047805241A047464664
2266A046466697A045247493A044174588A043678193A043761500A043845702A043454591
2259A042700159A041985081A041644184A041832776A042192583A041864336A040658676
2252A039243980A038257002A037879754A037885695A037990341A038079654A038100992
2245A037925049A037419645A036694729A036132594A036080399A036408519A036533608
2238A036151888A035562090A035176026A035045762A034847332A034291649A033527826
2231A032961667A032800546A032971761A033289019A033557789A033672656A033657004
2224A033492241A033020634A032182894A031218404A030549260A030466655A030798991
2217A030969823A030639212A030185428A030110489A030161982A029794253A029179987
2210A028999381A029436107A030077716A030669685A031164037A031325286A030980619
2203A030482690A030379067A030777270A031365214A031855158A032165708A032342226
2196A032470126A032519446A032326318A032024009A032162770A032978341A033878945
2189A034084211A033484703A032496447A031527038A030913731A030925166A031499886
2182A032149865A032313030A031879051A031316533A031090759A031107370A030992375
2175A030678182A030328533A029967384A029666800A029806200A030597494A031557384
2168A031981780A031654619A030744943A029407741A027855626A026538165A025770956
2161A025280629A024493743A023203689A021615350A019809862A017549824A014692961
2154A011517115A008479837A005741100A003037500A000067814I96834342I93473289
2147I89967342I86263987I82563252I79172875I76085319I72975211I69555639I65710456
2139I61474929I57168808I53339341I50281109I47725534I45203306I42604608I40157702
2131I37906800I35455103I32339246I28459501I23984145I19001469I13507384I07657453
2123I01755901H95948007H90012341H83493521H76103741H68041303H59829563H51804754
2115H43912508H36029079H28243524H20710639H13473547H06585593H00213775G94491935
2107G89383595G84700290G80185197G75678728G71306357G67457597G64468362G62260391
2099G60381306G58516021G56822334G55583581G54795161G54390634G54567599G55473888
2091G56770458G57916449G58795651G59708585G60807491G61911445G62945187G64191415
2083G65979398G68358648G71104157G73824112G76159536G78107873G80070521G82459354
2075G85310275G88326151G91260572G94210325G97450377H01101154H05145470H09600829
2067H14381242H19137825H23530831H27564797H31518011H35713865H40389057H45527104
2059H50779700H55758990H60395275H64848334H69158992H73205607H76990545H80760789
2051H84759234H88907173H92842882H96393613H99926009I03943748I08330110I12365674
2043I15604001I18366249I21176347I24047392I26585719I28557758I30128208I31623784
2035I33234739I34990012I36946910I39260549I41984337I44864007I47442773I49425290
2027I50917096I52279917I53813121I55592224I57445052I59047892I60300637I61621228
2019I63538581I65976670I68302639I70137067I71733263I73438897I75193851I76789473
2011I78224804I79536387I80641746I81608153I82678374I83900517I85195810I86718410
2003I88539805I90200655I91223664I91736415I92104399I92497172I93130923I94272633
1995I95741441I96956556I97579063I97685434I97429569I96977064I96645878I96746370
1987I97297900I98059807I98776929I99314851I99664181I99914040A000176804
1980A000501537A000868500A001214827A001432040A001422904A001172853A000722009
1973A000146586I99574740I99069592I98481903I97571205I96232981I94495021
1966I92395848I89978203I87396051I85037308I83437534I82818541I82779890I82743027
1958I82606822I82657611I83022785I83644334I84691876I86599326I89613157I93444860
1950I97343706A000516295A002677501A004208214A005635879A007105581A008427259
1943A009311124A009452760A008748095A007491645A006106784A004829444A003822214
1936A003195363A002729568A001983441A000770115I99294471I98001032I97397626
1929I97623081I98142539I98341737I98344611I98771371I99829263A001035434
1922A001693909A001443667A000433818I99054132I97600976I96250805I95078302
1915I93874878I92186557I89805582I87164846I85117422I84250678I84383753I84840603
1907I85197407I85465218I85599379I85417942I85056985I84897845I84997060I85120680
1899I85205521I85229606I84867627I83815165I82254937I80656632I79316747I78321400
1891I77705792I77383678I77038565I76326937I75247068I74203615I73690673I73974838
1883I74907960I75811630I75844276I74983154I74397893I75256396I77351927I79472948
1875I80971335I82334603I84243075I86622708I88846523I90621729I92248591I93924645
1867I95261655I95832926I95837334I95838675I96065088I96281535I96181105I95641012
1859I94714470I93542925I92158639I90311944I87714587I84511653I81204520I78004013
1851I74530904I70178912I64486716I57179860I48135875I37290107I24477155I09552509
1843H92764430H74789793H56319974H37725833H19164785H00931984G83593973G67785525
1835G54079764G43212274G36242546G34234028G37728475G46522218G59863125G76801081
1827G96356518H17444329H38812473H59218491H77758713H94041963I07966853I19308698
1819I27686861I32975105I35504104I35775365I34132212I30719347I25673360I19422607
1811I12792817I06649776I01425290H97079112H93495416H90878510H89766187H90632037
1803H93453123H97665460I02492318I07290874I11697680I15587838I18966076I21897622
1795I24459331I26694006I28654673I30473002I32272229I34018622I35567799I36836387
1787I37853455I38651713I39160567I39271345I39074831I38946548I39223303I39837058
1779I40448001I40868309I41134075I41233738I41051406I40558461I39800579I38692728
1771I37032262I34706549I31790719I28575710I25609474I23568885I22958836I23950222
1763I26427856I30091857I34559611I39441730I44329599I48846545I52862942I56550262
1755I60021263I63003917I65078749I66196119I66755762I67165081I67480168I67492051
1747I67037372I66190433I65168893I64042643I62620345I60735830I58540956I56346976
1739I54255981I52081742I49553829I46497449I42930619I39113227I35428335I32087534
1731I28952958I25704537I22178402I18518553I15014076I11815869I08849633I06051034
1723I03640352I02023073I01447075I01893448I03259974I05518862I08752079I13033732
1715I18206341I23913806I29999542I36623390I43818829I51186377I58097202I63987701
1707I68602265I72219885I75445882I78572664I81364810I83517903I84980322I85784585
1699I85920279I85529040I84997827I84638403I84275210I83327969I81396178I78644408
1691I75540625I72347913I68951211I65106157I60788664I56264626I51807861I47459128
1683I43117294I38702375I34120329I29265170I24243779I19477613I15398096I12080166
1675I09299456I06899507I04933537I03433361I02224379I01089441I00018388H99192148
1667H98772544H98764558H99013714H99305738H99605620I00272655I01860611I04570983
1659I08058275I11891958I15995304I20476154I25295793I30338586I35585048I40938008
1651I46047371I50564700I54446234I57770680I60377939I61964425I62505350I62368697
1643I61991002I61578616I61191849I61028045I61496970I62961433I65445392I68617725
1635I72032123I75360211I78440675I81180371I83495223I85375586I86912943I88208555
1627I89345474I90461310I91717760I93162035I94704184I96203018I97503039I98487908
1619I99195576I99801920A000440909A001110820A001747638A002305045A002776205
1612A003206032A003656493A004116665A004506627A004792709A005023147A005214294
1605A005287444A005164399A004854423A004412011A003891467A003372902A002897142
1598A002333602A001475546A000333964I99177879I98228594I97452760I96721008
1591I96064449I95680238I95666183I95840528I95993344I96229851I96784638I97569736
1583I98271462I98851676I99578062A000560249A001564667A002343887A002920971
1576A003450907A003970685A004476345A005084030A005829838A006490549A006952382
1569A007477782A008221992A008871971A009175174A009385871A009818764A010398659
1562A010931981A011463003A012153038A013048084A014047966A014966586A015599890
1555A015824450A015678150A015344665A015029642A014848524A014860279A015134607
1548A015672145A016294524A016730739A016834107A016724031A016692535A016924826
1541A017308973A017548866A017441282A017034965A016579201A016298805A016239007
1534A016393612A016827527A017435213A017791697A017623038A017274028A017328906
1527A017864528A018377470A018417335A018058231A017711393A017639521A017794700
1520A018044687A018354407A018749671A019258525A019885120A020541998A021045869
1513A021288636A021365108A021427844A021506935A021589540A021705174A021716418
1506A021261740A020279809A019389555A019350457A020261091A021538815A022545406
1499A023062373A023291660A023538069A023928350A024411969A024893159A025240061
1492A025335316A025244661A025180519A025252966A025395305A025467113A025294812
1485A024737660A023844404A022818583A021820553A020944290A020327085A020099906
1478A020241797A020590232A020964542A021220661A021245385A021018973A020690214
1471A020490442A020536376A020796649A021234333A021832116A022466698A022871864
1464A022748500A022003842A021054749A020715960A021438130A022789642A023985273
1457A024706484A025125194A025424948A025596994A025489856A024901337A023817316
1450A022656823A022093283A022457051A023366407A024131253A024470680A024571748
1443A024567659A024408008A024173162A024025074A023896790A023655364A023433232
1436A023389534A023372221A023211227A023074192A023114312A023034263A022428238
1429A021355525A020242116A019414151A019021443A019178539A019815740A020505391
1422A020812876A020850888A021155114A021937401A022810533A023372285A023689288
1415A024026415A024432476A024732933A024738555A024537888A024675499A025713714
1408A027568330A029582981A031035306A031447244A030955065A030376512A030345718
1401A030591936A030449789A029720273A028768624A027981035A027390790A026899058
1394A026562825A026449938A026377747A026232597A026345868A026915732A027537281
1387A027677128A027132115A026074990A025009432A024377662A024052417A023559471
1380A022707868A021645185A020630672A020010273A020074926A020750587A021593310
1373A022138450A022278553A022332217A022590892A022887388A022937539A022881830
1366A023035093A023351649A023576912A023729983A024089215A024791900A025628362
1359A026262241A026621537A026988052A027597909A028238688A028418016A027912421
1352A027034433A026368228A026354045A027115057A028456412A029899793A030892840
1345A031239870A031259547A031339404A031489409A031499950A031356526A031280948
1338A031460660A031884034A032445786A033152239A034087022A035137567A035975051
1331A036423085A036576411A036480263A036023860A035235249A034401853A033856457
1324A033741781A033900091A034026969A034056484A034194159A034457434A034607886
1317A034678225A035016694A035625402A036037020A036083082A036234493A036865433
1310A037589391A037688159A037010518A036105187A035556724A035561260A036088640
1303A037016779A038005993A038615531A038707783A038540720A038426108A038486992
1296A038687211A038770263A038250358A036933919A035491688A034998933A035767229
1289A036994610A037591499A037000744A035413747A033721593A033046955A033801578
1282A035345324A036797394A037739012A037892467A036808893A034444657A031717738
1275A030080719A030563123A032968630A035711903A037003235A036556862A035618630
1268A035389853A036041173A037040672A037703492A037545373A036752673A036284771
1261A037083412A039134351A041478080A042964648A042663424A040094688A035995366
1254A032658974A032229403A034356622A036558779A036969695A035792911A034288327
1247A033326776A032889795A032485139A031891828A031273346A030773245A030567659
1240A030969887A031924410A032832744A033220406A033102216A032647602A031990405
1233A031347390A030992886A031152090A031857330A032705738A033031622A032593874
1226A031787949A031047508A030463269A030081996A030046220A030252828A030386733
1219A030518147A031108264A032180274A033019292A032957833A032065279A031011796
1212A030556160A030965223A031704706A031978330A031633473A031219171A031218148
1205A031591563A032076587A032589402A033145212A033527698A033325754A032383816
1198A031196555A030720730A031484618A032790963A033316746A032754739A032180913
1191A032623325A034061020A035972687A038013915A039706196A040260473A039481381
1184A038354684A037853497A037553742A036657227A035714651A035878519A037391855
1177A039918809A043073063A045677000A045964296A043675637A040951274A039968832
1170A040262837A039531212A037075874A034992481A035146638A036552326A037234375
1163A037311039A038329449A040405175A041700915A040684038A037651105A034091941
1156A031525122A030711595A031395113A032813259A034246865A034956641A034344164
1149A032724968A031417346A031575719A033179455A035245023A036772798A037662924
1142A038608440A039556894A039225005A037085137A034764343A034376618A036342205
1135A039641160A043216423A046425491A049009687A051052385A052422041A052683080
1128A051959249A051113715A050789110A050674370A050010273A048663744A047371518
1121A046907129A047154816A047303734A046817433A045885269A045094997A044766047
1114A044631630A044402534A044371422A044856510A045403439A045308505A044749692
1107A044599559A045074681A045402801A044802079A043474651A042473043A042528816
1100A043312508A043858927A043521544A042607652A042069474A042396316A042947207
1093A042760020A041634601A040037446A038506030A037307653A036547918A036359326
1086A036678821A037025276A036949698A036513420A035964190A035382698A034889624
1079A034802164A035401672A036662274A038202890A039482083A040196012A040518126
1072A040891796A041599975A042441739A043032239A043367131A043718441A044290606
1065A045199451A046371763A047375734A047875835A048101609A048343291A048448192
1058A048335433A048489590A049320877A050219884A050369250A049926391A049628681
1051A049956800A050799651A051738970A052444018A052811555A052961304A053109329
1044A053383720A053716056A053843125A053627318A053497182A054045261A054901400
1037A055265296A055196491A055034411A054742771A054254553A053813354A053819104
1030A054596471A055832989A056368675A055825578A055255074A055500653A056324082
1023A057199259A057965638A058592042A059011647A059167529A059106581A059029918
1016A059029151A058905020A058595300A058412586A058565721A058901762A059086329
1009A058850206A058327234A058036168A058211855A058623793A059012860A059274602
1002A059429271A059529444A059541710A059548929A059813354A060327063A060681632
995A060757656A060868818A061053769A061014479A060705461A060521213A061079515
988A062417803A063459851A063752513A064000647A064463567A064853145A065297409
981A066154890A067181988A067966830A068646899A069322048A069725362A069720442
974A069548589A069667481A070171415A070471233A070358410A070233065A070239646
967A070304810A070523620A070738661A070581309A070340714A070730228A071665202
960A071832520A071240742A070129761A069176835A068626200A068398701A068462395
953A068716854A068875100A069125918A070340394A072469592A073741823A073552463
946A072440717A070809447A069114418A067449735A065219788A062070198A058427982
939A054273016A048704695A041242659A032566403A022193393A008971505I94489335
932I80154550I63764930I42991375I19775770H96721925H69273795H30543491
925G90258133G60589895G37056392G14509612F90730147F63984574F36187051
918F12003954E90666156E67631987E44355627E27139351E16173700E08629763
911E04248383E04455566E09279677E17268135E26869048E38567154E60265334
904F02205408F43046065F66437804F87366730G19729689G61080732G95058287
897H19258889H40134598H60026077H78687171H98234239I22712490I47852092
890I64899804I75536281I84458883I93484916A001999285A008698647A013128772
883A015433850A015629852A013742526A009370411A000410244I84322677I62284942
876I35163271H98816178H48336947G83623488G11019125F38200489E68654039
869E02411591D39881699C83059431C33289944B89667426B50268090B14251017
862A82204950A54767921A32287406A15620799A06048219A04624013A11692389
855A26357218A46054962A66757012A84685891A97752087B04103813B02298453
848A95386477A87036823A78101252A70155007A67424623A72710120A85782657
841B03942244B23610073B48380029B97354373C73991169D31420547D67088977
834D99148860E29867419E57237959E80407182E96986417F04802765F03533602
827E92602227E69201096E23361760D52763296C91049198C52148510C20714457
820B85083049B48213941B21751097B07065960A99021889A96291856B00109488
813B11252710B33536455B70117643C12163641C52360452C94529718D37057769
806D71913471D97664432E17280465E31486423E39162509E38242293E29954528
799E21646607E15835391E12055532E10854280E13633521E20847870E30065211
792E38063028E44577376E51783994E62131897E75314750E88121121E99237767
785F09539032F20137880F31553002F42945316F53063676F61856397F69792085
778F76434844F79979889F77780990F69479745F57330380F43151924F28651674
771F17315005F12089561F11606518F13444651F17922179F27658627F40757534
764F50628718F57006029F62295806F67869941F74724291F83502574F93467543
757G02998852G10947765G16419234G18552394G16769586G10356626F99539031
750F87829905F78472239F71863723F68490020F69572061F75238255F85023896
743F99110674G16507780G34814114G54312565G77912062H03357295H23622700
736H38044881H50016771H61164784H71275797H79588286H85664821H89751557
729H92060788H92137451H89593822H84425621H76772246H67717527H59328056
722H52839774H47372521H40055699H27159503H05025811G73055433G40594026
715G24230535G31620252G57849944G92693220H25540244H49401035H62260624
708H63988426H53943600H32782639H03144938G67670849G30767690F99522165
701F78034874F64201532F52939545F40182047F24932667F08025760E90352283
694E72718862E55858592E39776583E23415456E05400475D85108558D63164831
687D41341211D22052946D07575407C99778576D00285417D09532721D25718385
680D46126830D68588482D91279262E12537745E31418129E48365444E65104969
673E83505599F04401752F27328591F51035098F73855886F93265726G05353250
666G05104925F87124155F47694169E88857090E20512052D58272778D19569753
659D17255476D51994298E11343297E77613375F37260659F84839520G20896315
652G48126464G69102219G85519950G98003632H06171546H08978833H05296752
645G94513273G76827147G53170024G25040101F94423089F63682648F35326504
638F11663568E94445407E84638557E82361397E86960117E97311342F12309330
631F31120237F52921338F76534251G00508504G23496100G44476646G62842905
624G78356902G90898848H00204064H05744595H06685638H02031784G91054730
617G73644528G50342102G22305133F91260211F59158547F27655752E97783908
610E69878098E43798156E19532357D97855611D80562065D70180750D69338474
603D79947863E02410058E35102190E74625865F16930602F58569580F97344029
596G32331497G63552234G91484109H16669006H39585624H60701801H80463590
589H99149600I16817200I33423075I48857086I62891031I75328843I86165794
582I95356335A002521810A007127622A008891839A007980439A004966160A000474194
575I94366418I84930874I68940478I42762407I03931162H52564360G92032317
568G28278301F67788550F15003027E70370150E30400709D90132185D46377935
561C99472689C52757281C10756483B77224376B53643677B38545931B28106224
554B18040043B05847954A92002952A79417244A71790366A72036743A81511034
547A99907017B25519600B55906446B88753534C22280978C55097593C86108719
540D14601484D40075849D61835679D78880900D90347003D96100881D96984012
533D94700623D91649482D90554122D93497135E00647023E09679637E16598096
526E17764626E12238375E03122485D96671097D99067309E12826223E35574661
519E62043862E87307978F08756235F26047673F39962087F51403210F61092063
512F69613779F77383171F84589917F91310362F97698534G04018348G10403007
505G16597029G22139732G26906153G31278652G35678239G40105361G44257261
498G47999267G51605004G55474910G59662395G63818256G67610221G71016122
491G74170056G77150986G80026695G82906046G85782330G88453604G90761237
484G92845141G95029793G97510239H00230449H02978450H05533515H07808758
477H09877009H11805095H13530980H14987713H16256174H17508152H18877488
470H20450430H22280898H24339375H26530480H28834024H31354718H34162197
463H37161335H40208898H43289618H46458054H49634476H52584932H55148685
456H57412876H59591139H61756434H63728090H65213061H66075461H66453795
449H66461589H65524123H61824601H52571196H35723128H12710107G89716059
442G75066187G73954184G85218662H03041059H21321199H36598625H48077761
435H56216734H61563178H64382860H64944164H64027333H63000682H63227861
428H65379868H69244855H73976394H78536144H82210367H84888412H86852913
421H88448790H90068113H92206320H95217213H98993909I03021487I06753974
414I09836036I11966577I12764132I11960955I09605982I05897963I00950041
407H95030218H89067592H84683146H83512878H86356070H92757722I01249028
400I10095094I18062022I24640767I29717292I33264254I35383998I36454858
393I37134224I38236708I40491316I44242394I49337638I55280012I61446947
386I67261102I72351937I76636210I80232747I83307462I86045560I88709679
379I91526613I94441740I97157925I99505679A001617246A003717568A005912570
372A008160151A010299572A012163260A013784180A015448352A017456806A019836311
365A022344867A024772926A027099150A029291916A031258461A033132434A035216338
358A037448905A039332334A040571535A041356185A041732858A040860300A037027320
351A028406645A013974817I94303873I72244289I52901465I41838932I41939105
344I51451568I65195278I77823279I86243416I89721764I88700032I83900262
337I75972240I65282291I51882481I35755496I17059520H96153401H73391388
330H48819224H22054357G92534910G59887019G24083214F85411941F44504715
323F02552821E61464542E23632574D91556784D67855100D55361101D56293392
316D70558988D94950929E24366243E53817811E79658053F00012770F14951407
309F26109131F35509602F44482610F53692572F63813359F75627642F89397545
302G04274787G18272636G28992229G34967377G36744627G36908815G39232292
295G47353250G63221559G86104700H13109204H40798695H66486632H88645240
288I06865711I21584196I33501080I43122214I50901125I57513218I63618950
281I69457573I74861259I79560281I83441559I86684869I89639095I92477048
274I95071786I97261421I99127792A000940563A002855232A004736553A006375617
267A007796319A009165336A010520234A011822299A013144871A014553498A015855179
260A016682633A016910324A016941244A017380909A018359837A019405591A020055824
253A020254638A020010657A018919672A016116665A010732528A002858938I94374915
246I88466528I87693313I92236772A000052162A008470382A015592479A020819073
239A024562357A027458062A029812396A031667204A033080942A034129315A034776418
232A035094316A035564326A036657675A037991043A038534076A037967086A037221598
225A037339788A038327596A039459659A040323656A041152707A042231490A043337743
218A043983249A044111341A044229722A044757550A045533831A046055398A045951327
211A044963136A042093496A034643087A020287667I99777196I72071221I33243044
204H82120862H24718284G72369423G36029294G21225009G25855545G42680102
197G63308316G80915991G91617696G94260795G89592311G79923647G68837794
190G60390442G57969027G62980963G74477029G90547027H09564223H29782926
183H48703015H63243449H70033083H65382679H45956675H11283017G66327067
176G20607996F83887680F62025696F55541822F60788667F72766243F87637544
169G03033734G17440327G30407756G42372937G53390687G62665174G69645891
162G75042741G80451985G86939693G94125612H00888158H06518193H10773524
155H13514434H14962414H15972264H17573763H20261327H23614714H26687193
148H28980324H30734447H32298509H33731285H35023958H36409202H38376578
141H41152561H44027184H45640758H45416964H44402004H44244397H45746170
134H48578628H51840083H54527519H55934421H56286498H56762897H58215158
127H60222271H61973711H63417220H64992781H66933452H69150814H71167638
120H72212752H72017260H71244173H70501624H69212592H66210324H61213402
113H54821651H47274711H38115475H26926255H13929311H00248912G87575871
106G77112143G69152434G63514541G59926756G58202468G58123249G59222155
99G60993336G63311127G66799250G72962990G83076111G96356582H10362033
92H23245707H34501049H44034403H51720168H57853307H63493692H70124057
85H78536910H87730709H95374820H99857267I01283782I00472747H97718549
78H92745137H85666674H77238296H67941065H57901286H48166435H40755380
71H36559718H34145012H32323105H32420340H36042751H42998489H52568641
64H64739025H78811365H92674798I04424747I13520992I20624306I26801335
57I32495959I37463366I41687394I45897047I50916202I56910644I63348775
50I69321112I73861504I76856106I79605001I83353588I87366791I89545949
43I89573676I89498162I90443039I90477921I86892244I80114238I73993557
36I71359785I70773757I70188431I71638137I78208002I87486322I96438375
29A004558886A011760521A018288093A024214241A028359560A030122692A031125641
22A033031494A035788184A038706186A040476855A038262815A032867243A031904031
15A039192871A050986135A061776258A068844690A071832520A071586047A066055164
8A058845990A054030056A050732954A047925028A048319078A054923697A065281566
1A071832520
##END=


$$ === CHEMSPECTRA PEAK TABLE EDIT ===
##TITLE=S. Graessle SG-V2459 17-36
##JCAMP-DX=5.00
##DATA TYPE=INFRAREDPEAKTABLE
##DATA CLASS=PEAKTABLE
##$CSTHRESHOLD=0.93
##MAXX=3997.4121
##MAXY=1.0017813425346205
##MINX=373.82813
##MINY=0.09761227695468054
##$CSSOLVENTNAME=- - -
##$CSSOLVENTVALUE=0
##$CSSOLVENTX=0
##NPOINTS=30
##PEAKTABLE= (XY..XY)
470.1171921180144, 0.776542125573406
515.4296919382568, 0.7073150266867534
564.9902386166468, 0.7876644714192073
617.3828165338018, 0.6116084448456388
640.0390664439228, 0.7071711404015226
655.6152382571313, 0.6728896484323342
822.7050813442747, 0.4248435194815196
944.4824246111757, 0.8243012408667872
981.2988307151227, 0.8051637398334376
996.8750025283312, 0.7220849974359307
1112.988283317702, 0.4633849848193933
1124.3164082727626, 0.4576779598190728
1151.2207050410311, 0.1602772470994583
1227.68554848769, 0.43788415102730893
1271.58203268855, 0.5433324563040672
1305.5664075537316, 0.3892916732621321
1340.966798038296, 0.3729860474866301
1384.8632822391555, 0.6756937488285453
1430.175782059398, 0.6236888750738316
1461.3281256858145, 0.5706176155019385
1499.560547409144, 0.4766176333041624
1526.464844177413, 0.1831366859520125
1567.5292971395074, 0.15620408929744434
1585.937500191481, 0.09761227695468054
1662.4023436381394, 0.47045445308378514
2731.494136271981, 0.8385307773708417
2809.3749953380225, 0.8410335163198785
2928.3203073661584, 0.8301354629778355
2966.552729089488, 0.6850268235332042
3337.5488213677218, 0.7038325656465217
##END=


$$ === CHEMSPECTRA PEAK TABLE AUTO ===
##TITLE=S. Graessle SG-V2459 17-36
##JCAMP-DX=5.00
##DATA TYPE=INFRAREDPEAKTABLE
##DATA CLASS=PEAKTABLE
##$CSTHRESHOLD=0.93
##MAXX=3997.4121
##MAXY=1.0017813425346205
##MINX=373.82813
##MINY=0.09761227695468054
##NPOINTS=45
##PEAKTABLE= (XY..XY)
3337.5488213677218, 0.7038325656465217
3188.867181332552, 0.9298522459569273
3144.970697131692, 0.9167540653083388
3105.32225978898, 0.9305536129937291
3077.0019474013284, 0.9182877526765113
3065.673822446268, 0.9188915475666951
3041.6015569167644, 0.9084354625268034
3033.105463200469, 0.9090952857598109
2966.552729089488, 0.6850268235332042
2928.3203073661584, 0.8301354629778355
2895.7519481203594, 0.8760198338885858
2871.679682590856, 0.861103593086241
2809.3749953380225, 0.8410335163198785
2731.494136271981, 0.8385307773708417
2694.677730168034, 0.8966214638484111
2622.460933579523, 0.9289382085679092
1662.4023436381394, 0.47045445308378514
1585.937500191481, 0.09761227695468054
1567.5292971395074, 0.15620408929744434
1526.464844177413, 0.1831366859520125
1499.560547409144, 0.4766176333041624
1461.3281256858145, 0.5706176155019385
1430.175782059398, 0.6236888750738316
1384.8632822391555, 0.6756937488285453
1340.966798038296, 0.3729860474866301
1305.5664075537316, 0.3892916732621321
1271.58203268855, 0.5433324563040672
1227.68554848769, 0.43788415102730893
1151.2207050410311, 0.1602772470994583
1124.3164082727626, 0.4576779598190728
1112.988283317702, 0.4633849848193933
996.8750025283312, 0.7220849974359307
981.2988307151227, 0.8051637398334376
944.4824246111757, 0.8243012408667872
862.3535186869867, 0.8787183748828726
822.7050813442747, 0.4248435194815196
719.3359411293472, 0.9214996677181746
655.6152382571313, 0.6728896484323342
640.0390664439228, 0.7071711404015226
617.3828165338018, 0.6116084448456388
564.9902386166468, 0.7876644714192073
515.4296919382568, 0.7073150266867534
470.1171921180144, 0.776542125573406
431.8847703946849, 0.923183558589856
420.5566454396244, 0.905167935252101
##END=

##END=

