##TITLE=JPK158
##JCAMP-DX=5.0
##DATA TYPE=LINK
##BLOCKS=1


$$ === CHEMSPECTRA SPECTRUM ORIG ===
##TITLE=JPK158
##JCAMP-DX=5.00
##DATA TYPE=INFRARED SPECTRUM
##DATA CLASS=XYDATA
##$CSCATEGORY=SPECTRUM
##ORIGIN=Angelika Moesle
##OWNER=
##XUNITS=1/CM
##YUNITS=TRANSMITTANCE
##XFACTOR=1.0
##YFACTOR=7.9666418e-10
##FIRSTX=3997.453
##LASTX=373.96442
##MAXX=3997.453
##MAXY=0.8554116489520002
##MINX=373.96442
##MINY=0.5366955401427643
##NPOINTS=2559
##XYDATA= (X++(Y..Y))
2559A005220558A004399733A003483065A002958742A002772446A002678026A002630965
2552A002730847A003027122A003493091A004064699A004600843A004844449A004585580
2545A003928829A003277316A002987397A003113390A003499001A003972074A004422327
2538A004808462A005101897A005217192A005085737A004822677A004680898A004791853
2531A005050123A005281236A005398774A005365705A005173722A004996030A005118505
2524A005429899A005401614A004984654A004911934A005642007A006520441A006661624
2517A005996269A004968722A003965490A003324451A003388566A004146699A005057381
2510A005567414A005597416A005410970A005206942A004980917A004822079A005067107
2503A005943074A007059505A007539386A006965982A005889055A005120976A004734093
2496A004196079A003494437A003426952A004483304A005957809A006968002A007514995
2489A007748202A007368278A006230224A004913128A004478965A005236794A005923846
2482A005623751A005137286A005456683A006109843A006291874A006452209A006944510
2475A007008853A006422506A005941203A005760294A005345354A005026032A005756328
2468A006878670A007011696A006577379A006866250A007905320A008571422A008191348
2461A006647857A004089987A001671053A002180338A006938150A011134156A011526276
2454A009980465A008346670A007216173A006621219A006276013A005667445A004874077
2447A004951214A006436497A008132840A008877427A008823184A008364476A007482150
2440A006400135A005819250A005853741A005648366A004972687A005003811A006098620
2433A006613441A006466349A007491353A009661742A010760366A009989893A008261078
2426A006671874A006104381A006527326A006821434A006916528A008215739A010614471
2419A011721326A010881795A009615055A009023471A008939376A008847949A008524658
2412A008022858A007625651A007505568A007285379A006438367A005261110A004843776
2405A005799573A007273109A007970411A007688198A007098260A007010873A007794889
2398A008824232A009179392A009030280A008888650A008361633A007097138A005914938
2391A005856210A006586207A006820611A005987515A004383123A003105684A003964966
2384A006712200A008437873A008443704A008852962A010953471A012511401A011656982
2377A009311520A007108585A006403424A007786883A010235220A011821357A011726488
2370A010499177A009083326A008228383A008198306A008764751A009682915A010780043
2363A011562862A011460137A010395854A008844058A007689096A008007745A009998118
2356A012087259A012934197A012705703A011776391A010496035A009588570A009461305
2349A009457115A008980002A008404803A008184689A008158578A008108525A008545984
2342A010414483A013272523A014848933A014184626A012396406A010696322A009372945
2335A007983355A006402305A005857781A008094758A011720727A013128569A012326901
2328A011803850A012587940A013250900A012843517A011873355A011064949A010736350
2321A010767249A010980106A011453628A011999348A011761499A010383883A008851316
2314A009000128A011820310A015080943A015942994A014451426A012147039A010473141
2307A010031641A010299040A010285797A009555949A008406225A007338051A006877548
2300A007938763A011043776A013962717A014026835A012106787A010025431A008658286
2293A008531095A009941860A011850162A012665676A012387129A011985732A011826216
2286A011767339A012051347A012827731A013257335A012413390A010510101A008567681
2279A007500256A007492176A008105233A008929575A009748156A010130326A009514276
2272A008053160A006997256A007778279A009963108A011309154A010987737A010009196
2265A009374965A009334339A009572783A009626649A009326558A008912666A008582271
2258A008268111A008172718A009054895A011143658A012952228A012991208A011612615
2251A010145439A009571512A009846616A010130999A009718454A008676841A007686253
2244A007322115A007584426A008219101A009091780A009998272A010552373A010613648
2237A010446655A010282729A010068302A009680222A009107417A008373978A007568714
2230A006992767A006981993A007505718A008152143A008586461A008834781A009108988
2223A009480379A009746057A009672141A009344136A009085196A009003715A008937880
2216A008900246A009115497A009454197A009371598A008737518A008178026A008267961
2209A008722105A008843011A008486878A008084209A007987320A008082859A007988290
2202A007579339A007229341A007364237A007834018A008049344A007733239A007203304
2195A006962541A007228514A007761669A008052410A007765710A007078359A006516623
2188A006448393A006819489A007289494A007512377A007383316A007110231A006992917
2181A007120855A007324734A007367978A007116591A006642395A006274965A006364821
2174A006846723A007266675A007342312A007243182A007224478A007270865A007227470
2167A007055839A006898717A007006908A007513873A008182894A008522192A008260554
2160A007622432A007071625A006839014A006743848A006451012A005847457A005140279
2153A004626281A004449337A004596653A005046008A005748845A006484978A006990448
2146A007270266A007509758A007685056A007620264A007366632A007115019A006819489
2139A006314170A005683606A005144244A004742173A004452701A004347506A004400032
2132A004384993A004214858A004166226A004578996A005454065A006400135A006913385
2125A006751850A006124432A005511151A005294703A005534195A005977789A006298230
2118A006423404A006562789A006833705A007064293A007091227A006977804A006811633
2111A006550594A006188925A005865488A005737400A005874391A006228728A006597879
2104A006743699A006647333A006525904A006556280A006742053A007070727A007560559
2097A008045304A008134636A007633731A006908223A006582990A006856748A007335358
2090A007595424A007615401A007604926A007721941A008015002A008352505A008477227
2083A008400835A008528252A009077490A009665183A009750999A009242987A008463311
2076A007796535A007499508A007614578A007936144A008118027A007880929A007257323
2069A006715044A006788440A007379799A007750147A007487982A007092424A007279843
2062A008131494A009180289A009875421A009807562A008981947A008016873A007645253
2055A007965623A008491741A008813458A008880569A008766921A008512017A008203618
2048A008008115A008033034A008266615A008666067A009117143A009319974A009032898
2041A008497502A008258011A008468997A008711631A008586685A008214392A008059743
2034A008452088A009311071A010201402A010641032A010504714A010131298A009888365
2027A009726609A009439304A009191362A009371150A009975378A010517208A010566812
2020A010184344A009791850A009726459A009984955A010397350A010865709A011307359
2013A011547374A011430883A010948982A010250483A009648050A009480159A009783321
2006A010222950A010444710A010383434A010216964A010175964A010393759A010816928
1999A011249300A011531737A011638502A011588075A011354270A010927359A010429892
1992A010121572A010206340A010576539A010863914A010892120A010929379A011273541
1985A011762401A011999648A011919518A011798538A011788662A011694092A011266808
1978A010609533A010171101A010305624A010902595A011523878A011847019A011849339
1971A011633564A011282968A010929155A010760441A010834062A011010108A011162586
1964A011294341A011416742A011500912A011553434A011576774A011502708A011298081
1957A011060685A010924816A010937609A011059188A011262393A011590769A012010347
1950A012278639A012194024A011949969A011957525A012343286A012845238A013119071
1943A012970558A012389673A011536750A010721760A010273825A010319016A010693774
1936A011134754A011469938A011568099A011283866A010616866A009846691A009427113
1929A009652390A010325899A010903044A011134230A011300924A011654588A012019474
1922A012103495A011794797A011108119A010180753A009251666A008453134A007827808
1915A007534669A007634105A007771919A007569687A007195000A007106565A007379949
1908A007663733A007619142A007072897A005888382A004016142A001594664I98747773
1901I95353590I91320088I87027044I83207148I80465824I79130776I79284377I80623914
1893I82530196I84557609I86665599I88852074I90825244I92134779I92446021I91737272
1885I90488189I89581697I89670057I90577817I91567286I92223887I92785170I93561255
1877I94437371I95082375I95283111I94964612I94249728I93553324I93312486I93625449
1869I94332252I95293810I96412411I97499887I98351314I98994821I99721901A000734035
1861A001860267A002781200A003381986A003744179A003982399A004203336A004457791
1854A004705363A004916424A005115290A005292084A005412765A005462369A005391367
1847A005162500A004886422A004703792A004553633A004244261A003685522A002930685
1840A002060330A001058296I99756392I97989570I95832274I93555419I91360565
1833I89253098I87085926I84600404I81616522I78363669I75420188I73164282I71480284
1825I70115907I69045938I68381556I68218677I68642819I69592407I70677264I71386986
1817I71548966I71435767I71364915I71252085I70604841I68989375I66441456I63377219
1809I60218936I57178341I54254687I51303575I48175892I44913538I41846084I39449895
1801I38061497I37720108I38250640I39438223I41154917I43378127I46056903I48952501
1793I51679758I53923394I55597217I56900618I58218383I59808261I61560643I63206335
1785I64698950I66231592I67921426I69611485I71001225I71966225I72758994I73815870
1777I75299582I76909286I78222563I79154493I79928558I80646060I81133274I81252458
1769I81084044I80719307I80136102I79339817I78422551I77481792I76657599I76121380
1761I75854056I75562042I74923622I73787589I72127680I69992757I67565892I65154665
1753I63079893I61579946I60817104I60943696I62076886I64142680I66807315I69645752
1745I72350414I74805934I77073511I79299340I81527040I83620437I85437765I87013573
1737I88496241I89962520I91312382I92338358I92954932I93360743I93876761I94652023
1729I95601909I96514313I97156923I97466664I97663589I97982462I98370617I98670561
1721I98940130I99343173I99873182A000380297A000773015A001085155A001381434
1714A001642473A001799665A001915408A002177944A002627299A003020913A003102916
1707A002960538A002985377A003411315A004012625A004441630A004709553A005009423
1700A005248391A005191226A004940740A004880212A005207091A005761790A006229925
1693A006375296A006167527A005767626A005361736A005031793A004849608A004990419
1686A005548185A006261049A006699706A006758438A006692299A006690728A006721852
1679A006723124A006657958A006492236A006317462A006345369A006624813A006905526
1672A006893409A006576182A006252969A006210996A006407468A006562939A006522687
1665A006391603A006351279A006463128A006622943A006680852A006649204A006733374
1658A007075665A007551282A007938239A008188954A008401287A008588032A008647811
1651A008555860A008419617A008329087A008284047A008255991A008211773A008116605
1644A008023382A008097452A008447000A008959203A009395838A009623585A009688003
1637A009673933A009594406A009456367A009331718A009283463A009288177A009278974
1630A009219643A009141234A009143554A009320494A009626802A009908715A010133992
1623A010431467A010805406A011002551A010820071A010371538A009925549A009658225
1616A009613260A009733492A009904002A010058800A010192271A010283702A010352310
1609A010511073A010792463A011050584A011178223A011245185A011344543A011492159
1602A011695813A011937474A012099006A012056883A011879490A011826669A012075663
1595A012501600A012841198A013006096A013113310A013277161A013507151A013751502
1588A013965560A014160535A014334935A014364488A014141830A013809789A013619827
1581A013628876A013746194A013919696A014073746A014102401A014091104A014243283
1574A014502677A014624476A014668024A014985251A015645892A016259248A016445167
1567A016211889A015840718A015576910A015461766A015381037A015253473A015154863
1560A015253323A015616938A016103104A016494700A016706434A016764942A016703666
1553A016641492A016749080A016949517A016952585A016730376A016575054A016638949
1546A016812900A017047528A017434636A017973473A018451110A018604486A018436670
1539A018288901A018411980A018629476A018646833A018421856A018055474A017646819
1532A017340814A017217889A017222677A017403510A017924393A018660600A019142726
1525A019061095A018581891A018141290A018091087A018460608A018970570A019354385
1518A019655227A020082212A020613419A020907004A020637958A019827832A018848692
1511A018136651A017884365A017988587A018266834A018578899A018687983A018394174
1504A018012902A018199943A018978501A019537838A019359099A018938623A019024139
1497A019669443A020355746A020682775A020723625A020803306A021006885A020990725
1490A020428544A019545021A018949771A018965407A019351766A019750246A020111242
1483A020467448A020576159A020203791A019605249A019280989A019350869A019552428
1476A019748974A020071364A020619329A021257525A021656229A021471130A020708512
1469A019962354A019998417A021000750A022417425A023519491A023925452A023690001
1462A023135975A022625194A022389892A022474286A022703453A022765926A022494038
1455A022014007A021552232A021262014A021232012A021415241A021577371A021513701
1448A021263735A021040179A021087539A021574827A022419146A023249848A023703842
1441A023738408A023583161A023445646A023381901A023415120A023558097A023667406
1434A023530190A023131411A022625194A022125187A021774965A021793594A022175614
1427A022598559A022842689A023015069A023204358A023213486A022835207A022207262
1420A021692515A021464841A021375587A021221313A020936183A020495132A019899657
1413A019371069A019310766A019917389A021021550A022267939A023255609A023649449
1406A023461133A023024721A022547309A022102816A022032113A022618460A023418113
1399A023647878A023122657A022265690A021473823A020896754A020583566A020553190
1392A020729910A020860916A020628906A020042335A019616621A019883571A020725047
1385A021447936A021562632A021332792A021392496A021801899A021857638A021068834
1378A019951730A019564399A020291253A021398257A022064435A022360713A022752609
1371A023198747A023334167A023196353A023159243A023298105A023332297A023126548
1364A022894836A022904040A023172636A023523007A023813824A024005956A024082420
1357A024056159A023980668A023859238A023663141A023429784A023159543A022746174
1350A022239433A021971810A022183096A022704950A023182586A023381826A023215282
1343A022737570A022248258A022171050A022665147A023444149A024094840A024474241
1336A024640781A024491299A023820558A022878078A022503465A023368359A025225785
1329A027126980A028254858A028453125A028172857A027970251A027970849A027953791
1322A027954464A028360426A029340539A030551689A031481300A031920929A032103110
1315A032333848A032557778A032580373A032491639A032353974A031892274A031084915
1308A030526251A030655311A031138036A031269191A030604809A029327371A028337980
1301A028603583A030072855A031569884A032022382A031537114A030976953A030775918
1294A030723096A030790881A031279965A032012281A032366170A032340208A032606709
1287A033330494A033955973A034319885A034937058A035904227A036318194A035126123
1280A032247729A028805741A026549831A026812670A029445807A032825401A035208796
1273A035936624A035394045A034198681A032613891A030638777A028569167A027287015
1266A027562195A029091470A030860611A032455577A034561473A038180633A043192601
1259A047747957A049802902A049015370A046591723A043822941A041588359A040589317
1252A040706481A040622760A039291378A037291798A036068677A036392189A037789710
1245A038916092A038652060A037235311A035929740A035515624A035688603A035834647
1238A035744641A035454647A034877952A033934126A032855403A032002480A031474566
1231A031270837A031689667A033046936A034994219A036564045A037035173A036594421
1224A036089327A036163172A036717497A037245187A037460512A037429089A037295090
1217A037047593A036485337A035476719A034350412A033805664A034265643A035436392
1210A036564494A037022005A036633925A035634656A034505060A033755386A033527192
1203A033419379A033004814A032313273A031542052A030816319A030561565A031337425
1196A032919073A034245139A034597311A034238410A033747979A033338497A033061825
1189A033214674A033998469A034927631A035374069A035723842A036929530A038707051
1182A039545534A039034154A038557041A039315394A041098078A043015882A044488595
1175A045447834A045961757A045747479A044224862A041476132A038978939A038669268
1168A040973356A044299156A046787446A047887716A048015730A047662216A047113128
1161A046159500A044141665A041086182A038240039A036857256A037203513A038921180
1154A041317818A043201127A043720063A043459177A043646222A044293770A044091313
1147A042488716A040996849A041500597A043892896A046349089A047616128A047749678
1140A046915833A045190535A043240560A041820967A040956298A040432499A040623434
1133A042044523A044277534A046098449A046698114A046125384A044637108A042238974
1126A039203766A036498655A035006709A034586387A034405478A033951259A033433295
1119A033151981A032817321A031860252A030244188A028618169A027719985A027745274
1112A028143753A028084124A027383156A026797407A027190276A028649522A030717859
1105A032992170A035183059A036963423A037907399A037637531A036288940A034687017
1098A033769377A033931507A034947682A036131225A036596516A035955552A034802685
1091A034183867A034475806A035108540A035614009A036109228A036683305A037139768
1084A037456397A037724544A037649726A036929381A035952934A035413198A035450832
1077A035695636A035761101A035379755A034602248A034018296A034230030A035060507
1070A035749654A035990193A036035159A035924428A035409009A034478275A033480352
1063A032858770A032870815A033255603A033349350A032960672A032776919A033458808
1056A034565887A035070084A034802610A034330061A034073062A034073960A034140099
1049A034133665A034231302A034759067A035742995A036794335A037488569A037693644
1042A037492983A037008388A036425034A035965279A035567922A034884611A033809550
1035A032624811A031683682A031048329A030484128A029905188A029687768A030335839
1028A031702536A033066838A034021513A034547856A034759815A034953215A035410430
1021A036031792A036407527A036289015A035813474A035322594A035108914A035215605
1014A035388658A035299101A034760638A033836563A032916379A032518723A032787618
1007A033299372A033583679A033605900A033740422A034531022A036070098A037482284
1000A037943760A037540941A036706573A035754592A034908627A034395003A034346446
993A034647060A035018535A035338156A035788634A036616642A037596006A038066611
986A037902610A037457370A036831669A035999471A035210592A034739834A034348092
979A033567968A032382629A030993937A029394779A027597060A025968950A024953448
972A024344132A023382574A021750724A019621705A017246095A014868386A012556217
965A010022438A007025762A003783533A000762541I98342259I96421015I94703872
958I93261610I92155055I91258588I90617697I90411651I90552757I90974355
951I92244537I95193255I99297833A002557420A004391278A005637069A006788889
944A007816885A008771335A010038300A011675537A013010885A013809490A014850205
937A016533979A017855560A018488145A019161276A019719047A019634054A019234003
930A019056386A019023316A018877497A019126565A020526630A022095484A022387797
923A021767857A021058061A020747492A020927953A021107216A020757963A020219801
916A020286540A020883361A020994092A020471789A020180519A020767020A021777060
909A022245194A021896469A020952268A019801197A019316378A020200649A020596510
902A019303210A017799597A017601404A018581218A018973787A018448865A018013650
895A018187826A018886774A020286241A022914215A025955408A027637162A027952145
888A027867751A028069160A028681843A029458302A030323345A031278020A031831522
881A031524918A030711574A030137572A029906460A029006103A026694907A023109489
874A018769011A014604504A011744145A010610282A010422713A009916945A008703401
867A007850329A008816301A011964334A016343192A020577731A023846445A026167292
860A027931346A029403236A030642966A031619114A032292923A032673521A032810512
853A032761282A032708087A033112402A034275444A035165776A034377496A032313348
846A030598899A030841009A032927153A035149092A036355828A036133394A034396649
839A031067557A025494605A018088618A011402602A005159580I97606353I88094993
832I77408321I67767002I61751725I60260161I62421197I66831481I72403460
825I79646345I88904671I96428571A000397879A003134111A006867223A011535403
818A015241128A017507957A019512699A021989987A024409224A026216373A028002647
811A030360155A032589201A034132539A035555352A037170892A038533773A039350559
804A039768117A040082277A041013234A043673306A046828820A047455719A045066637
797A039616985A030726239A019811896A010983622A006919446A005256695A002782322
790I98864414I95176646I94789538I98992876A005624275A011770182A015109823
783A013326691A004648801I89576236I71319949I54974210I46200254I48342437
776I58098600I67761242I74067034I78333143I82323097I86424088I89419941
769I90027087I87664043I81871426I74154795I70642474I74206718I81055987
762I87406445I89319835I82525857I67802242I54223937I50394613I55872921
755I64370500I70681828I74062844I76912279I81439278I87038267I92162836
748I96923341A001816873A006329358A009635630A011834525A013498547A014765811
741A015394430A015297466A014547642A013042533A010652699A007601110A004422926
734A001794203A000278470A000105716A001304671A003930401A007741020A011681523
727A014642810A016564056A018060482A019598063A021292091A022925812A023825421
720A023494352A022515586A022207935A023586752A026316853A028846966A030092382
713A029886255A028037362A024058324A017764582A009836441A001940173I96160050
706I93142949I91087106I87892312I83645879I80666108I81306776I86126986
699I93322811I99121787A000531803I97618997I92698830I88547865I86474440
692I84906110I79944195I67837631I48426307I27252502I12967393I10994673
685I20005872I34692531I50015362I62580484I70597883I73983387I74006656
678I72568658I71398059I71243560I71801252I72636293I73975531I76423120
671I80166553I84723928I89291928I93100452I95575948I96447725I95737255
664I93578388I90042724I85266956I79915614I75396546I73251370I74152401
657I77546210I82150571I86667919I90251167I92643390I94032981I94714197
650I94784975I94154335I92780681I90778108I88309118I85586200I83102403
643I81668819I81851824I83195326I84287442I84049521I82931594I82370980
636I82794453I82454556I78875123I71675184I63392706I57188891I54289103
629I53922721I55008401I57136369I60272431I64302937I68938574I73724817
622I78138393I81758002I84253774I85333918I85036966I84120299I83838759
615I85107968I87895679I91441667I94951743I98023013A000535095A002386311
608A003498552A003959729A003886333A003151398A001474507I98747773I95054468
601I90491781I85408137I80865276I78283015I78162409I79504415I80973762
594I82332603I84280109I87066623I89450467I89118949I84900199I79014733
587I75994040I78423748I84635494I91067653I95614180I98211255I99607055
580A000502025A001309983A002113900A002771698A003025854A002363342I99838616
573I94642746I87594462I81699420I80017217I82794453I87530418I91716997
566I94628605I96725374I98463017I99943660A001140146A002064595A002686555
559A002808284A002296455A001536157A001366171A002359152A004337334A006699781
552A009042996A011331450A013358713A013963989A011367437A005264701I98411018
545I94924510I96721708A002263531A008597758A013743575A017175841A019028404
538A019348774A017270860A009712842I91912720I62559610I29314629I05527663
531H98624821I03780369I11010460I15984196I21471407I30671824I42762901
524I54604685I64093749I71001749I75843806I79057754I81097361I82558403
517I83949789I85540190I87405398I89424206I91302581I92810608I94002156
510I95144100I96433659I97790480I99008363A000144247A001574538A003511571
503A005411119A005744058A002679892I95870281I87684917I81765633I80059564
496I81939286I86053436I91899477I99396593A007913175A016228274A022914365
489A026081925A022615767A008044481I78256006I33196550H80165932H32386700
482H01834710G92196534G98623905H13343630H30672400H47975807H64273140
475H79085040H92261120I04156025I15442665I26609218I37660927I48064863
468I56486053I60345374I56287187I42353498I20324675H95474248H73742976
461H59226306H53498556H55836163H63773955H74326031H85275837H95417088
454I03989334I10594472I15786378I20973794I27100397I33634234I39057176
447I41938932I41623947I38706131I34902769I31745534I29396704I27217562
440I25303046I25019415I28014371I34746475I43942702I53536736I62069329
433I69163252I75033679I79993499I84428099I88863372I93668693I98700339
426A003488228A007704733A011238826A014042398A016089711A017220133A016808860
419A013428817A004754818I88635028I64875366I34600281H97663043H54487124
412H12450231G85765871G84563475H05868960H37441988H67971083H91902148
405I07308476I12360546I05175346H87826151H69248372H60642378H66572963
398H82253498H99712077I14395291I25755024I34540726I41393810I46926884
391I51710284I56050164I59971065I63349009I65957086I67111674I65237189
384I58805402I48792466I39639782I36398227I40494650I48420322I54475923
377I55278045I52524002I51314498I55225223I63304197I71985079I78792375
370I83510758I86902847I89586560I91920725I94100093I96161322I98025258
363I99519518A000514595A000949585I99845799I94488771I83032822I68964611
356I60156014I61443179I70141719I80184958I88164948I93983526I98295874
349A001274519A002464870A000651586I94944935I86941228I80954160I80863107
342I86559807I93816907I97495249I95164974I88932952I84219657I85475174
335I92424399A001155708A008433159A013719110A017777675A021212410A024372189
328A027408743A030144979A032303397A033894697A035269698A036736276A038158188
321A039117277A039458296A039427920A039205637A037907548A032736143A020838994
314A004209995I91122420I89295968I98193523A010496858A019896365A025063951
307A027588830A029094388A030217702A030223164A027145235A020001559A011517971
300A006230748A004306584A000703734I93451722I89021237I95344312A012307448
293A032771757A050403389A063152784A071060578A073741823A069706676A057353138
286A037559047A015006874I94474630I75226634I51523689I19046488H77947211
279H29939934G77541452G27728298F91144349F74083651F73678513F82898383
272F97612721G17012372G40143561G65023760G90160817H14557623H35327413
265H46039224H39825009H16826395G88106919G69089811G67929088G81187397
258G99984990H17882675H32970877H45630270H56378667H65275324H72241906
251H77418623H81216075H84287344H87491790H91753710H97964259I06717715
244I17649640I29316126I40211984I49683470I57838384I65033685I71319351
237I76008405I78068663I76704959I70841864I59151885I41752861I19262412
230H88318078H43243433G87386349G38186103G14289753G19643863G43454247
223G72101975G97736940H18504111H35226484H48626123H58457778H64468638
216H67170009H67107836H64348257H59781753H56146653H56641947H63836578
209H78739307H95812649I07011524I12665055I16463105I20305746I24499656
202I28714441I32451065I35367163I37640202I39851367I42511812I45713415
195I49000160I51643696I52984730I52061928I47721449I40684762I34939280
188I34978111I41448577I50863796I59413747I65897157I71115996I75911816
181I80560244I85224385I90310871I96087773I99628154I90926921I58208283
174I04220971H53360518H32287716H44000589H70005300H93297276I09650946
167I21671469I31308822I38458260I42577502I44323076I45787260I47966776
160I47303814I37343250I17213302H96884863H89545912H98486412I15099251
153I29810746I40010953I47298504I52999769I57670792I61654988I64903352
146I67259139I69063071I71014842I73548023I76439954I78928319I80281623
139I80272345I78593734I73865923I64901856I53707844I45286280I43182853
132I46635319I52674610I58804805I62678047I61759210I55663656I47859637
125I42911863I41839574I41538508I38991411I34453638I30018291I26444769
118I22201329I16024972I10717398I12158464I21638774I31146318I30738486
111I20088924I09162236I07877390I17156665I30230174I41131046I48447630
104I52617824I54169320I54356215I54787988I56061013I57831127I59731947
97I61592965I63158302I64033895I63868398I62176394I57604354I47863304
90I31721368I11696838H94514037H87722004H93392743I05214326I13836922
83I15342783I13344026I13325991I17205372I23077445I28563983I33335486
76I38167967I42990420I46863210I49435225I51714698I54967850I58819844
69I61424400I62040001I61804100I61927101I62449104I62863595I62919031
62I62475515I61362152I59995605I59581414I60571178I61444825I59780878
55I55041770I50122127I48916289I52599269I58936784I65200379I70483786
48I74963425I78811229I82449842I86505262I91170827I96324799A001596759
41A005404386A005136164I98743580I84876781I63352679I38709124I20689935
34I19105145I36168985I54286260I47898992I11062383H54436622G99553142
27G70060497G72754760G94568258H18877078H38481128H54905804H71266956
20H88938092I07894524I25587353I37049591I41102021I41295874I40520761
13I39391761I37890842I36733336I36980756I39165512I43115966I47779582
6I51203618I51589304I48142149I41438701I35800583I39385851
$$ === CHEMSPECTRA INTEGRALS AND MULTIPLETS ===
##$OBSERVEDINTEGRALS= (X Y Z)

##$OBSERVEDMULTIPLETS=
##$OBSERVEDMULTIPLETSPEAKS=
$$ === CHEMSPECTRA SIMULATION ===
##$CSSIMULATIONPEAKS=
##END=


$$ === CHEMSPECTRA PEAK TABLE EDIT ===
##TITLE=JPK158
##JCAMP-DX=5.00
##DATA TYPE=INFRAREDPEAKTABLE
##DATA CLASS=PEAKTABLE
##$CSCATEGORY=EDIT_PEAK
##$CSTHRESHOLD=0.93
##MAXX=3997.453
##MAXY=0.8554116489520002
##MINX=373.96442
##MINY=0.5366955401427643
##$CSSOLVENTNAME=- - -
##$CSSOLVENTVALUE=0
##$CSSOLVENTX=0
##NPOINTS=66
##PEAKTABLE= (XY..XY)
375.380951892103, 0.745518804099217
388.12973892103173, 0.7462618950031045
410.79424919468283, 0.6134796143928974
420.70997243940565, 0.7322181466752061
447.62407838936633, 0.7559676172648281
456.1232697419855, 0.7644641403275505
467.4555248788115, 0.766234874647138
487.2869713682562, 0.7276141048793591
495.7861627208754, 0.7072163223846167
526.9498643471461, 0.7232733964448902
536.8655875918685, 0.7255359290894037
560.9466297576228, 0.7513999941753056
593.5268632759967, 0.7086693645558322
616.1913735496478, 0.663053810791213
640.2724157154025, 0.7448326348509904
672.852649233776, 0.6820613744586462
692.6840957232212, 0.5690490603561476
740.8461800547302, 0.6117815971896678
760.6776265441749, 0.5366955401427643
791.8413281704452, 0.7879177927771907
814.5058384440968, 0.7881366611240262
849.9191357466766, 0.7840925459837863
858.4183270992962, 0.7814185028304073
876.8332416966377, 0.7649219035653786
903.7473476465984, 0.7578781844712816
912.246538999218, 0.7459949256664089
939.1606449491787, 0.6856429575292767
953.3259638702107, 0.6250336174688256
994.4053887412038, 0.7369298337350547
1024.1525584753713, 0.6799517272469241
1053.8997282095384, 0.6311146021579521
1076.56423848319, 0.7807783489052176
1124.726322814699, 0.7159022093362685
1144.5577693041437, 0.7926207189210518
1179.971066606724, 0.7807446125671871
1204.0521087724783, 0.7775394915614873
1218.2174276935102, 0.7792669534728096
1245.1315336434714, 0.7837890981909527
1263.5464482408129, 0.7599560623088338
1283.3778947302576, 0.7820603847202034
1306.0424050039092, 0.7753545046149266
1330.1234471696635, 0.7737549543076808
1344.2887660906958, 0.7257568241499132
1366.953276364347, 0.781261563173604
1409.4492331274646, 0.7967484001504529
1444.862530430023, 0.7571453450420623
1456.194785566849, 0.7732760906223813
1474.6097001641906, 0.7538038494687017
1488.7750190852225, 0.7925131915633489
1546.852826661454, 0.765004873749733
1604.9306342377054, 0.8049675821055203
1723.9193131743546, 0.7890254858063612
1834.4088007584228, 0.8209497928361351
1940.6486926661623, 0.819488227951522
2070.969626739656, 0.8212144375067535
2090.801073229101, 0.8235959415899156
2113.465583502752, 0.8229914901699525
2164.460731618467, 0.8198403120925446
2181.4591143237053, 0.8180248737591607
2852.8952311806097, 0.7654485702881347
2922.305293893667, 0.7470480209093314
2922.3052938936758, 0.7470480209093314
2953.4689955199374, 0.7713451383728899
3020.045994448796, 0.7921488881871334
3042.7105047224472, 0.7890864608893701
3058.2923555355746, 0.7800384167748037
##END=


$$ === CHEMSPECTRA PEAK TABLE AUTO ===
##TITLE=JPK158
##JCAMP-DX=5.00
##DATA TYPE=INFRAREDPEAKTABLE
##DATA CLASS=PEAKTABLE
##$CSCATEGORY=AUTO_PEAK
##$CSTHRESHOLD=0.93
##MAXX=3997.453
##MAXY=0.8554116489520002
##MINX=373.96442
##MINY=0.5366955401427643
##NPOINTS=57
##PEAKTABLE= (XY..XY)
3058.2923555355746, 0.7800384167748037
3041.2939728303363, 0.7883642911835135
3022.8790582329943, 0.7913364771429515
2953.4689955199374, 0.7713451383728899
2922.305293893667, 0.7470480209093314
2852.8952311806097, 0.7654485702881347
1723.9193131743546, 0.7890254858063612
1546.852826661454, 0.765004873749733
1488.7750190852225, 0.7925131915633489
1474.6097001641906, 0.7538038494687017
1456.194785566849, 0.7732760906223813
1444.862530430023, 0.7571453450420623
1366.953276364347, 0.7812615615802756
1344.2887660906958, 0.7257568241499132
1330.1234471696635, 0.7737549543076808
1306.0424050039092, 0.7753545046149266
1283.3778947302576, 0.7820603847202034
1274.8787033776384, 0.7826197728308247
1263.5464482408129, 0.7599560623088338
1245.1315336434714, 0.7837890981909527
1218.2174276935102, 0.7792669534728096
1204.0521087724783, 0.7775394915614873
1179.971066606724, 0.7807446125671871
1144.5577693041437, 0.7926207189210518
1124.726322814699, 0.7159022077429401
1076.56423848319, 0.7807783489052176
1053.8997282095384, 0.6311146021579521
1024.1525584753713, 0.6799517272469241
994.4053887412038, 0.7369298337350547
953.3259638702107, 0.6250336174688256
939.1606449491787, 0.6856429559359484
912.246538999218, 0.7459949256664089
903.7473476465984, 0.7578781844712816
876.8332416966377, 0.7649219035653786
858.4183270992962, 0.7814185028304073
849.9191357466766, 0.7840925459837863
814.5058384440968, 0.7881366611240262
791.8413281704452, 0.7879177927771907
760.6776265441749, 0.5366955401427643
740.8461800547302, 0.6117815971896678
692.6840957232212, 0.5690490603561476
672.852649233776, 0.6820613728653179
640.2724157154025, 0.7448326348509904
616.1913735496478, 0.663053810791213
593.5268632759967, 0.7086693645558322
560.9466297576228, 0.7513999941753056
536.8655875918685, 0.7255359290894037
526.9498643471461, 0.7232733964448902
495.7861627208754, 0.7072163223846167
487.2869713682562, 0.7276141032860307
467.4555248788115, 0.766234874647138
456.1232697419855, 0.7644641403275505
447.62407838936633, 0.7559676172648281
420.70997243940565, 0.7322181466752061
410.79424919468283, 0.6134796143928974
388.12973892103173, 0.7462618950031045
375.380951892103, 0.745518804099217
##END=

##END=

