##TITLE=JB-QP129F2.2
##JCAMP-DX=5.0
##DATA TYPE=LINK
##BLOCKS=1


$$ === CHEMSPECTRA SPECTRUM ORIG ===
##TITLE=JB-QP129F2.2
##JCAMP-DX=5.00
##DATA TYPE=INFRARED SPECTRUM
##DATA CLASS=XYDATA
##ORIGIN=Angelika Moesle
##OWNER=
##XUNITS=1/CM
##YUNITS=TRANSMITTANCE
##XFACTOR=1
##YFACTOR=9.3594577e-010
##FIRSTX=3997.453
##LASTX=373.96442
##MAXX=3997.453
##MAXY=1.0049641173089388
##MINX=373.96442
##MINY=0.2420480709980295
##NPOINTS=2559
##XYDATA= (X++(Y..Y))
2559A051292305A051590345A051880171A052070649A052156495A052274374A052406136
2552A052316787A051973213A051610024A051274282A050823464A050460275A050685398
2545A051556147A052403907A052502235A051856098A051186972A051119403A051522586
2538A051799738A051710644A051602382A051851386A052369072A052755760A052816260
2531A052749264A052764230A052719970A052422885A052119176A052244060A052692013
2524A052816260A052303414A051597351A051328668A051638172A052110452A052355061
2517A052406008A052437022A052407155A052158660A051714465A051338667A051313321
2510A051725355A052399576A052920574A052889433A052374230A051906281A051907491
2503A052259663A052508730A052462751A052288321A052101217A051887558A051736118
2496A051846164A052307744A052953881A053365470A053194924A052617503A052184962
2489A052213365A052536942A052875359A053186709A053576391A053896466A053728340
2482A053070677A052574134A052873894A053643322A053850677A053095132A051928252
2475A051070048A050580765A050191657A049930999A049997230A050346026A050777739
2468A051256897A051806489A052274310A052458611A052389896A052350540A052531657
2461A052884274A053228231A053322228A052986742A052590118A052907774A053807945
2454A054626729A054977499A054808801A054265705A053560852A052909684A052440716
2447A052156113A052072751A052248391A052573497A052801230A052745698A052337612
2440A051700646A051248745A051369745A051903797A052313285A052303796A052060587
2433A051945128A052049697A052145159A051917044A051409738A050993564A050947521
2426A051406044A052312521A053146843A053340123A053060933A052883064A052957065
2419A052880708A052433647A051824002A051384583A051273646A051412222A051664983
2412A051888450A051891252A051636898A051418335A051470110A051576462A051460430
2405A051238619A051155512A051184233A051220406A051274410A051315804A051286255
2398A051365350A051866924A052704367A053302614A053168559A052360411A051304787
2391A050480463A050258270A050578090A050990252A051236072A051630466A052673417
2384A053994348A054663984A054512925A053885767A053177029A052661062A052271253
2377A051901314A051608750A051388086A051083231A050863330A051272627A052339204
2370A053482457A054230997A054439689A054109424A053433038A052873639A052786965
2363A052986296A052959612A052510896A051905262A051423430A051063425A050815759
2356A050993437A051730004A052566301A053010368A053015590A052869117A052821673
2349A052832181A052698381A052363213A051981747A051731787A051578500A051266577
2342A050649416A050095303A050165610A050747235A051253904A051303322A050921346
2335A050393216A050028817A050135551A050985476A052222981A052960058A052910703
2328A052392635A051884310A051659888A051600216A051459794A051131248A050713100
2321A050350994A050039898A049756887A049664991A049819807A049867315A049428788
2314A048658149A048424366A049260535A050404233A050964970A050782070A050292150
2307A050137143A050609168A051389232A051868198A051619513A050720551A049728548
2300A049216211A049296325A049600352A049911129A050356916A050993564A051728094
2293A052352005A052431164A051567929A050066709A048749727A048179629A048233760
2286A048399911A048494864A048701582A049049741A049393571A049728993A050125043
2279A050517591A050724436A050546567A049864449A048822836A047861273A047333652
2272A047239145A047425484A047718876A047834207A047571702A047099359A046727828
2265A046580336A046555563A046557601A046625297A046720122A046601097A046114042
2258A045461219A045055235A045145857A045459754A045384098A044833296A044303383
2251A044117808A044168755A044238744A044211614A043907588A043136631A042110238
2244A041460344A041599175A042310078A042976529A043007034A042310715A041443022
2237A041047736A041211213A041466903A041368894A040955777A040589531A040509799
2230A040691807A040931577A040909733A040360778A039386160A038509616A038227050
2223A038511017A038892929A038957823A038586227A037888189A037140285A036652467
2216A036495804A036431930A036200311A035793881A035430692A035341343A035550481
2209A035841389A036034415A036140703A036117777A035781463A035121252A034386977
2202A033764467A033292379A033098843A033345236A033924759A034516383A034925806
2195A035165640A035269699A035209136A035003883A034795827A034705396A034618977
2188A034282535A033664929A033040509A032697890A032772973A033345682A034348130
2181A035320710A035657343A035283455A034791815A034732844A035031712A035273202
2174A035299567A035256453A035246964A035252823A035283200A035378917A035577419
2167A035968757A036577829A037156843A037346685A037087173A036689212A036505102
2160A036661446A037107997A037776296A038575911A039291717A039694263A039787305
2153A039750687A039650003A039448252A039200713A038940119A038526556A037905956
2146A037320001A037034188A037086600A037449407A038082997A038638958A038516557
2139A037531049A036283291A035603211A035775858A036395948A036807410A036636610
2132A036060207A035615821A035681352A036128731A036515610A036537517A036264696
2125A035990218A035902080A035904755A035767771A035438780A035135326A035035788
2118A034975097A034653430A034127210A033857191A034201848A035018020A035846930
2111A036414098A036800595A037134872A037382029A037558816A037839279A038232718
2104A038524645A038753206A039308211A040326707A041393985A042061010A042330202
2097A042442604A042455150A042277917A042028914A042058654A042532462A043193055
2090A043671894A043867403A043899945A043856067A043693928A043397289A043152870
2083A043244702A043748378A044452021A045100960A045631000A046142382A046627207
2076A046765210A046229629A045212916A044293958A043795058A043653807A043778500
2069A044073038A044309879A044375027A044423554A044556717A044637023A044581235
2062A044547419A044669756A044804702A044738153A044557864A044575631A044827947
2055A044916276A044523283A043901028A043605280A043789963A044018206A043913319
2048A043756338A044098257A044949137A045785816A046238672A046366103A046359098
2041A046326237A046308024A046256440A045996609A045370024A044495644A043852947
2034A043944652A044767893A045753082A046315666A046341649A046119137A046003933
2027A046187088A046554735A046718211A046393296A045781740A045370661A045364929
2020A045584447A045839374A046024567A045962220A045643228A045503569A045938657
2013A046650643A047000522A046862519A046631410A046527096A046430297A046356360
2006A046563014A047079490A047536422A047653154A047559666A047460765A047328175
1999A047143428A047102416A047321871A047613670A047725881A047604436A047352566
1992A047100633A046970208A047076815A047537504A048323873A049052034A049190164
1985A048673115A048050414A047816631A047850765A047747215A047424784A047089934
1978A046789792A046375083A045804794A045200816A044675233A044286443A044037312
1971A043852437A043749715A043917267A044362290A044717710A044715163A044559710
1964A044547674A044637914A044630909A044446926A044070491A043550894A043164906
1957A043210058A043501221A043479186A043030661A042739243A043033590A043564332
1950A043767292A043602287A043383660A043232730A043014485A042579715A041874671
1943A040941575A039919576A039002656A038318182A037829345A037428264A037115321
1936A036920321A036662210A036040720A034983950A033688365A032355462A031071340
1929A029870390A028823745A028103035A027845370A027846899A027647759A027076260
1922A026420571A025917469A025438247A024863692A024385171A024226216A024289008
1915A024188706A023527095A022150186A020253617A018183572A016094551A013966045
1908A011955736A010476360A009820798A009875248A010300784A010914059A011838813
1901A013316597A015399250A017867573A020428938A022864337A024937246A026347144
1894A026916286A026739500A026054261A025009719A023591161A021726752A019463236
1887A017013445A014564418A012086670A009506455A007038323A005166017A004268584
1880A004403403A005412537A007055072A009023476A011020539A012889023A014593840
1873A016120024A017486680A018762204A019903992A020646291A020656226A019779299
1866A018166187A016287385A014724965A013716786A012928316A011888422A010608695
1859A009606502A009348965A009799719A010517754A011138609A011670305A012245625
1852A012697590A012659316A012053045A011143448A010050188A008567372A006540888
1845A004080908A001310851I98227915I94883747I91383427I87613215I83257111
1838I78192079I72647252I66875902I60857203I54436468I47613952I40606307I33726411
1830I27295296I21577950I16669006I12472940I08922628I06210460I04694274I04585884
1822I05849372I08340112I11836802I15917027I20014320I23691363I26743730I29033993
1814I30411603I30875922I30704548I30304232I29932318I29599633I29251601I29003107
1806I29086851I29543273I30118529I30567946I30931327I31390997I32033057I32925268
1798I34272055I36259374I38794119I41560610I44326018I47065889I49732269I52053418
1790I53747345I54875187I55753069I56573572I57378663I58295201I59478384I60934961
1782I62697476I64992069I67944517I71274164I74521022I77479011I80254799I83009891
1774I85774726I88452314I90879370I92890124I94455601I95754051I96956530I98039856
1766I99044597A000298723A002001247A003773506A005028333A005604098A005675806
1759A005235433A004054033A002116006I99772822I97328253I94698937I91729740
1752I88644448I85840384I83435745I81417539I79966120I79186821I78739633I78100310
1744I77069714I75887742I75058196I75142832I76578839I79577840I84104362I89820753
1736I96111190A002350044A008146932A013307044A017708618A021341910A024330530
1729A026800191A028811072A030455326A031879743A033123362A034052637A034609425
1722A035060561A035804707A036923760A038125475A039132699A039892447A040388035
1715A040535782A040343393A039997398A039749286A039795839A040182400A040764980
1708A041344821A041848561A042293202A042670210A042971626A043239799A043474601
1701A043588340A043557008A043537139A043701188A043988402A044158184A044098321
1694A043935672A043824607A043778819A043758440A043787480A043927138A044194356
1687A044537421A044867622A045145538A045424155A045758050A046090925A046323180
1680A046460483A046585367A046687898A046676562A046564669A046489777A046534483
1673A046662361A046810808A046913466A046909581A046877867A047014532A047316012
1666A047469490A047259588A046889202A046704710A046775909A046918370A046981990
1659A046968553A046956580A047019054A047175079A047354413A047443443A047422491
1652A047430388A047595202A047823190A047880123A047670476A047334862A047097767
1645A047103562A047328303A047580682A047668948A047604563A047567881A047683022
1638A047897191A048066653A048120976A048129000A048190391A048273499A048236371
1631A048030354A047796761A047698879A047720850A047698752A047519991A047208959
1624A046847617A046498502A046208995A046016033A045923055A045903886A045928786
1617A045966360A045991133A046029725A046174033A046471755A046817877A047042744
1610A047084967A046997338A046852966A046765465A046884936A047231503A047602207
1603A047754093A047626088A047340912A047036440A046782596A046698024A047005043
1596A047749890A048574532A049076106A049303076A049567236A049908391A050130711
1589A050215602A050330742A050572550A050960512A051504691A052071095A052391743
1582A052379389A052235399A052168277A052213874A052366970A052646606A052952734
1575A053079720A052978399A052863450A052924204A053053673A053032085A052888223
1568A052864978A053089655A053498187A054006893A054505283A054724356A054429691
1561A053827814A053505001A053823293A054564891A055296301A055834175A056165904
1554A056189531A055828953A055238157A054637810A054117640A053819408A054113755
1547A055215932A056662702A057535744A057331128A056404018A055490982A054982785
1540A054724292A054401288A054001990A053814887A054015172A054468538A054961260
1533A055383548A055701075A055976890A056328107A056671363A056722883A056412743
1526A056033187A055877416A055996823A056291934A056557942A056510625A056061017
1519A055493912A055173773A055201730A055511998A056070633A056776441A057394302
1512A057824423A058260211A058899215A059631261A060115896A060080870A059570634
1505A058989010A058766626A058894885A058965829A058718417A058313196A058024645
1498A057954211A058130360A058620853A059371686A060065140A060315545A060049410
1491A059588402A059257883A059053139A058842983A058703515A058780381A059004421
1484A059212540A059351307A059353855A059103322A058737458A058691224A059140004
1477A059635210A059589931A059007287A058417511A058164304A058104950A058025218
1470A057976245A058097181A058387898A058750004A059071608A059257628A059294565
1463A059272339A059280936A059326725A059361369A059357803A059325260A059243618
1456A059042695A058718290A058417256A058335613A058537682A058856484A058979330
1449A058714596A058149784A057479002A056854836A056493239A056595834A057052956
1442A057530713A057859640A058074255A058248876A058518641A058991748A059528412
1435A059887271A060007760A059929111A059683227A059409833A059235530A059056578
1428A058781146A058599010A058675558A058852981A058915901A058886288A058923988
1421A059130452A059428174A059523508A059160319A058501828A058034834A058042986
1414A058437507A059135928A060236131A061642653A062800107A063091397A062528113
1407A061957442A062376800A063850827A065276199A065514377A064638405A063675633
1400A063198067A062686813A061501975A059978657A059016457A059055050A059846577
1393A060772158A061300479A061402947A061332894A061117261A060676441A060153023
1386A059745701A059424353A059058680A058668552A058308229A057822258A056963353
1379A055746673A054580685A054012880A054210491A054723337A055056467A055319227
1372A055869264A056478082A056422486A055507476A054494139A054233035A054742124
1365A055369728A055618350A055594787A055692733A055975871A056072034A055734764
1358A055249238A055097161A055409467A055864042A055987334A055550017A054820391
1351A054351805A054425424A054818481A055158998A055274266A055115184A054609852
1344A053810938A053078446A052864086A053252367A053914552A054589919A055370683
1337A056363133A057398951A058328608A059214323A059903446A059854346A058848014
1330A057446650A056399369A056117186A056856746A058523353A060109655A060365536
1323A059263551A058003948A057601020A058190669A059388499A060532452A060916083
1316A060418394A059562674A058639513A057412961A056128203A056008159A057897978
1309A060813871A062743683A062793356A061789317A060927547A060743245A061338881
1302A062583773A063857641A064410545A064178608A063617680A062943459A062312543
1295A062271340A063057390A064019335A064626178A065218629A065986720A066221714
1288A065350073A063821978A062458507A061637558A061302326A061240107A061312324
1281A061608454A062255610A063179026A064205419A065146921A065780512A066121921
1274A066519372A067034829A067134622A066573631A066051487A066281640A066914658
1267A067141882A067003688A067230530A068060967A069222943A070785236A072680340
1260A073741823A072893299A070686526A068514651A067262881A067122777A067814447
1253A068636413A069056983A069444942A070332698A071030419A070197943A067875393
1246A065634867A064564214A064293685A064087413A063802809A063609274A063517760
1239A063300917A062693436A061811351A061259276A061435171A061887453A061792883
1232A060937991A059804545A058811268A057985161A057431939A057561663A058525327
1225A059782192A060583272A060700514A060428774A060039220A059476892A058613402
1218A057649674A057095179A057270946A057938863A058518195A058629896A058354336
1211A057932558A057387297A056769308A056612328A057458877A058933477A060040430
1204A060354901A060145509A059567259A058755290A058406812A059112620A060334777
1197A061031670A060990594A060826608A061098092A061880066A062760177A063109165
1190A062797751A062449973A062609437A063053760A063256083A063106681A062971417
1183A063176224A063401856A062952120A061947444A061432687A061919869A062892831
1176A064106327A065950548A068071603A069135821A068632463A067579072A066970318
1169A066861291A067058711A067390631A067333443A066566562A065802610A065933035
1162A066686542A067099214A066982035A067042408A067633712A068075806A067458836
1155A066030535A065179464A065535138A065908580A065010128A063403830A062785269
1148A063723714A065081263A065749498A065879604A065993725A066006653A065710905
1141A065228436A064493716A063141962A061127195A058908768A057153259A056484260
1134A057173319A058819101A060520033A061502230A061607372A061255264A060858959
1127A060428520A059998781A059944777A060433360A061197439A062050930A062947026
1120A063537375A063305184A062147793A060532006A059224831A058781591A058972070
1113A058899343A058027001A056770773A055863660A055659490A056114447A056794527
1106A056986279A056437834A055786666A055796410A056464581A057296101A057927718
1099A058117114A057812323A057454165A057483332A057508296A056780581A055456593
1092A054457266A054317480A054811603A055410932A055684008A055501108A055166513
1085A055026663A054904072A054394473A053549898A052789513A052330798A051979263
1078A051460430A050894217A050717431A050991144A051105839A050522940A049499349
1071A048845635A049052289A049747271A050221843A050224199A049988887A049729121
1064A049432609A049069038A048662543A048191920A047602589A046897672A046242748
1057A045992852A046349163A046947919A047285316A047337728A047417014A047746451
1050A048263437A048727819A048993572A049153419A049415860A049867124A050371564
1043A050740357A050964333A051159651A051306061A051231360A050867024A050318515
1036A049743450A049375230A049428215A049803695A050140519A050252411A050287310
1029A050406208A050444418A050179366A049758670A049440123A049165773A048774372
1022A048374820A048176444A048199307A048301838A048335590A048216374A047926995
1015A047489678A046994026A046591480A046302865A045953241A045408616A044683066
1008A043741436A042521636A041216944A040157627A039447552A038869748A038105351
1001A037123791A036160636A035317526A034554911A033876169A033271427A032588099
994A031627619A030374766A029112807A028239573A027882753A027701190A027153127
987A026072794A024699005A023287707A022014603A020813079A019288742A017072862
980A014264977A011179876A007786162A004012448A000197402I96605950I92816760
973I88014487I81966558I75133980I67459055I58324177I47513395I35292270
966I22223067I09905207I00503494H94859193H92947021H94713166H98683982
959I02906222I06741074I09478652I09870244I06564861H98320666H84994180
952H66914521H41830593H05495317G60191316G18052211F86407252F63834251
945F47542772F35101173F23758058F10875066E95811603E80789152E67382361
938E54481984E42245129E35102917E36299986E44624104E55468766E64395333
931E69973212E71660134E68892306E61357549E46945572E23229350D96137564
924D74071200D57312536D45159107D40861879D50260217D75475143E12097187
917E58261876F15480174F75003510G21132536G52106203G76107060G98622109
910H19376299H36146871H49004580H59333339H68628764H79691352H94547651
903I07182530I13683379I18128004I23989530I31196570I37474908I42296095
896I46427267I50230340I53848539I57725294I62370395I67060203I70402778
889I72567265I74389133I76065738I77258601I77827998I78016120I78124638
882I78339189I78555268I78499863I78039811I77211411I76044595I74440526
875I72077536I68351648I62593671I54267579I42640179I26383916I03728827
868H73211391H34858483G90939287G45585293G03954068F71241130F50971320
861F43836562F48755949F64248706F88386228G18556078G51659970G84389465
854H13517447H36343464H51437622H58148437H54700784H40338225H19112711
847G93891862G64117617G33945666G15514409G16556659G34456474G61197202
840G88897391H17024963H52649272H92115246I17437862I30332698I39760394
833I48420636I56432257I63931988I70779468I76717352I81862053I86342085
826I90240175I94134825I98279690A001482351A003307467A004640243A006285006
819A008211698A009661652A010408027A010964306A011796335A012898831A013990054
812A014891945A015585016A016145243A016653440A017100055A017362242A017292317
805A016908303A016368646A015719962A014840997A013777286A012888450A012156277
798A011236300A009903460A007944289A005002732A000498436I94262639I87113170
791I79628023I71465725I62541769I53903880I46034529I37531522I26443015
784I11188118H91495093H69543137H48586496H30403224H14911932H00366601
777G83385298G62189269G39328927G17133444F95498124F75268371F60801307
770F56647909F62219547F74571924F93398594G19943622G49017153G72342579
763G90753521H07675407H22900182H33789932H38081524H35845965H29824783
756H23901865H21127732H22465221H27363975H35349804H45488212H55394683
749H64009964H72646961H82462746H92736801I01681709I08551670I13614792
742I16933549I18356310I17993058I16081969I13119268I09867378I06376866
735I01783922H94900715H84737279H71056074H54574881H36748748H20260613
728H08948639H05159640H08400002H16382902H25322143H31201055H32048496
721H28425903H22731292H17962644H17206844H23893841H39697693H61435926
714H83391002I01619490I14395492I21448926I23650732I22385143I19229353
707I16404145I16433758I20588812I28413585I38251278I47861491I55700275
700I61486400I65387546I67616099I68760753I69640737I70818506I72366279
693I73904754I74993429I75529520I75684590I75599318I75265996I74629667
686I73736947I72754559I71770261I70580774I68802657I66261034I63044871
679I59111883I54050544I47212425I37947824I25741601I10336665H91953234
672H71491672H50399894H30152755H11911021G96644534G85057700G77111928
665G71983466G68558802G65781358G62808149G59314834G55834384G53623471
658G53782490G56156561G58904456G59016285G53389815G39968504G18534998
651F90747690F59436816F27936165F00057088E80323751E73230642E80741198
644E99768919F22748541F41561647F51660953F53175928F48647942F39924207
637F26762026F07667501E82062129E52371628E24270040E04386950D97273462
630E03863022E21621077E45146057E66611532E77190504E70358754E45029197
623E05720171D59810472D14193114C73477917C40029558C14690130B97434286
616B88016525B86591885B93922535C10931700C37863957C73569781D15347480
609D59457313E01904935E38916246E67069037E83508135E86460137E75838178
602E53666385E24077874D92616133D65066429D46550886D41023191D50622164
595D74834866E10142283E50704130E89974722F22449163F44567398F54568567
588F52076936F38109217F15317398E87886082E60890746E39400817E27554822
581E27629141E39353054E59958287E85061321F09942161F30711317F45121129
574F52842288F54987925F53016655F47735606F39241198F27945718F15674346
567F05564978F00771748F03222304F13349630F30433210F52721225F77425152
560G01392320G22466076G40388053G56365826G71783308G87213845H02253936
553H15886677H26995118H34858101H39444295H41374425H41710931H41758694
546H42735222H45243411H49012668H53325276H57682462H61944887H65966778
539H69363930H71660434H72502271H71710553H69307697H65720385H62046845
532H59877390H60375653H63278427H66921909H69372528H69467289H66903122
525H61824334H54684799H46364566H38133872H31359755H27023011H25170957
518H24718865H23990959H21618671H16941346H09770988H00146318G88357161
511G74953045G60571572G45661969G30229649G13837549F95961169F76359084
504F55206233F33124108F11165401E90703520E73362276E60708292E53135389
497E48750181E44304729E38345129E33476466E34599751E44039613E58266143
490E69768723E72355434E64734004E49682386E30934493E11123365D91615437
483D73133042D56331295D42181154D31980687D26834521D27040474D32009949
476D40649398D51597896D63125504D73172971D80024113D83324721D84524207
469D86271055D91135038E00162130E11773832E22147202E27871362E29168157
462E30034385E34126933E40392311E43558609E39144617E27537595E13827064
455E05253528E08632848E27749217E61150895F02400909F43301235F77606970
448G02537930G18061063G25666063G27678473G26911210G26121466G27213071
441G30734725G36234337G43275225G52192304G63869887G78743126G95942164
434H13349831H28505062H39516831H45330276H45565524H40525328H31421720
427H20391228H10121632H03266382H01717718H05866148H14293116H24228500
420H32599680H37290570H38162530H37149447H37036280H39628150H44591607
413H49545893H51015207H45524639H30383227H04260423G67915341G24909435
406F81572373F45785861F24813936F22857695F39450590F69823145G07206212
399G45505115G80750442H11075170H35951489H55415571H69634714H78825251
392H83305538H83419787H79336250H71090909H59082998H44673568H30299164
385H18771302H11832626H08762427H06276782H00004494G86140835G61995161
378G25981616F78234065F21538484E61258202E03799148D54476471D16005557
371C88389653C70065099C59366528C55406824C58198916C68303571C86195044
364D11595991D43266646D79312733E17514041E55523343E91212800F22980669
357F49702928F70666957F85733158F95258290F99583189F98665696F92225665
350F80107771F62597256F40661985F15951244E90401595E65639206E42483880
343E20760263D99546371D77761044D54709649D30267845D04748033C78750591
336C53164515C29124938C07732668B89728952B75459086B65170145B59334984
329B58613350B63463418B73766241B88613434C06266124C24472004C41068242
322C54409535C63438347C67634827C67101538C62787688C56597362C51135674
315C49092473C52405372C61544770C75549139C92892708D12184015D32089490
308D51135775D67931280D81593029D92341560E02173999E14638396E32994634
301E57879136E86572221F14609488F38042986F54154049F60749532F56052528
294F40018332F15615439E88555018E65641308E52536251E51677984E61584837
287E78320001E97933868F17739359F36066557F51819717F64327228F73068348
280F77345484F76250440F69042254F55948787F38843810F20771985F04320213
273E90318997E78029858E66379022E55031385E44357141E34350941E23786806
266E10690124D93608837D72496489D49053089D27166409D13164269D14176429
259D34127884D70557793E15771555E61196811F01077813F33368463F58416091
252F77264287F90585168F98214113F99236239F92402579F76429200F50752311
245F17415399E82151223E52221334E32764480E24852269E25719835E30611042
238E35391216E38440591E41051566E46350828E57145116E73944729E94558432
231F15073807F31289503F40182191F40821577F34305889F23025439F09568910
224E95627939E81982588E69978370E62636448E63586039E74545268E93595659
217F16120834F37611846F55783146F71103064F85549367G00179589G14946158
210G31566628G53464707G77710238G96018840H08103999H17626202H25838746
203H32233944H36501782H38689641H38720018H36375114H31233661H22820577
196H11303986G98336295G87234032G81691180G83703590G92388732H04433516
189H15727850H23232548H26116408H25434354H22833059H19508825H15867254
182H11581139H05796415G97433704G85613724G70292787G52900150G36197782
175G22804556G13419974G06496264F99384941F89622077F76121225F60662412
168F48026833F42675860F44159184F46602543F43827009F35024498F25022565
161F19357121F19755973F24170538F29884000F35300567F39096508F39122555
154F33235809F21716417F08645813E99985953E99117815F03899390F08969327
147F10986959F11173234F13247354F19791763F30618530F43951830F58531678
140F74196444F90989561G08389522G25401456G41142771G55183662G67434527
133G77990192G87059475G94768916H01081197H06136932H10515644H14903781
126H19597727H24461264H29220168H33631104H37496842H40801143H43797342
119H46715910H49499277H51994474H54088209H55431620H55515937H54249711
112H51910921H48396463H43195911H36361040H28928751H21936708H15631241
105H10209133H06438539H04798807H04434089H03708093H01565195G97852680
98G92852223G86995855G80873033G75285793G70865114G67280922G63253682
91G57891373G51645132G45276936G38709665G31731251G25244412G21105024
84G20659046G23737524G29213700G36033796G43304838G50135697G56085044
77G61320685G66206257G71334973G77565357G85169784G93181978G99809431
70H03356431H03474182H01911635H01627605H04522674H09716475H14681715
63H18045178H20696465H24263589H28938495H33116093H35185500H34541656
56H31349184H26488958H21063857H15923678H12048897H10629447H12392535
49H16816080H21899326H25452631H26696249H26288927H25329212H24830185
42H25791684H28566581H32098743H34990054H37216060H39769592H42979577
35H46112887H48080910H47601625H44564605H41366911H39606689H38443375
28H36553684H33895201H31647606H31283398H33979582H39392965H45082227
21H48585095H48982291H45390967H36735247H25111476H14287958H04858606
14G95956111G87750381G81005113G76034460G71727839G65702708G57613711
7G50735089G46988759G44626979G41226197G34780944G23416876G09499850
##END=


$$ === CHEMSPECTRA PEAK TABLE EDIT ===
##TITLE=JB-QP129F2.2
##JCAMP-DX=5.00
##DATA TYPE=INFRAREDPEAKTABLE
##DATA CLASS=PEAKTABLE
##$CSTHRESHOLD=0.93
##MAXX=3997.453
##MAXY=1.0049641173089388
##MINX=373.96442
##MINY=0.2420480709980295
##$CSSOLVENTNAME=- - -
##$CSSOLVENTVALUE=0
##$CSSOLVENTX=0
##NPOINTS=25
##PEAKTABLE= (XY..XY)
491.5365670445658, 0.6744977857159354
585.0276719233775, 0.5607417846808925
685.6014362627047, 0.526597203553425
713.9320741047691, 0.4912332610454522
742.2627119468334, 0.38669934988569216
781.9256049257228, 0.5163406755269278
838.586880609851, 0.2420480709980295
893.8316244018761, 0.3326415135519345
943.4102406254883, 0.5829610249472001
1017.0698990148553, 0.4728899023091766
1051.066664425332, 0.3994939644199262
1072.3146428068803, 0.4993050417472488
1174.3049390383107, 0.562289776276106
1196.9694493119623, 0.49376270409400297
1218.2174276935102, 0.4127737900883521
1243.7150017513682, 0.26823446248207644
1266.3795120250193, 0.46542099329215575
1287.6274904065672, 0.5365127946142844
1402.3665736669273, 0.7535857592327229
1463.277445027365, 0.614586832807895
1568.1008050430023, 0.6696826844775999
1592.1818472087566, 0.6025961067752428
1677.1737607349492, 0.41262281080430185
1698.421739116497, 0.5008273144886484
2954.8855274120406, 0.8466433317315107
##END=


$$ === CHEMSPECTRA PEAK TABLE AUTO ===
##TITLE=JB-QP129F2.2
##JCAMP-DX=5.00
##DATA TYPE=INFRAREDPEAKTABLE
##DATA CLASS=PEAKTABLE
##$CSTHRESHOLD=0.93
##MAXX=3997.453
##MAXY=1.0049641173089388
##MINX=373.96442
##MINY=0.2420480709980295
##NPOINTS=44
##PEAKTABLE= (XY..XY)
2954.8855274120406, 0.8466433317315107
2932.2210171383895, 0.8694965283135074
2840.146444151681, 0.9126015940500309
1735.2515683111806, 0.8357499871390512
1698.421739116497, 0.5008273126167568
1677.1737607349492, 0.41262281080430185
1592.1818472087566, 0.6025961067752428
1568.1008050430023, 0.6696826844775999
1463.277445027365, 0.614586832807895
1442.0294666458167, 0.7685310273950937
1402.3665736669273, 0.7535857592327229
1389.617786637998, 0.7648612888568499
1374.035935824863, 0.8577045831232167
1306.0424050039092, 0.7053506998551677
1287.6274904065672, 0.5365127946142844
1266.3795120250193, 0.46542099329215575
1243.7150017513682, 0.26823446248207644
1218.2174276935102, 0.4127737900883521
1196.9694493119623, 0.49376270409400297
1174.3049390383107, 0.562289776276106
1126.1428547068022, 0.8047986058891403
1072.3146428068803, 0.4993050417472488
1051.066664425332, 0.3994939644199262
1017.0698990148553, 0.4728899023091766
1000.0715163096165, 0.6796103146088989
973.1574103596558, 0.7503643068961529
961.8251552228303, 0.7834205656025356
943.4102406254883, 0.5829610249472001
893.8316244018761, 0.3326415135519345
838.586880609851, 0.2420480709980295
818.7554341204063, 0.32673162344318923
781.9256049257228, 0.5163406755269278
742.2627119468334, 0.38669934988569216
713.9320741047691, 0.4912332610454522
685.6014362627047, 0.526597203553425
645.9385432838153, 0.7316205533673086
609.1087140891318, 0.6015097526481122
600.6095227365126, 0.5796846775193282
585.0276719233775, 0.5607417846808925
491.5365670445658, 0.6744977857159354
467.4555248788115, 0.7502799660149809
444.79101460515994, 0.7587052019570892
433.4587594683344, 0.7719963226190675
407.96118541047645, 0.7780361800293265
##END=

##END=

