##TITLE=X8753
##JCAMP-DX=5.0
##DATA TYPE=LINK
##BLOCKS=1


$$ === CHEMSPECTRA SPECTRUM ORIG ===
##TITLE=X8753
##JCAMP-DX=5.00
##DATA TYPE=INFRARED SPECTRUM
##DATA CLASS=XYDATA
##ORIGIN=ComPlat
##OWNER=
##XUNITS=1/CM
##YUNITS=TRANSMITTANCE
##XFACTOR=1
##YFACTOR=9.8242714e-010
##FIRSTX=3997.453
##LASTX=373.96442
##MAXX=3997.453
##MAXY=1.054873107285849
##MINX=373.96442
##MINY=0.31665268554436365
##NPOINTS=2559
##XYDATA= (X++(Y..Y))
2559A017662342A017677874A017647782A017744551A018057067A018396095A018560513
2552A018680035A019019791A019519961A019773808A019475428A018797615A018242598
2545A018098808A018147102A018013384A017699837A017527653A017640440A017897503
2538A018217602A018675666A019219277A019601987A019682195A019557456A019363066
2531A019162489A019035079A018993460A018842026A018401192A017870989A017759355
2524A018320741A019200105A019823921A019920266A019542652A018907429A018310428
2517A018036438A018219422A018791304A019497877A019885806A019599076A018961304
2510A018737672A019275943A020197411A020751821A020492636A019634144A018814845
2503A018654310A019266236A020106648A020542022A020405876A019955456A019527726
2496A019277035A019202896A019258955A019279946A019019791A018503847A018057673
2489A017892649A017927595A018026003A018192605A018507487A018959241A019419976
2482A019788247A019909346A019524572A018736701A018072598A017825001A018111064
2475A019039206A020304312A021135018A020829237A019527848A018168094A017541062
2468A017760144A018342098A018686466A018441356A017844537A017628670A018111428
2461A018914709A019473973A019366220A018386024A017121462A016792262A017325741
2454A018100506A018994188A019990039A020704254A020586554A019706342A018862896
2447A018697385A019043210A019331517A019373259A019305065A019243424A019222796
2440A019172560A018942496A018515131A018106694A017889979A017809955A017766393
2433A017724651A017584805A017326530A017226969A017521647A018088130A018712797
2426A019252039A019618733A019801595A019774900A019343045A018424610A017673991
2419A017942642A019057771A020207604A020644677A020242186A019585122A019425557
2412A020052529A021038186A021685665A021666616A021146303A020441429A019860566
2405A019788490A020386218A021253083A021906993A022208042A022120312A021491034
2398A020397017A019458805A019226557A019591310A020066484A020383427A020657053
2391A021050443A021399785A021339721A020765774A019882530A019129241A019130940
2384A019948297A020792591A021297494A021652419A021993510A022097620A021654117
2377A020609730A019244030A018235438A018163483A018675181A019182873A019821859
2370A020653534A021190592A020992199A020380516A020273978A020996081A021937328
2363A022509332A022646449A022430582A021922281A021348822A020976789A020718816
2356A020360859A020185884A020500037A021101405A021558015A021669892A021682754
2349A021896558A022129048A022126622A022081119A022227456A022246022A021587015
2342A020373599A019556969A019640574A020193528A020784583A021234154A021542240
2335A021793296A021759806A020791742A018860712A017648328A018148680A019158363
2328A019674793A020125334A021195567A022343458A022703358A022191661A021445895
2321A020979822A020792713A020839066A021175789A021481812A021197994A020120481
2314A018456281A016953222A016574333A017263917A018349015A019348141A020005934
2307A020312443A020421408A020377118A020105433A019720175A019532094A019644700
2300A019805599A019718112A019428833A019292930A019506250A020060053A020718695
2293A020942934A020356733A019504793A019256528A019646399A020198866A020645040
2286A020978729A021123127A020926309A020438517A019851466A019288805A018949170
2279A019141254A019913472A020916238A021789534A022362267A022587598A022579954
2272A022487492A022181953A021360349A020235513A019584272A019661081A020085898
2265A020456111A020538139A020262693A019789461A019453465A019468026A019749660
2258A020114050A020458417A020660572A020553184A020195834A019800988A019399225
2251A019046608A018986301A019259319A019450311A019160426A018480913A017781864
2244A017242986A016788380A016340386A015881351A015402537A014962552A014702517
2237A014711011A014938041A015200928A015236360A014893812A014343407A013970767
2230A014066263A014664841A015509864A016177182A016445225A016485147A016560864
2223A016707566A016814165A016834793A016825267A016893886A017105688A017403703
2216A017725137A018150741A018771526A019449098A019865785A019736070A019023795
2209A018128172A017591782A017499138A017486458A017329563A017206098A017287518
2202A017389991A017225937A016778733A016340629A016254901A016547516A016807127
2195A016653690A016331528A016409672A016968754A017637528A018161299A018393668
2188A018095895A017336965A016719822A016741542A017305537A018079514A018821883
2181A019257256A019263566A019233352A019657927A020389495A020812371A020653534
2174A020160281A019616306A019177171A019023066A019180933A019350204A019341953
2167A019372895A019593736A019737890A019530517A019077549A018663046A018478365
2160A018640599A019176442A019906192A020528674A020876439A021013676A021070100
2153A021041342A020840886A020523335A020288174A020198989A020080558A019817612
2146A019626256A019792493A020189403A020402115A020333921A020276769A020337318
2139A020288418A020059446A019880710A019875370A019897576A019768347A019414637
2132A018874302A018325596A017972734A017846418A017842535A017920799A018107302
2125A018331056A018391970A018144918A017665133A017151980A016732259A016460575
2118A016400936A016505290A016557891A016447288A016301314A016195080A016011429
2111A015731798A015535891A015541352A015739260A016114873A016521125A016590532
2104A016087571A015199593A014301787A013644418A013336453A013387478A013657948
2097A013902087A013916830A013631496A013123681A012607736A012308933A012263430
2090A012288062A012220596A012119336A012160593A012426755A012828882A013143702
2083A013172036A012984623A012901444A013067439A013232100A013118827A012777736
2076A012362080A011796264A010965074A010074245A009490349A009259436A009120561
2069A008972038A008942431A009020393A008989815A008738153A008349313A007987715
2062A007889307A008278207A009095686A009949081A010438391A010475279A010274701
2055A010064113A009868996A009610902A009258344A008771339A008101776A007327678
2048A006620681A006112745A005885229A005886382A005859687A005647218A005437843
2041A005431776A005542257A005644427A005707343A005579752A005121081A004597127
2034A004514312A004974257A005443910A005291687A004503330A003717037A003475567
2027A003662372A003846266A003856094A003710666A003279722A002395809A001213335
2020A000208748I99758449I99810322A000027827A000194490A000352962A000558636
2013A000662019A000405382I99676301I98623359I97566959I96836361I96624923
2006I96861115I97218526I97400842I97415524I97438337I97484810I97362923I96884473
1998I96021916I94947011I94010557I93562868I93646533I93906082I93941696I93697678
1990I93378307I93058451I92629205I92125394I91823618I91904977I92208513I92405633
1982I92296243I91944413I91648400I91692690I92017522I92266757I92232842I92057443
1974I91884046I91590096I91058862I90457857I90005678I89671321I89332778I89035916
1966I88887029I88871194I88972575I89326711I90038501I90883160I91415728I91469482
1958I91323326I91178626I90747500I89726228I88446741I87631204I87646493I88279957
1950I89026815I89397028I89196572I88671830I88224080I88013370I87949726I87864848
1942I87563314I86968194I86334609I86035380I86092896I86240812I86414027I86779932
1934I87304917I87715537I87907257I88034059I88186100I88244040I88074708I87694363
1926I87244003I86858137I86553691I86257739I85933150I85600431I85252242I84852239
1918I84379067I83782431I82996986I82114590I81389089I80935817I80600065I80228942
1910I79877051I79642983I79499739I79356010I79104590I78585005I77693023I76586752
1902I75655394I75153647I74872498I74286540I73087017I71491860I70006093I68954547
1894I68257136I67629496I66978863I66521405I66451148I66627154I66739456I66684306
1886I66602946I66641776I66842657I67200675I67672087I68151751I68553695I68867423
1878I69065271I69064058I68845521I68453891I67854403I67019269I66102230I65228025
1870I64185943I62664137I60716968I58698572I56791567I54876190I52885277I51082445
1862I49867815I49327602I49032560I48324228I46872619I44976959I43224301I41887359
1854I40757487I39476787I37913300I36310317I35128571I34621303I34568701I34485885
1846I33988870I32992413I31770139I30803471I30359179I30218786I29858766I28815653
1838I26927274I24326681I21146438I17282497I12603079I07214055I01344883H95224048
1830H89220005H83857495H79583236H76625474H75005867H74608352H75383179H77498466
1822H81139321H86154431H91939634H97613507I02389877I05960293I08532250I10484879
1814I12093323I13505861I14678749I15314639I15140393I14239977I12866936I11079028
1806I08910472I06699264I04781096I03016243I01058032H98991705H97347345H96590234
1798H96906632H98392096I01105962I04844072I09072888I13271186I17297300I21322020
1790I25460679I29601461I33519157I36995594I39832925I41862909I43019537I43500353
1782I43877726I44824979I46549061I48631344I50568441I52254422I53841085I55455050
1774I57167848I58895813I60273040I60994962I61245229I61352677I61154344I60222198
1766I58653190I57108572I56051808I55377998I54845612I54514046I54624285I55264726
1758I56260212I57264193I57945587I58162667I57944677I57359507I56557135I55889696
1750I55750578I56319063I57572643I59380876I61476567I63541740I65407853I67029705
1742I68377446I69575027I70981740I72863749I75074653I77192004I78872585I80026301
1734I80805436I81478396I82207356I82919085I83456992I83835821I84236916I84737450
1726I85161903I85298837I85214444I85223484I85578711I86314648I87336951I88487573
1718I89542941I90321045I90802285I91085739I91309251I91646338I92252682I93132044
1710I94105265I94917647I95388998I95544376I95596856I95732152I95965371I96267815
1702I96704099I97328462I98026358I98566935I98820357I98872048I98882544I98887034
1694I98841713I98802095I98868469I99010135I99151498I99361844I99733998A000129815
1686A000295203A000196310A000031467I99945679I99940097A000004408A000099419
1679A000059315I99787146I99518556I99624548A000165611A000879524A001559644
1672A002180185A002717789A003170150A003693982A004412506A005146502A005614516
1665A005813152A005935040A006058808A006171899A006342323A006654414A007091122
1658A007588987A008104446A008582593A008960329A009180807A009152413A008803616
1651A008295680A008045474A008347372A009027128A009628557A009891201A009888956
1644A009796433A009726844A009759788A009939010A010231322A010568227A010906163
1637A011189132A011299613A011150788A010818797A010484562A010233688A010048096
1630A009962247A010047368A010247339A010409876A010466785A010453680A010424619
1623A010433962A010529337A010706556A010920967A011155338A011435637A011744512
1616A011962806A012011585A012059940A012395874A013015990A013556506A013724625
1609A013617845A013519497A013511792A013414840A013096197A012715548A012557986
1602A012739999A013218631A013928965A014735401A015418129A015851076A016072525
1595A016148303A016115176A016052018A016079745A016260119A016518030A016697252
1588A016740814A016769511A016937508A017295041A017801885A018302784A018491226
1581A018113005A017279449A016467188A016156190A016451475A017067769A017709544
1574A018361391A019056436A019533187A019465235A018961667A018501056A018404710
1567A018638414A019025615A019405536A019681467A019885198A020106891A020353942
1560A020599659A020865640A021102134A021172998A021108080A021175909A021592232
1553A022272717A022902359A023202921A023170281A023033164A023006712A023223307
1546A023781842A024566436A025169505A025319362A025157127A024868093A024498606
1539A024325695A024768592A025658026A026214499A026024599A025494215A025201054
1532A025299219A025617013A025944271A026157590A026255755A026286819A026318610
1525A026528410A027051392A027645359A027861105A027578257A027047508A026547824
1518A026319096A026531321A027053819A027538700A027807956A027877728A027770948
1511A027609805A027570369A027460799A026798879A025614586A024713746A024752454
1504A025373359A025652202A025260390A024826472A025066242A025872316A026535689
1497A026676811A026540908A026435582A026378553A026332200A026330623A026360352
1490A026459730A026818902A027485915A028149047A028457013A028400589A028251218
1483A028207171A028173559A027939006A027589664A027530933A027980019A028606142
1476A028810724A028313344A027436894A026815503A026836011A027401463A028129512
1469A028640602A028806599A028838147A028931580A028862657A028308370A027495865
1462A027057459A027283155A027923596A028658562A029360402A029908744A030137352
1455A030107017A030159800A030504168A030938207A031117428A030938692A030541784
1448A030104590A029786311A029774783A030172420A030764324A031084302A030865523
1441A030290970A029711443A029327518A029195740A029302643A029560130A029901464
1434A030392048A031102746A031889889A032441385A032600343A032549987A032581415
1427A032729450A032765368A032540158A032222364A032160481A032554841A033291506
1420A034064693A034615342A034916997A035226419A035861035A036800705A037691110
1413A038399258A039247559A040453451A041709701A042599499A043098092A043454229
1406A043823836A044231422A044785953A045578072A046202617A045850484A044271829
1399A042182084A040418748A039206302A038407146A037980509A038019703A038571078
1392A039461969A040350675A040979710A041219844A040984199A040361596A039722854
1385A039426052A039421925A039325581A038880863A038210329A037636142A037408141
1378A037547927A037886833A038293571A038723362A038986674A038873704A038544141
1371A038291023A038031716A037550353A037048362A036923139A037234865A037752144
1364A038251587A038600201A038799080A038989101A039238215A039426536A039481019
1357A039530648A039649321A039639734A039313082A038860114A038700307A039039215
1350A039763746A040646748A041448331A041916346A041880914A041392514A040823664
1343A040759231A041494804A042651432A043565621A043982429A044112872A044213585
1336A044438431A044924768A045665802A046366671A046749261A046977626A047463114
1329A048272825A049104137A049742394A050066619A049767269A048639642A047094114
1322A045992575A045952653A046869146A048052227A048917999A049564022A050447510
1315A051542861A052235236A052148962A051557301A050758508A049745792A048911811
1308A049104137A050278482A051158207A050998159A050546161A050656581A051197280
1301A051685679A051874730A051622947A051004468A050409894A050098167A049895042
1294A049497406A048883417A048342112A048079528A047989251A048134011A049073802
1287A051026431A053141173A054394753A054772974A054817992A054642168A054239072
1280A054147823A054870412A056064048A057077009A057761012A058178791A058198447
1273A057764167A057055895A056512891A056931762A058740360A061064052A062590772
1266A063285209A064112273A065429316A066571990A066450648A064421089A061478919
1259A059756839A060225460A061917205A063142512A062886724A061390097A059499716
1252A057496972A055198641A053171507A052630202A053847502A055565942A056271786
1245A055551260A054083268A052738683A051903367A051401862A050695897A049334201
1238A047602899A046546499A046893292A048098215A048932924A048929648A048682597
1231A048689270A048603360A047981241A047138039A046673058A046607047A046534849
1224A046269840A045891982A045491555A045188444A045179707A045510362A045943431
1217A046269355A046632893A047272729A048067637A048743753A049366478A050123770
1210A050742127A050686795A049983136A049420718A049804885A051163426A052786977
1203A053975275A054661340A055360632A056538251A057961831A058809646A058553979
1196A057461419A056189881A055295350A054990783A054902446A054456880A053892641
1189A054155466A055489254A057048858A058064244A058471952A058481538A058393687
1182A058661488A059474719A060471055A061147291A061363523A061324207A061165129
1175A060825615A060525780A060964794A062470644A064329717A065639844A066435966
1168A067424292A068803219A069706608A068870321A065916139A062019860A059075505
1161A057904680A057694395A057846436A059162750A062030415A065053520A066791133
1154A067312053A066953003A065575897A063787078A062751914A062682627A063153433
1147A064471445A067229297A070822223A073482395A073741822A071751820A069237622
1140A068115698A068881728A070111161A070057285A068788415A067895584A068274898
1133A069268443A069913981A069961911A069609899A069079150A068460551A067769268
1126A067078590A066333432A065365005A064429097A064022602A063978677A063549856
1119A062457660A061130667A060042234A059299623A058735992A058194565A057596473
1112A056797073A055742980A054837771A054635616A055002917A055091375A054390991
1105A053339444A052828475A053161314A053620351A053402179A052567834A051638235
1098A050804132A049946491A049139812A048875772A049524343A050525169A050807046
1091A050062736A049061304A048588072A048672767A048865823A048739263A048347572
1084A048201598A048576180A049202303A049542545A049042981A047570865A045771126
1077A044563656A044409795A045166845A046229919A046959182A047241665A047387639
1070A047621586A048013762A048512961A048755887A048372205A047521115A046713101
1063A046335365A046413872A046526478A046247271A045775130A045612654A045848421
1056A046193274A046451246A046581324A046538854A046212810A045482818A044469737
1049A043481046A042619885A041872783A041351258A040970852A040353223A039348151
1042A038181451A037068870A035989779A034710960A033105368A031460218A030044767
1035A028840453A027847514A027132205A026548673A025815891A024763859A023430923
1028A022130990A020959922A019366828A016947883A014132636A011352882A008426426
1021A005113982A001338438I97040700I92228110I86632563I79542391I70670317
1014I60501344I49231803I36447736I21559485I03611059H81514388H55342823
1007H26790536G97820773G69139985G39308575G05363624F67181910F30672343
1000F00073023E72900936E45419671E17526814D92504021D72936594D59124552
993D50744519D47418606D48622952D54987744D69235645D92835041E21329595
986E49729664E76992029F01320718F20010966F32211440F37305118F34041150
979F22338420F02395623E75619777E46813097E19105893D91041763D63754584
972D46739062D47847154D62893817D82173633D97784838E06113483E08191883
965E08127451E10135594E17309795E34226266E64669182F00978717F33542194
958F63233211F90714901G13330854G30148740G42190378G50320448G55706074
951G60267669G65963808G73234597G79580096G82382238G80691282G74171233
944G63638357G52095675G44891503G47241222G59190277G78397197H06616220
937H42390820H73218262H93928484I10116729I23199538I32144296I38649055
930I44376319I49165004I52554682I54659534I55360707I54672275I53169399
923I51047802I48290617I44649094I39653703I33651783I27368411I19612134
916I07756452H91683846H74828162H57929462H37629800H11275616G81978231
909G55471520G32943359G13015426F93384477F65978140F21356402E77876124
902E51499674E30221144E03404623D74455215D55488308D48323966D48819950
895D54515907D64222538D78402275D97783260E16445418E26493777E28754675
888E26401740E20951560E13991339E08069692E05691457E08507584E15879541
881E25194330E35522923E48128076E62645265E75570997E86392788E98444376
874F14570251F35067761F57870337F80561096G01952590G21823492G40024976
867G56272132G70620656G83643220G95962608H07756649H18795155H28855467
860H37894385H45925137H52902826H58654418H62957677H65709037H66874159
853H66441455H64454183H60700541H54890340H48297365H42861140H38199317
846H32828677H26235944H19407870H12717822H05125963G96342650G87062323
839G76112638G59002015G38091822G26885197G25107178G27528429G32703466
832G40373348G49812754G59508252G68475458G77279338G86680825G96651343
825H08372639H22792330H35027447H42522172H48075068H54354132H61570621
818H67715906H71959950H75275245H78498382H81470827H83838565H86027629
811H88640781H91442862H94031260H96611347H99216733I01315761I02521411
804I03003744I03268390I03927154I05523888I07586999I09004148I09798996
797I10281571I10488216I10324587I09740266I08810304I07612541I05968241
790I03438390H99802753H95845682H92775739H90827417H89841335H89974689
783H91371998H93679188H96158257H98144741H99018279H97763668H92931420
776H84242572H73606434H62071276H48271338H29888691H06802358G83396168
769G63666933G47108899G31145561G14932381G02539216F96515880F93879976
762F92361204F91430574F91126735F91440463F92097225F93001948F94547233
755F97067013G00352519G03841455G06434464G05707749F99866607F90650772
748F81823170F78032398F82475685F92883943G04407999G14607489G22911259
741G29014317G32758070G34103627G33666069G32702920G31050915G26885925
734G18270003G04701585F88067045F71758551F58916969F51890986F51313340
727F54751736F58343508F59206793F56724023F53109195F51952082F55474386
720F62649255F70583904F76963196F80868394F83465408F87010463F91320760
713F93008197F87960265F74344826F54334321F32417903F12142448E94827850
706E79895794E65493638E50094538E34591873E22176503E15466065E15390777
699E22344319E35967766E55114926E79291452F08379099F41051601F74276875
692G04621924G29926564G49399040G62844236G70628968G73941412G74420772
685G73378144G71214745G67546406G62305904G56693066G52337509G50056712
678G49894053G51831818G56191440G63182901G71950681G80309480G85711245
671G86778080G84224931G80407464G77638448G76320132G74592652G70006486
664G61662612G51225049G42000478G36913413G37110593G41449345G46676923
657G48627611G44100962G32224592G14320516F92667652F69587204F47499633
650F29073910F16242096F08418171F02048222E92820253E78755183E61138505
643E43008977E27625773E18123208E17330423E26788941E45406505E68972926
636E91339825F07085476F14473663F16503890F18657704F25039241F35952827
629F48293086F58069701F63196687F64672687F65353292F67453776F71075701
622F74662074F76356427F74969736F70178198F62324059F52148716F40564536
615F28552141F17210584F07796841F01625953E99843748F03052324F10782573
608F21146056F31250415F38494873F41952987F42778899F43308191F45500530
601F49792565F55070318F59507842F61341374F59101408F51722200F39101945
594F22892890F06485381E93523306E85902083E83045337E82950873E83733283
587E84364017E84529588E84270523E83739472E82890687E81090827E77139823
580E70021500E59875885E48198151E36703157E25531351E12616241D95489419
573D74168303D51971100D33161361D19893324D11338922D05139064C99271105
566C92922937C86318070C80044497C74462813C69555940C65175478C61322184
559C58089735C55300728C52272770C48071984C42160281C34989781C28044582
552C23252498C22316712C26441598C36240934C51526792C71175517C93342384
545D15918354D36944610D54862428D68660941D77908324D82530984D82483327
538D77647379D67879167D52925816D32680120D08326495C83452527C63321590
531C52149244C50623616C56007816C64643061C74426774C85372607C98573573
524D15000041D34899640D57633537D81722940E05314145E27060619E46571324
517E63630073E76834588E83311864E80304594E67724260E49806109E34195026
510E28268034E34953593E51383611E71399334E89471892F02904469F11525062
503F16174387F17419777F15392037F10778447F05501483F01688505F00110154
496F00293440F01846795F04768701F08509905F11504919F11888238F08348460
489F00104329E86616360E68534944E49449365E35593548E32401961E41074670
482E58460981E79496156E99406190F14655676F23190420F24268115F17860429
475F03953164E82324629E53113214E17703002D78974310D40652537D06435144
468C79470884C62067131C55464509C59893902C74871067C99251751D30941841
461D66754876E02814660E35373738E61619139E80182889E91301602E96472636
454E97444339E94970244E88237787E75428239E55009116E26963976D93322136
447D57798743D24727846C97616460C77975804C65429385C59193428C59210779
440C65502038C76955473C91701118D08812074D29009112D53349541D81552971
433E11924649E42590166E72319770F00378743F26272557F49816591F71091051
426F90224742G07359026G22672762G36258836G48122890G58361877G67124076
419G74354762G79719942G82783272G83272218G81429585G78323603G75663371
412G74858997G75943548G77433623G77262410G73870306G67119405G59169588
405G54032833G54551508G59019731G61411253G55519875G39350620G16662773
398F95174812F82580949F82731534F94449311G13240333G33951950G52718036
391G67793761G79254112G87807239G93650323G96375534G95871359G93028750
384G89342817G85936394G83253288G81582050G81337183G82571955G84645016
377G86893597G89595207G93736233G99399973H04312367H04249694G95618969
370G78703888G58865506G43816841G38654665G43128895G53338456G65281929
363G76830738G87685837G98511874H09846637H21279079H31574975H39491605
356H44266579H45379464H42030314H32995521H17184770G94381891G65297885
349G31055222F93154414F54287726F19101086E93659148E83266179E89779796
342F10260258F38023946F65631164F88035921G03922207G14439370G20602917
335G21861836G16977654G05702713F89342042F70298448F51543282F36000393
328F25816313F22190019F25471521F34607755F46760117F58313962F66110827
321F67544721F60723260F45621508F24479614F00413690E76058427E53741581
314E36313225E27055948E28252194E39427154E56852720E75022958E89246257
307E97643582F01271453F02490512F03163715F04182621F06135068F09808624
300F15781301F23523563F30971754F35042401F32817299F22997304F07128249
293E89440829E74583823E64950330E60192405E58973892E60606422E65003478
286E71634676E79013095E85337298E89543544E91730787E92940260E94835373
279E99256576F07361528F18628279F30525399F39679774F44214491F45119700
272F45090275F46181924F48557065F50854608F51595580F50873901F50863526
265F54106684F61104515F69914098F78170849F85182816F91905748F99315716
258G07343252G15204732G22281071G28865006G36329335G46083259G58098020
251G70948885G83244006G94288944H03554285H10446003H14760001H16815103
244H16969632H15286442H11843798H07354098H03293219H01001743H00377805
237G99220570G93379124G77946474G50678102G16324109F86420865F72216070
230F76731312F93873909G14645287G32967384G46608547G55569504G60992988
223G64350086G66016652G64403355G57088155G43452573G26925179G14732531
216G14182065G27491480G49931548G73282466G91196371H01963618H06135646
209H02554309G90559388G74386857G56927377G38632217G22134673G11625943
202G08510558G10714789G15556987G21416755G27244975G31835570G34516613
195G36216124G38734751G42492822G45360791G44345890G38944915G32410426
188G28661274G28201146G28630999G29319067G33581433G45011510G63055007
181G83539715H02494609H18155139H30191802H38812577H44783616H49135047
174H52098088H52727972H50547464H47565251H47364188H51693171H58542844
167H63786682H64412866H60041595H52024252H41776528H29658809H15014272
160G97650106G79506138G64224255G54876886G52538148G56531379G64456199
153G71198363G69091084G51227233G17550205F79073084F53694123F54693371
146F81382761G21140278G59149566G84636037G92649497G85046960G69854080
139G57644384G55942932G65941966G84473924H07371146H30432604H49719975
132H62866488H69787450H71605632H68986049H61348020H47677553H28832533
125H09083337G93665369G83959375G77015541G70491731G65122000G61127010
118G55229504G43585564G26883559G11126623G03469118G07634351G22536435
111G44007590G67347770G87967410H00229647G98352310G80009888G48751743
104G14206697F88906790F80891631F88882461G05287968G20881032G27656444
97G23345905G14333196G10633308G17098329G30923142G45745202G55356246
90G56604305G51531862G45461748G42562411G42927771G43869018G43832676
83G44145313G47334473G55311956G68923512G87472579H08459035H28858015
76H46805895H61823497H74202950H84671393H94061839I02731150I10481421
69I17349720I23651596I28949856I32390376I34478484I37053838I40947447
62I44889533I47094856I47058393I45853410I45370895I47739969I54315349
55I63748567I72486801I78197986I81444299I83735107I85087278I85004583
48I84615441I85030490I84620112I80104809I70421081I58286071I47449173
41I40121596I36530188I35043632I32283596I24169300I09394200H91044133
34H72408550H55209712H42736765H36215442H31151007H23096534H12558257
27H05589488H08249842H20893516H39187766H58739539H77262882H94309072
20I11735911I33021656I57264253I75037159I81936339I84624177I87779484
13I88294094I80605343I65089938I49231500I40279644I37583130I34722441
6I29205099I23547364I19595875I13482745H96714366H74032707
##END=


$$ === CHEMSPECTRA PEAK TABLE EDIT ===
##TITLE=X8753
##JCAMP-DX=5.00
##DATA TYPE=INFRAREDPEAKTABLE
##DATA CLASS=PEAKTABLE
##$CSTHRESHOLD=0.93
##MAXX=3997.453
##MAXY=1.054873107285849
##MINX=373.96442
##MINY=0.31665268554436365
##$CSSOLVENTNAME=- - -
##$CSSOLVENTVALUE=0
##$CSSOLVENTX=0
##NPOINTS=46
##PEAKTABLE= (XY..XY)
410.79424919468283, 0.7914329767099043
491.5365670445658, 0.7307614085212266
507.11841785770093, 0.6981454483671791
517.0341411024233, 0.6689264176932653
534.0325238076621, 0.6911071536750625
568.0292892181387, 0.7426588526879745
582.1946081391711, 0.6422068476936982
593.5268632759967, 0.7393139004805367
637.4393519311961, 0.7154045692095025
658.687330312744, 0.6960600011557441
678.5187768021888, 0.7016318435572441
699.7667551837371, 0.6604033111121398
749.3453714073494, 0.6394259923784956
781.9256049257228, 0.5491511220522288
815.9223703362, 0.5177940725257644
835.7538168256447, 0.6112563609027156
859.8348589913994, 0.5730165240936981
892.4150925097729, 0.7256743899836081
910.8300071071149, 0.7676068540703466
934.9110492728691, 0.6705860495445558
946.2433044096947, 0.7407823195902876
998.6549844175133, 0.3528813721768359
1032.6517498279904, 0.34921798094837425
1058.149323885848, 0.5230461358756215
1094.9791530805314, 0.5189848537960428
1123.3097909225953, 0.3444621562833382
1153.0569606567628, 0.31665268554436365
1206.8851725566847, 0.5727067589218932
1238.0488741829554, 0.5893027777945207
1279.128299053948, 0.5082394479028802
1308.8754687881155, 0.7239637367612288
1332.9565109538698, 0.7367162697917984
1364.1202125801406, 0.5063338870304878
1395.2839142064108, 0.6404954193363055
1403.7831055590304, 0.6398679018600476
1430.6972115089911, 0.6661174295944817
1449.1121261063327, 0.6789816616435879
1555.352018014073, 0.7123649710760109
1624.7620807271305, 0.49680501182294295
1643.176995324472, 0.4404456317108372
1706.9209304691162, 0.7318016289025914
1739.5011639874901, 0.4991981984414201
1749.4168872322125, 0.43888857900694267
1777.7475250742764, 0.43955618147536685
2920.888762001564, 0.8808345793405508
2957.718591196247, 0.8592389818754732
##END=


$$ === CHEMSPECTRA PEAK TABLE AUTO ===
##TITLE=X8753
##JCAMP-DX=5.00
##DATA TYPE=INFRAREDPEAKTABLE
##DATA CLASS=PEAKTABLE
##$CSTHRESHOLD=0.93
##MAXX=3997.453
##MAXY=1.054873107285849
##MINX=373.96442
##MINY=0.31665268554436365
##NPOINTS=66
##PEAKTABLE= (XY..XY)
3215.5273955590305, 0.9791113727556102
3198.5290128537918, 0.9761031268194374
3185.780225824863, 0.9743944404161925
3177.281034472244, 0.9742223014975759
3156.033056090696, 0.9714938989498051
3139.034673385457, 0.9702756991204765
3119.2032268960124, 0.9687079183122131
3049.7931641829555, 0.9494678372793567
3044.1270366145427, 0.9496169677543544
2957.718591196247, 0.8592389818754732
2920.888762001564, 0.8808345793405508
2867.0605501016416, 0.9377405043016084
2851.4786992885065, 0.9389553068978869
2814.6488700938235, 0.9679014085056101
1777.7475250742764, 0.43955618147536685
1749.4168872322125, 0.43888857900694267
1739.5011639874901, 0.4991981984414201
1706.9209304691162, 0.7318016289025914
1643.176995324472, 0.4404456317108372
1624.7620807271305, 0.49680501182294295
1555.352018014073, 0.7123649710760109
1484.525423408913, 0.8742042777978318
1449.1121261063327, 0.6789816616435879
1430.6972115089911, 0.6661174295944817
1403.7831055590304, 0.6398679018600476
1395.2839142064108, 0.6404954193363055
1364.1202125801406, 0.5063338870304878
1332.9565109538698, 0.7367162697917984
1308.8754687881155, 0.7239637367612288
1279.128299053948, 0.5082394479028802
1238.0488741829554, 0.5893027777945207
1206.8851725566847, 0.5727067589218932
1153.0569606567628, 0.31665268554436365
1123.3097909225953, 0.3444621562833382
1094.9791530805314, 0.5189848537960428
1076.56423848319, 0.5895645022791796
1058.149323885848, 0.5230461358756215
1032.6517498279904, 0.34921798094837425
998.6549844175133, 0.3528813721768359
956.1590276544171, 0.7612425083259785
946.2433044096947, 0.7407823195902876
934.9110492728691, 0.6705860495445558
910.8300071071149, 0.7676068540703466
892.4150925097729, 0.7256743899836081
859.8348589913994, 0.5730165240936981
835.7538168256447, 0.6112563609027156
815.9223703362, 0.5177940685960558
781.9256049257228, 0.5491511220522288
757.8445627599685, 0.6337541939100635
749.3453714073494, 0.6394259923784956
699.7667551837371, 0.6604033111121398
678.5187768021888, 0.7016318435572441
658.687330312744, 0.6960600011557441
637.4393519311961, 0.7154045692095025
613.3583097654414, 0.8324735757552623
593.5268632759967, 0.7393139004805367
582.1946081391711, 0.6422068476936982
568.0292892181387, 0.7426588526879745
534.0325238076621, 0.6911071536750625
517.0341411024233, 0.6689264176932653
507.11841785770093, 0.6981454483671791
495.7861627208754, 0.7295134657102346
491.5365670445658, 0.7307614085212266
454.7067378498823, 0.9287580246140903
440.54141892885036, 0.9673129317014687
410.79424919468283, 0.7914329767099043
##END=

##END=

