##TITLE=X9290
##JCAMP-DX=4.24
##DATA TYPE=INFRARED SPECTRUM
##DATE=5/11/2018
##SAMPLING PROCEDURE=ATR platinum Diamond 1 Refl
##ORIGIN=ComPlat
##XUNITS=1/CM
##YUNITS=TRANSMITTANCE
##RESOLUTION=4
##FIRSTX=3997.453
##LASTX=373.96442
##DELTAX=-1.4165319
##MAXY=0.92361009
##MINY=0.4463262
##XFACTOR=1
##YFACTOR=8.6017893e-010
##NPOINTS=2559
##FIRSTY=0.92114592
##XYDATA=(X++(Y..Y))
3997+1070877099+1070818061+1070989978+1071241097+1071353698+1071372338
3989+1071547997+1071980318+1072495028+1072852028+1072962204+1072934417
3980+1072875518+1072622736+1071942345+1071028851+1070397589+1070254706
3972+1070429187+1070785563+1071244839+1071605580+1071600105+1071024278
3963+1069993401+1069158140+1069110050+1069598083+1070022227+1070304459
3955+1070524950+1070240986+1068912426+1066874579+1065496889+1065820212
3946+1066996812+1067354435+1066897792+1067249594+1068964049+1070644481
3938+1071045343+1070109468+1068258089+1066067035+1064562746+1064700778
3929+1066066480+1067071788+1066712987+1065592029+1065083693+1065408194
3921+1065449770+1064564132+1063639274+1064307539+1066985517+1070301410
3912+1072741297+1073741823+1073118460+1070403895+1065390801+1059179141
3904+1054190577+1052236367+1053046267+1055732076+1059554919+1062952439
3895+1064116151+1062636392+1060320333+1060069560+1061996538+1063055894
3887+1061688875+1059342673+1057855431+1056978801+1056733572+1058857551
3878+1062793896+1064937277+1063385037+1059291535+1054949547+1052153492
3870+1052353126+1055185352+1057334068+1056698371+1055079818+1055853132
3861+1059260699+1062262485+1062405091+1059094187+1052860076+1045995812
3853+1044457985+1050744274+1058765391+1064319249+1066603296+1065760342
3844+1062516723+1057978912+1053144872+1049165634+1047909970+1050359142
3836+1054439894+1057651224+1059898544+1061972632+1063613012+1063964537
3827+1063039333+1061471156+1059015540+1054851705+1050183137+1048617178
3819+1050602916+1053302653+1056642590+1061679313+1066491733+1068588480
3810+1067594121+1064541265+1061300417+1059421044+1058027833+1055648231
3802+1053685637+1054838747+1058083614+1060960118+1063803569+1067341339
3793+1070494877+1072186396+1072679695+1072512144+1071667597+1070291917
3785+1069220019+1068744043+1067879055+1066282537+1065711213+1067778787
3776+1071136256+1073212145+1072759382+1070060339+1066628795+1064405381
3768+1063940700+1064498719+1065682803+1066770292+1066252602+1063838007
3759+1061652982+1061852408+1063025474+1061732877+1056206389+1047861881
3751+1041920880+1042357359+1045089871+1045779617+1045952573+1049341016
3742+1054873532+1057990345+1056982543+1052349454+1046020411+1042132363
3734+1044512173+1051892465+1059633844+1064405589+1065148968+1062576523
3725+1059035912+1057338711+1058621261+1062137550+1066370609+1069585749
3717+1070282008+1067717740+1062262139+1056034126+1053327598+1056855736
3708+1063557647+1069015396+1071301243+1070488086+1068231550+1067207395
3700+1068511703+1070460646+1071309697+1070727980+1068601645+1064166250
3691+1057407519+1051584733+1051886921+1057849888+1063970011+1067498842
3683+1068447121+1067001663+1063062061+1056594293+1048300299+1041757833
3674+1041720415+1045523786+1047474046+1047718236+1050452064+1056355092
3666+1061877284+1064815043+1065193107+1063913052+1061563940+1058124635
3657+1054077075+1050922774+1048739203+1044819211+1036780772+1025912116
3649+1019402980+1023316804+1032364709+1039528598+1043154024+1044385505
3640+1044634475+1044243453+1042652895+1039725876+1036241185+1032770075
3632+1028624048+1023197897+1019152831+1020957367+1026325728+1029618130
3623+1028998856+1024976518+1018943842+1013449160+1010671191+1009715151
3615+1008798262+1008091679+1008224167+1008214397+1007114851+1006324699
3606+1007512871+1009289136+1009086592+1006588083+1003695919+1001856043
3598+1000486391+998672985+996782387+995567883+994495569+991900950+986874760
3588+981286324+979224848+981356657+983985576+984605266+983242405+980853657
3578+978307405+976192296+974763537+973710625+971960692+967966833+960691729
3568+951331450+944543685+944157098+947599451+950390585+951148793+950806969
3558+950275420+949263876+946987799+943525628+940077454+937514295+935077388
3548+931642172+927690582+925002625+924343369+924566285+924253634+922896247
3538+920750719+918361555+916090259+913869200+911418157+908544564+905267129
3529+901879448+898847519+896477827+894795316+893684752+892908459+892050261
3519+890737638+888965947+887016172+884967723+882539616+879603728+876611227
3509+874163649+872176732+869933154+867054224+864119930+862077025+861019678
3499+860114499+858636542+856604863+854499870+852583910+850640441+848385429
3489+845961895+843811724+842002198+840026923+837560012+835080074+833262095
3479+831938731+830363071+828315453+826258620+824507994+822812109+820841408
3469+818639613+816453617+814375164+812297127+810175504+808229748+806795584
3459+805942307+805285475+804244898+802552201+800445476+798201412+795663129
3449+792617688+789485215+787055306+785508264+784367765+783333978+782468297
3439+781744459+780953961+779912206+778538604+776913053+775232205+773522392
3429+771646969+769734959+768145024+766855683+765407799+763609222+761861298
3420+760597111+759746952+758988744+758176696+757281149+756235721+755118852
3410+754193509+753516513+752777361+751681765+750186346+748342104+746244111
3400+744167321+742504905+741487195+740984472+740607655+740025036+739166700
3390+738146287+737119429+736252016+735689008+735441145+735341917+735156627
3380+734755557+734150211+733345092+732319759+731265323+730578349+730373726
3370+730216499+729587385+728450005+727198083+726233797+725747774+725693725
3360+725818383+725864810+725802931+725728787+725629421+725427084+725112215
3350+724702900+724247296+723896464+723762382+723745682+723670014+723450285
3340+723061341+722536583+722029148+721713032+721667229+721920150+722474981
3330+723229655+724001790+724661185+725156425+725449327+725538161+725534558
3320+725635449+725995913+726607080+727263911+727699766+727809388+727698588
3310+727536650+727490362+727734829+728302133+729002411+729661321+730267222
3301+730774380+731047326+731147871+731390674+731969204+732778966+733702022
3291+734773019+735921556+736826804+737244434+737302433+737330358+737592287
3281+738256740+739362107+740703002+741945293+742929188+743776576+744734140
3271+745932360+747236391+748334066+749040581+749489532+749998492+750782546
3261+751775241+752684300+753264840+753596200+754045290+754942985+756312429
3251+757846167+759104880+759875768+760433371+761276463+762502331+763681079
3241+764464509+765039575+765835547+767006950+768337243+769539690+770522824
3231+771378735+772254810+773339250+774819009+776653826+778508115+780080034
3221+781406239+782728563+784164805+785626478+786998971+788300507+789665585
3211+791234871+793081053+795152715+797206984+798862817+799865145+800371332
3201+800909326+801949349+803565962+805544771+807638330+809642292+811436227
3191+813048613+814539181+815904883+817253469+818817627+820586339+822244944
3182+823677444+825168498+826992783+829104773+831253212+833177973+834808236
3172+836404685+838275327+840273746+841946625+843224532+844510755+846039504
3162+847632765+849128184+850599904+852102668+853569816+855027678+856646854
3152+858491512+860358412+862001564+863496290+865195293+867198978+869078005
3142+870382521+871278067+872376228+874018341+875988280+877877424+879467844
3132+880744365+881780646+882735162+883830550+885204221+886787850+888382705
3122+889836964+891131432+892339561+893547551+894812362+896142031+897512445
3112+898918406+900376130+901850414+903235518+904455843+905564466+906734068
3102+908113074+909637042+911074324+912338026+913577822+914874161+916106196
3092+917211355+918282699+919348222+920316596+921150264+921908402+922671598
3082+923548852+924673205+926096420+927723358+929353206+930775035+931905209
3072+932848638+933721387+934461231+935013430+935644692+936740427+938252961
3063+939686917+940690977+941390770+942166717+943322737+944816701+946192658
3053+947014130+947403004+947861795+948637950+949559412+950392941+951102366
3043+951864800+952918475+954243848+955445879+956181081+956574805+956983913
3033+957553781+958265701+959184183+960327800+961473912+962382208+963088654
3023+963763155+964424144+964969135+965298001+965313385+965043834+964827292
3013+965109732+965991905+967182918+968364161+969356926+969989782+970115342
3003+969828952+969478467+969363371+969435921+969334822+968807569+968069595
2993+967540957+967266278+966940738+966443558+965916999+965364800+964610889
2983+963656096+962747661+962076070+961527060+960746124+959479927+957875164
2973+956348008+955172378+954294155+953467901+952458506+951153366+949554700
2963+947708172+945686540+943571916+941364092+938978739+936405740+933766427
2953+931154070+928506442+925697499+922710195+919677088+916779866+914171596
2944+911936402+910039567+908400364+907049560+906032335+905182314+904263761
2934+903291022+902470936+902001127+902112966+903027707+904665663+906601163
2924+908419004+910008800+911511703+913043640+914487296+915640406+916584043
2914+917710128+919301518+921205976+922998732+924390142+925418247+926275613
2904+927061745+927748996+928242018+928410124+928235990+927988613+928052778
2894+928518568+929109778+929575014+929997841+930634855+931609465+932908784
2884+934534128+936461799+938577670+940817022+943208403+945687579+948107163
2874+950506444+953064545+955700601+958061563+960012169+961799313+963589506
2864+965186786+966408219+967456835+968685058+970126082+971441338+972328154
2854+972911950+973625325+974648787+975722764+976658847+977664224+978916354
2844+980208952+981266783+982068438+982731782+983391455+984202602+985221907
2834+986331362+987372355+988245105+988917180+989513657+990264935+991164155
2825+991866650+992135855+992178678+992354544+992752704+993194934+993498993
2815+993661485+993869365+994317416+994983740+995668497+996230327+996646641
2805+996921943+997102106+997306591+997619034+998016501+998437250+998827163
2795+999133509+999334944+999458772+999568324+999741973+1000007713+1000282946
2785+1000475166+1000653180+1001015931+1001650588+1002361607+1002830653
2776+1002991275+1003111638+1003391860+1003685525+1003809213+1003872617
2768+1004059986+1004333694+1004620707+1005062036+1005780469+1006569790
2759+1007080412+1007233134+1007244845+1007326265+1007502616+1007654438
2751+1007665247+1007612238+1007768495+1008241768+1008747748+1008974267
2742+1009004618+1009121100+1009393838+1009736217+1010131396+1010529902
2734+1010712490+1010506204+1010049907+1009677872+1009592779+1009736009
2725+1009919497+1010005975+1009988721+1009945275+1009926150+1009900165
2717+1009782990+1009465834+1008834295+1007903824+1006974809+1006466681
2708+1006478253+1006639014+1006493428+1005911365+1005043743+1004061580
2700+1003079971+1002205974+1001480265+1000816435+1000116365+999395091+998694536
2690+997955107+997136614+996354362+995669051+994837462+993585401+992039468
2680+990597474+989460856+988557756+987771346+986994499+986091468+984989151
2670+983725241+982366329+980982958+979658901+978415502+977155542+975759490
2660+974235868+972769622+971565997+970576211+969475487+968021021+966322018
2650+964638745+963053522+961467744+959792509+958019224+956177408+954319793
2640+952520315+950834478+949256115+947730069+946185105+944514790+942557531
2630+940219575+937653990+935218884+933170574+931441568+929745545+927838315
2621+925651973+923266343+920836781+918519335+916366670+914264449+912040480
2611+909650069+907188355+904732254+902243169+899616121+896827273+894102106
2601+891839263+890144557+888537298+886398422+883632649+880642296+877794965
2591+875167293+872710083+870426730+868356800+866440771+864453646+862160869
2581+859567567+856946201+854577479+852504847+850550637+848495189+846188969
2571+843580354+840741684+837845362+835060187+832506728+830276385+828323907
2561+826337129+823937502+821082895+818102936+815295032+812709630+810356983
2551+808296270+806366867+804203599+801775977+799524360+797689266+795918129
2541+793840854+791613212+789540857+787528095+785283754+782849688+780543953
2531+778492108+776560973+774692271+772927301+771137594+769159201+767180114
2521+765531211+764105154+762470456+760578194+758840318+757434010+756046273
2512+754466386+752941171+751719114+750663222+749562429+748456300+747426948
2502+746388102+745288279+744287129+743533010+742916369+742239997+741518792
2492+740863970+740169444+739278262+738368095+737739604+737343940+736961926
2482+736667637+736698542+737014796+737252819+737026853+736260608+735341432
2472+734817644+734837323+735069248+735243244+735504410+736058618+736680318
2462+736920558+736783287+736791811+737313451+738226667+739289904+740413980
2452+741543391+742612310+743586020+744346652+744733101+744874944+745248574
2442+746215909+747697815+749410607+751152225+752716938+753893053+754762615
2432+755647074+756626258+757533862+758442297+759645091+761162683+762703212
2422+764065865+765286467+766490230+767791073+769273396+770962975+772761829
2412+774439489+775823000+777011934+778301968+779913314+781842163+783892413
2402+785824103+787540845+789130295+790734989+792455403+794311217+796203271
2393+797992493+799692258+801481134+803453152+805452334+807268650+808961347
2383+810843145+813152622+815889361+818946513+822205862+825540603+828932649
2373+832500145+836218424+839819806+843204091+846693841+850554517+854440278
2363+857730532+860333189+862634143+864655290+865889127+866051827+865406568
2353+864411100+863523314+863199368+863823978+865673555+868765353+872610993
2343+876541864+880342672+883912663+886733524+888414926+889355029+890326244
2333+891642678+893053005+894262450+895249256+896161780+897223353+898665347
2323+900449442+902093356+903073095+903429331+903786677+904770018+906417398
2313+908112728+909168688+909541209+909892457+910941973+912765219+914724279
2303+916171401+917135617+918076205+919163902+920264141+921492573+923208344
2293+925380620+927418606+928828378+929777281+930768175+931931056+932972880
2283+933793105+934752818+936222182+938149645+940156033+941826348+942956938
2274+943780627+944854881+946403033+947914735+948764964+949007768+949188554
2264+949676518+950542268+951694963+952850844+953771544+954636741+955788396
2254+957232191+958764405+960228503+961338651+961770348+961657331+961508142
2244+961513894+961425060+961194590+961345026+962527101+964833944+967625009
2234+969965460+971219600+971314740+970661997+969976131+969957630+970752771
2224+971704930+972020838+971777342+971804574+972444844+973050814+973003764
2214+972724720+973260426+974968091+976861600+977486210+976387287+974445966
2204+972929204+972599507+973429918+974604509+975122476+974814467+974328860
2194+974074346+973786986+973070216+971855505+970569767+970016252+970496524
2184+971129519+970927113+970357037+970761225+972481847+974607627+976172547
2174+976802492+976676101+976485753+976985427+978186834+979437578+980495757
2164+981987156+984435012+986999142+987715149+985877491+983529833+982533118
2155+981921813+980263970+978069798+976075328+973234095+968251421+961612221
2145+954586711+947408756+939222583+928720281+914565529+896096575+873660094
2135+847887141+819083575+787563504+754087698+719923047+686741184+656149435
2125+629044525+605635236+585986148+570274929+558908089+552717529+552555799
2115+558438142+569614599+585586256+606285484+631064910+658287411+686223078
2105+713840619+740609525+766057286+789694827+811076179+829851132+845837930
2095+859091453+869960247+879043422+886952075+894075428+900559480+906423773
2085+911694707+916479895+920867478+924787539+928167459+931266602+934570992
2075+938194824+941648056+944392279+946382037+947912726+949297830+950803781
2065+952556071+954503213+956689763+959165751+961387641+962489128+962526685
2055+962688693+964008522+966459496+969202541+971241219+972372848+973730512
2045+976226942+978739518+979593973+979280698+979696320+981260547+982757698
2036+983477863+983945178+984841279+986080867+986947795+987205358+987998490
2026+990570449+993900132+995275673+993684352+991065134+989780229+990002106
2016+990070637+989071982+988178929+989050085+991707968+994721673+996877249
2006+997694702+997136822+995960637+995402064+995783385+996360390+996751135
1996+997383160+998377034+999059088+998736181+997500196+996193601+995803965
1986+996822577+998888141+1000924048+1001808508+1001273286+1000243934+1000003971
1976+1001038105+1002967715+1004891921+1005331587+1003166033+999304040+996472784
1966+996554828+998689685+1000683392+1001256240+1000433728+998898050+997589931
1956+997369093+998401910+999952764+1000992094+1000973246+1000090034+998875391
1946+997488555+995692334+993757179+992729282+993187796+994584472+996161934
1936+997493267+998358186+998799030+999019175+999035874+998714354+997930023
1926+996542909+994797826+993698003+993996657+994984641+995517507+995665586
1917+996321586+997579606+998512641+998265541+996913836+995573011+995400332
1907+996416033+997753394+998718996+999130113+998982311+998250643+997049651
1897+995870903+995388275+995664963+995954124+995837157+995972209+997047295
1887+998577776+999678570+1000138054+1000182887+999962672+999612326+999382687
1877+999370492+999268492+998501831+996570141+993442588+990219063+989298016
1867+991996783+996489830+1000124334+1001708656+1001419772+1000146369+999026797
1857+998862988+999548784+1000288836+1000386678+999640597+998175459+996127426
1847+993555952+991001731+990076457+991828677+994685571+996600215+997238683
1837+997444554+997844445+997910205+996573398+993882670+991747327+991858751
1827+993202348+994149587+994889086+996188543+997683546+998587477+998871026
1817+999047031+999200585+998737983+997278873+995469279+994577196+995108745
1807+996293522+996951670+996267399+994203636+991820016+990694623+991196584
1798+991979529+991561274+989559807+987186026+987100587+990360491+994371811
1788+996559609+996670339+995766478+994685502+993725443+993325829+993612564
1778+993519919+991700346+987967516+983812966+981906360+983426933+986801240
1768+990302492+992758455+993093142+991235665+988783929+987557368+987381363
1758+987309714+987333274+987103220+985173332+980666911+975045768+971716364
1748+972044537+973968465+975425912+975969171+976059252+976266924+976720796
1738+976574587+974598480+970916580+968561023+970494861+974801371+979085984
1728+982609618+984632844+984856731+984001652+982529169+979552259+973938739
1718+966727176+962799908+965513504+971428519+976526220+979354357+979618780
1708+977491753+973961190+970860453+968933683+966779077+963170420+959312930
1698+957614759+958855733+962969469+967977851+970549672+969605897+966313079
1689+962132475+956916283+949644435+942686278+941437613+944369620+946713467
1679+946719287+944103188+939386323+934074436+928747305+922459700+915990338
1669+912602657+912265822+911048893+906957123+901561669+897997360+896532499
1659+894464717+889777371+881832547+871367317+864003379+864447271+865456321
1649+862693319+858704034+858696343+862613008+865806529+866405223+864526404
1639+860459164+855392853+853397483+858191056+865603569+870523047+872495066
1629+873056549+873705135+874700187+875867155+878189105+882129122+885613051
1619+886817646+886994483+889784024+895834161+901653205+905377859+907595522
1609+909657068+912424850+915653156+918613297+921091919+923479558+925989431
1599+928178684+929495188+930004147+930303009+930811345+931422235+931895577
1589+932235045+932508269+932542638+932074839+931079649+929563650+927029247
1579+922608749+916192882+910190280+908185694+908589743+907071873+902598713
1570+897804378+895649772+895194445+894174448+891742045+887143325+878846698
1560+867915471+864459259+871621346+879672883+885416674+889250327+891950271
1550+894522577+896703654+896671986+893318329+887550562+881513451+879008845
1540+885823772+898358586+906955737+910023837+910984104+913679752+917719067
1530+919688175+918554398+916033577+913904193+911880690+909704395+909259809
1520+911162673+913293719+915544989+919404488+923691319+925234481+922158481
1510+914500046+904473027+899944502+908343059+919788927+925605685+926029968
1500+922894723+918376730+915474726+915734922+916639893+914622141+908410897
1490+900347442+895976420+897308584+900222784+901079665+899234938+895707216
1480+891547885+886571170+879817913+871134214+861895892+854928242+852733168
1470+853564064+853296523+849927344+844172118+838692265+835054366+831401777
1460+825228852+816000369+807399268+806067866+810384770+814412028+816360971
1451+816454171+815569988+815138707+815930521+817225683+817958459+817595570
1441+815858595+812522261+808111811+804851422+804367893+804879694+804454926
1431+803409844+802988402+803026167+802143162+799917045+797207261+794394784
1421+790739354+786650911+784980942+786722421+789301449+790772962+791102105
1411+791022140+790881960+790384157+789517921+789271999+790367596+791764757
1401+792121964+791631298+791515994+792627736+795392331+799791278+804400253
1391+807372451+808262801+808324264+809494212+812206491+814994854+816699400
1381+817459409+817877525+818064409+817857153+817833246+819295405+822467652
1371+825866143+828330421+829924444+830781741+830534779+829432461+829142885
1361+831132988+834552198+837540194+839349651+840420301+841423946+842486974
1351+843352864+844041154+844899975+846104432+847375756+848031340+847306047
1341+845175555+843159743+843454586+846405442+850183590+853122042+854854029
1332+855742022+856188756+856468355+856768949+857120751+857308467+856991658
1322+856048091+854874539+854184724+854272519+854698534+854982360+855179153
1312+855473926+855653812+855385716+854719461+853996732+853430328+852955946
1302+852419616+851803668+851272742+850988917+850888511+850683472+850100022
1292+849105525+847933359+846913777+846255907+845944433+845839038+845863430
1282+846078724+846582209+847392040+848429499+849504585+850292727+850451478
1272+849834976+848526579+846611451+843987521+840429240+835763860+829953478
1262+823085541+815347626+806948030+798038642+788800458+779536705+770499680
1252+761710447+753152377+745042842+737754641+731604791+726835124+723604393
1242+721883979+721503489+722352471+724409443+727579612+731649208+736412845
1232+741760002+747625334+753896587+760388954+766915968+773356366+779581954
1222+785351800+790419912+794825650+798993574+803425643+808296062+813419678
1213+818586118+823794273+829125076+834525520+839894435+845333197+851090501
1203+857213466+863446538+869540053+875465878+881266906+886879941+892193837
1193+897160089+901787496+906056379+909845199+913004350+915569727+917781985
1183+919766269+921315806+922119747+922098127+921420092+920319645+918944242
1173+917266582+915109550+912306082+908812382+904665871+899926416+894654096
1163+888892288+882700584+876183410+869387607+862231756+854626123+846546315
1153+837918328+828599279+818538999+807829787+796559715+784732387+772355562
1143+759551406+746571591+733740203+721396015+709829715+699222710+689658779
1133+681193215+673856509+667626001+662460046+658301408+654990851+652235541
1123+649695595+647097719+644312682+641322191+638057991+634339089+630015602
1113+625082750+619637959+613857026+608024261+602452386+597310892+592578090
1103+588232013+584479989+581719412+580292767+580390782+582101426+585339572
1094+589752447+594823470+600026843+604836700+608696961+611116406+611870456
1084+611120217+609278609+606747394+603782125+600467479+596719682+592449828
1074+587780082+582954150+578097451+573242450+568447214+563707413+558914742
1064+554031192+549165416+544444393+539946911+535734051+531834674+528253769
1054+525067974+522441550+520508128+519312403+518875993+519219654+520298758
1044+521992737+524170730+526736730+529636032+532844416+536313378+539914482
1034+543479796+546913037+550223905+553455711+556620787+559710645+562729893
1024+565723918+568781139+571940394+575061261+577898683+580364555+582592092
1014+584718011+586786832+588890369+591198737+593814074+596720444+599832683
1004+602981995+605899521+608302820+610000507+610954537+611295945+611237600
994+610920791+610367415+609606713+608787389+608081428+607515025+607036277
984+606737692+606835396+607444831+608567521+610252942+612574060+615467125
975+618721555+622098910+625445569+628766728+632135146+635429904+638279868
965+640366498+641629646+642066748+641549612+639999313+637533926+634270280
955+630196804+625408844+620266172+615188912+610479115+606394067+603183223
945+600976300+599752303+599504926+600440732+602907435+606987356+612289472
935+618372801+625213645+632973525+641486208+650290755+659061070+667731188
925+676206175+684148575+691197159+697339388+702888742+708099391+713032936
915+717780914+722512815+727251993+731881548+736439177+741202538+746371333
905+751768312+756958035+761637065+765839566+769773763+773525372+776891780
895+779466650+780931995+781286846+780791676+779778885+778551354+777272893
885+775854944+774112217+772108116+770200818+768699439+767619919+766813068
875+766185617+765739021+765504949+765519985+765804573+766321293+766990112
866+767710832+768310288+768562862+768386649+767924463+767313157+766481291
856+765296237+763812598+762308864+761141687+760522760+760333866+760199922
846+759813889+759135715+758288674+757413915+756653976+756112933+755760369
836+755454716+755062308+754442757+753360534+751599514+749205776+746500773
826+743796810+741085085+737998346+734227612+730088722+726465583+724006017
816+722589038+721758211+721391442+721616714+722226080+722521893+721772139
806+719618503+716058074+711276282+705588895+699438143+693414060+688226001
796+684481945+682508887+682476388+684496704+688416488+693724078+699891183
786+706640144+713722821+720665733+726936847+732255455+736612202+740063148
776+742660400+744607403+746300793+748039154+749740721+751073716+751829221
766+752032181+751755909+751095336+750373854+750022259+750068270+750048106
756+749572684+748694322+747622840+746427115+745172628+744092623+743359708
747+742735721+741721822+740170206+738516105+737234387+736268300+735146094
737+733501903+731350553+728927159+726365731+723610629+720623533+717559938
727+714721961+712376521+710576904+709123477+707699153+706005070+703818728
717+701079633+697984578+694946690+692341261+690174252+688102867+685940292
707+683931617+682257283+680558072+678373601+675776488+673146252+670551495
697+667782534+664892241+662329844+660489829+659397074+658896499+658874602
687+659174642+659585136+660087166+660869972+661909372+662679636+662492337
677+661144305+659126275+657237478+656126707+656009947+656370134+655574924
667+652398865+648524607+645573197+643470284+642057047+641647870+642312046
657+643425174+644302912+644862456+645354300+645799648+646054301+646172307
647+646366398+646713003+647119062+647518052+647951343+648428774+648723687
637+648388446+647158351+645376681+643816820+642974559+642693229+642503018
628+642198336+641993020+642051503+642086288+641788466+641392316+641258233
618+641133505+640471962+639316219+638193598+637303803+636374995+635212669
608+633979041+632969506+632423821+632536146+633296848+634238683+634705027
598+634538723+634166132+633955966+633900531+633924437+634075012+634272013
588+634192949+633613380+632712913+631917634+631590777+632036472+633458232
578+635516105+637205683+637646805+636896150+635577429+634001769+632110339
568+630015810+628217995+627292929+627468172+628394416+629409493+630296378
558+631489609+633069497+634063648+633570418+632186630+631461268+632163417
548+633660776+634779655+634838763+634012994+633126178+633111211+634189900
538+635375716+635404335+634352393+633485118+633343967+633048986+631718000
528+629689923+628281814+628681983+630657743+632613754+633236978+632506835
518+631365574+630881630+631470900+632619229+633456846+633595849+633358242
509+633293383+633506044+633450471+632681454+631848895+632191135+633727437
499+635145524+635587893+635298454+634859066+634680220+634932516+635353681
489+635480003+635293742+635143376+635070687+634846939+634640029+634970628
479+636071283+637641954+639154904+640413340+641620499+642592476+642626846
469+641855819+641486416+642072776+642667659+642309967+641268420+640584287
459+641565757+644973186+649054632+650842330+650196862+649851366+651706071
449+654477595+655709492+654744652+653328920+653813280+656425985+658704002
439+658736639+657360613+656222678+655307175+653756044+651972919+651207367
429+652118643+654365271+656726232+657650605+656533597+653828594+649957177
419+647114627+650071580+658007396+664742983+666965982+666320584+667358529
409+672168246+677776085+680364190+679920990+678743350+677618927+676104869
399+675071844+676433319+679485620+682001106+684458801+688041611+691791835
390+693637670+693457715+693174375+692885699+690071559+686058575+686226542
380+692129986+700215060+706136450+708119278+708341433
##END=
