##TITLE=R. Baer RB124-2
##JCAMP-DX=4.24
##DATA TYPE=INFRARED SPECTRUM
##DATE=21/8/2017
##SAMPLING PROCEDURE=Diamant-ATR
##ORIGIN=Angelika Moesle
##XUNITS=1/CM
##YUNITS=TRANSMITTANCE
##RESOLUTION=4
##FIRSTX=3997.453
##LASTX=373.96442
##DELTAX=-1.4165319
##MAXY=0.91172898
##MINY=0.32108858
##XFACTOR=1
##YFACTOR=8.4911378e-010
##NPOINTS=2559
##FIRSTY=0.91146708
##XYDATA=(X++(Y..Y))
3997+1073433380+1073355533+1073133993+1073100018+1073299657+1073424676
3989+1073261680+1072988055+1072885498+1072980263+1073091946+1073064429
3980+1072844925+1072483765+1072143172+1072004465+1072117551+1072358605
3972+1072510650+1072408374+1072107092+1071858316+1071812267+1071906611
3963+1072097405+1072374469+1072529252+1072364993+1072061324+1071837538
3955+1071482415+1070701270+1069735790+1069275443+1069779453+1070851490
3946+1071498209+1071276880+1070790139+1070815690+1071262349+1071509160
3938+1071321946+1070876199+1070454250+1070421468+1071029859+1071897977
3929+1072185922+1071684159+1071155721+1071408779+1072149350+1072260049
3921+1071392353+1070378648+1070248434+1071235043+1072596992+1073488976
3912+1073741823+1073583881+1072957730+1071588622+1069756569+1068529888
3904+1068870481+1070444352+1072045038+1072920737+1072862123+1071931109
3895+1070508230+1069282463+1069131821+1070280584+1071404497+1071329387
3887+1070656976+1070546909+1070688495+1070002256+1069083807+1069293413
3878+1070133382+1070226954+1069617790+1069057413+1068737739+1068739214
3870+1069441738+1070155705+1069603541+1068200317+1067570375+1068234923
3861+1068881150+1068424102+1066801726+1064212044+1061452908+1061193954
3853+1065810905+1070842154+1072015907+1070782628+1068944748+1067163307
3844+1065866992+1065493407+1065865728+1066439934+1067392638+1069150985
3836+1070875708+1071400917+1070883430+1070263245+1069941255+1069657381
3827+1069348377+1069091037+1068572427+1067840490+1068067014+1069747162
3819+1070994831+1070929970+1070798211+1071125607+1070967735+1069862705
3810+1068224604+1066852056+1066764030+1067851581+1068335795+1067735968
3802+1067855302+1069515585+1070648553+1070333231+1069895347+1070029773
3793+1070079963+1069755867+1069523587+1069555526+1069559528+1069518252
3785+1069650572+1069721190+1069358415+1068873850+1068860372+1069141438
3776+1069078472+1068618476+1068133770+1067921497+1068082036+1068306243
3768+1068061749+1067442688+1066958544+1066507392+1065715789+1065111469
3759+1065798761+1067552896+1068573901+1067925077+1066322425+1065409242
3751+1066736092+1069059238+1069341217+1067666123+1066854232+1068950996
3742+1071598449+1071967120+1070546768+1068886626+1068154198+1068834259
3734+1070423153+1071821814+1072328772+1071886465+1070923161+1070265702
3725+1070639217+1071762638+1072530094+1072311433+1071401338+1070434595
3717+1069742880+1069241608+1068880870+1069122766+1070406937+1071753934
3708+1071740737+1070388616+1068580079+1067372492+1067816483+1069943080
3700+1071962979+1072234077+1070925477+1069055658+1067309104+1065850846
3691+1064824647+1064730443+1065783107+1066986131+1067264038+1066504725
3683+1065118910+1063622044+1062300247+1061116948+1060429586+1061261974
3674+1062855711+1062587210+1060568294+1059320836+1060122126+1061104243
3666+1060833285+1059918908+1059157700+1058581669+1057862859+1057143487
3657+1057179919+1058147364+1058599709+1057356673+1055278090+1054628915
3649+1056965048+1060124373+1061247514+1060497045+1059025029+1057686876
3640+1056879268+1056415341+1055886131+1055295780+1054970139+1054811566
3632+1054382737+1054135365+1055513950+1057877530+1058318994+1056655061
3623+1054508248+1052809989+1051634552+1050851652+1050254492+1049498408
3615+1048610986+1047878628+1047081128+1045690469+1044058335+1043358759
3606+1043828162+1044303531+1044008426+1043249533+1042482920+1041582652
3598+1040277001+1038824499+1037761797+1037153757+1036491666+1035513270
3589+1034700537+1034630481+1034649223+1033370879+1030859325+1028250480
3581+1026372799+1025356427+1024816687+1024263190+1023396546+1022075311
3572+1020178397+1017720052+1015134231+1013372444+1013178422+1013679764
3564+1013291368+1011809664+1010046193+1008613276+1007405969+1005984986
3555+1004259561+1002660770+1001590557+1000672460+999066017+996654002+994309586
3546+992967012+992649795+992628666+992229249+991196942+989722750+988307311
3536+987401639+987049253+986871797+986365120+985266197+983828437+982757171
3526+982565675+982925291+982993452+982474280+981856763+981504518+981187722
3516+980629872+979972554+979503853+979249672+978962640+978417214+977669133
3506+976982753+976600043+976591339+976764232+976788380+976526267+976114074
3496+975732066+975434293+975190080+974993460+974914700+974996830+975012764
3486+974550171+973571424+972632057+972272230+972339479+972268650+971959155
3476+971883975+972303398+972794561+972793719+972263316+971539732+970839173
3466+970171747+969548965+969082651+968889260+968972724+969267548+969735406
3456+970300136+970778734+971014453+970982373+970804005+970836857+971539030
3446+972909472+974305536+975161651+975497048+975581916+975577774+975626490
3437+975923210+976532374+977319555+978172019+979087379+979987716+980704070
3427+981222680+981643366+981904216+981947386+982110172+982828911+983964547
3417+984898298+985267812+985292100+985419085+985862023+986559283+987449302
3407+988529413+989662942+990561034+990985862+990908927+990623649+990697495
3397+991486291+992707637+993793082+994548113+995183600+995873981+996526877
3387+996943913+997090062+997167909+997442798+998065229+998990486+999949929
3377+1000647821+1001089496+1001528644+1002146371+1002999888+1004076840
3369+1005175482+1006022541+1006629107+1007204927+1007770990+1008223476
3360+1008626262+1009092014+1009528425+1009818335+1010141238+1010825021
3352+1011851150+1012751698+1013114052+1013015496+1012874261+1013033607
3343+1013555376+1014272010+1014964356+1015530349+1015988380+1016414120
3335+1016922341+1017555372+1018136386+1018429596+1018455148+1018514815
3326+1018909739+1019662805+1020489787+1021085894+1021396373+1021479555
3318+1021285533+1020837470+1020467325+1020560475+1021103865+1021622686
3309+1021613490+1021091089+1020666823+1020970492+1022042670+1023328315
3301+1024171373+1024305658+1023945621+1023443999+1022959714+1022572161
3292+1022499999+1022890080+1023496646+1023868055+1023849312+1023736015
3284+1023879567+1024245360+1024497084+1024465425+1024282002+1024057234
3275+1023751529+1023440278+1023443648+1024020310+1025007551+1025896236
3267+1026328645+1026432115+1026550325+1026782886+1026929034+1026755018
3258+1026291090+1025962291+1026246024+1027069006+1027810419+1027982119
3250+1027603551+1026987718+1026533899+1026572367+1027041770+1027472775
3241+1027547394+1027484217+1027696069+1028239529+1028747189+1028819561
3233+1028396418+1027812174+1027522965+1027691858+1028063196+1028344543
3224+1028571207+1028928576+1029446976+1030054805+1030643542+1030950370
3216+1030726935+1030125914+1029644297+1029658477+1030178281+1030920747
3207+1031437532+1031358421+1030742168+1030124229+1030045539+1030530526
3199+1031168189+1031636258+1031896686+1031934452+1031681113+1031247089
3190+1030932750+1030931487+1031175840+1031479650+1031762401+1032127281
3182+1032695660+1033395026+1033989729+1034303507+1034355943+1034303787
3173+1034252825+1034119101+1033757871+1033226836+1032747676+1032431582
3165+1032264795+1032314284+1032638521+1033009508+1033026004+1032570851
3156+1031939787+1031478878+1031317496+1031481194+1031999173+1032778773
3148+1033555776+1034095655+1034385496+1034580782+1034794179+1034965668
3139+1034988552+1034902843+1034848160+1034862409+1034872799+1034813623
3131+1034665579+1034493388+1034486929+1034774173+1035167132+1035285834
3122+1034959210+1034384864+1033924166+1033780053+1033814028+1033698485
3114+1033316827+1032919797+1032827629+1033119927+1033640502+1034136018
3105+1034339868+1034088355+1033465924+1032779615+1032306422+1032050837
3097+1031757206+1031149025+1030153291+1028901761+1027546692+1026129849
3088+1024641618+1023150578+1021792841+1020593257+1019382090+1018006453
3080+1016583504+1015368967+1014377234+1013357563+1012175808+1010961693
3071+1009791521+1008432661+1006527673+1003929779+1000805061+997477616+994246901
3061+991350883+988958101+987065890+985516096+984277412+983620515+983895544
3051+985235451+987462148+990163231+992944479+995688312+998443095+1001118136
3041+1003463254+1005256418+1006432838+1007195942+1007966768+1008961309
3033+1009919629+1010449400+1010428271+1009873931+1008691966+1006767253
3024+1004153915+1001060013+997668269+993982612+989854789+985133316+979738660
3014+973640918+966851953+959389946+951185192+942031244+931607374+919611248
3004+906046094+891380964+876335019+861591480+847710583+835092658+824027404
2995+814925050+808314244+804419262+802941980+803364773+805231433+808030370
2985+810993075+813223492+814088240+813376239+811031823+806987884+801486530
2975+795348145+789671230+785431233+783531300+785001912+790776821+801057631
2965+814910730+830678433+846852573+862469425+876850470+889410624+899865941
2955+908439296+915754593+922472519+928880178+934823067+940106953+944829900
2945+949200532+953214146+956680790+959459862+961547780+962964833+963640613
2935+963498746+962646703+961318028+959509841+956759199+952357260+945694789
2925+936355662+924103390+909252941+893316135+879022484+869286398+865945896
2915+869146637+877428326+888373263+899680693+910002498+918908372+926368273
2905+932512836+937666648+942255521+946581368+950663704+954223569+956896433
2895+958523583+959086768+958270736+955282550+949220959+939478274+925843977
2885+908767745+890080226+873329073+862629262+860456476+866340540+877703636
2876+891805651+906829133+921616896+935184226+946783744+956133961+963365162
2866+968842439+973050497+976411706+979098891+981127845+982626957+983871397
2856+985071753+986281867+987474783+988576584+989501982+990291691+991147945
2846+992254941+993606781+995027203+996302179+997310197+998052874+998586928
2836+999008176+999517380+1000332639+1001443777+1002540383+1003281235+1003598171
2826+1003705642+1003886608+1004288131+1004827800+1005242730+1005307802
2817+1005077137+1004864863+1004962787+1005407411+1005985688+1006414377
2809+1006559893+1006529639+1006552733+1006786066+1007204155+1007601466
2800+1007733435+1007558225+1007318084+1007318294+1007639162+1008075502
2792+1008355585+1008420446+1008410338+1008383593+1008263207+1008069956
2783+1007945639+1007929915+1007967048+1008081890+1008298796+1008472672
2775+1008424869+1008205154+1008063709+1008194555+1008554662+1008914979
2766+1009080502+1009069552+1009054389+1009116373+1009190500+1009272980
2758+1009457176+1009666290+1009668186+1009475146+1009392314+1009540850
2749+1009684822+1009623822+1009451419+1009340228+1009285616+1009152734
2741+1008902765+1008693650+1008717166+1008968329+1009253606+1009395473
2732+1009362340+1009227072+1009056495+1008863104+1008631948+1008357270
2724+1008088488+1007986282+1008238638+1008797962+1009310465+1009446155
2715+1009233039+1008979771+1008921578+1009010938+1009047791+1008959133
2707+1008868439+1008896097+1009000338+1009058390+1009027223+1008957378
2698+1008892938+1008827094+1008766304+1008738506+1008716394+1008630474
2690+1008489449+1008390543+1008416515+1008567718+1008749737+1008811931
2681+1008684455+1008456106+1008258714+1008128360+1008019485+1007872775
2673+1007664011+1007410813+1007095983+1006603977+1005872251+1005091387
2664+1004609630+1004593906+1004881570+1005191557+1005407691+1005601854
2656+1005853438+1006144823+1006393949+1006501560+1006420203+1006257418
2647+1006218669+1006354850+1006465269+1006363905+1006112252+1005885728
2639+1005726944+1005552787+1005313699+1005092019+1005097073+1005490102
2630+1006109233+1006529779+1006529007+1006292446+1006105723+1006129099
2622+1006452634+1007035544+1007582864+1007753792+1007494557+1007043125
2614+1006672910+1006501209+1006489838+1006575126+1006748511+1006963101
2605+1007048741+1006845803+1006439226+1006173603+1006340390+1006879076
2597+1007445771+1007720730+1007585181+1007159300+1006755109+1006615910
2588+1006650377+1006609663+1006443578+1006247239+1005989970+1005578128
2580+1005099810+1004778943+1004714714+1004808636+1004943694+1005112867
2571+1005350060+1005676052+1006149877+1006763533+1007249923+1007254767
2563+1006798701+1006331264+1006219020+1006384473+1006556945+1006663363
2554+1006768938+1006831343+1006807686+1006847909+1007051338+1007218896
2546+1007181341+1007107776+1007143716+1007113742+1006975877+1007149262
2537+1007883655+1008620014+1008558312+1007732242+1007007395+1006996304
2529+1007380769+1007400213+1006728856+1005762042+1005115815+1004968052
2520+1004997464+1004922635+1004814112+1004830116+1004977107+1005228129
2512+1005580655+1005915351+1006033772+1005911841+1005752355+1005722381
2503+1005743230+1005658573+1005575531+1005821288+1006474886+1007130519
2495+1007286987+1006859281+1006200488+1005707359+1005502316+1005443211
2486+1005336512+1005080717+1004664804+1004165498+1003775347+1003697008
2478+1003931884+1004259069+1004481451+1004584710+1004611525+1004524482
2469+1004305469+1004038442+1003759553+1003387161+1002965422+1002765222
2461+1002919162+1003170606+1003227324+1003134805+1003094021+1003182258
2452+1003381545+1003569952+1003448723+1002840613+1002030267+1001495160
2444+1001439214+1001805007+1002467800+1003196578+1003688514+1003822308
2435+1003714557+1003512532+1003321808+1003307488+1003613755+1004089967
2427+1004288973+1003918477+1003206827+1002672844+1002595066+1002833734
2418+1003120766+1003353678+1003538364+1003633971+1003684162+1003926550
2410+1004427611+1004800774+1004678282+1004229938+1003838102+1003550578
2401+1003180784+1002675090+1002150022+1001736074+1001467784+1001249614
2393+1000954719+1000565340+1000154271+999759908+999343293+998849532+998314706
2383+997882578+997686169+997761840+998094150+998614796+999160431+999550512
2373+999634888+999246843+998432706+997745906+997736289+998131564+998237350
2363+998088604+998349032+999111996+999626254+999284819+998347769+997558622
2353+997268782+997061913+996347034+995088765+993860751+993360252+993610712
2343+993686875+992804297+991220177+989669751+988471781+987447407+986458201
2333+985683655+985342360+985387075+985595839+985813448+986010559+986233432
2323+986596698+987236677+988161444+989190381+990163231+991116708+992077835
2313+992830972+993141660+993082485+992897588+992723361+992620102+992639827
2303+992729187+992740489+992595393+992368238+992210577+992214086+992332227
2293+992456264+992533901+992545483+992445383+992237602+992019011+991827656
2283+991522513+990953852+990278424+989902171+989996445+990315838+990671663
2274+991200662+991884445+992271086+992034875+991417990+990870950+990593815
2264+990514283+990364484+989819129+988889730+988074821+987820290+988025052
2254+988314050+988457461+988278391+987652310+986902964+986676722+987112290
2244+987586606+987535222+987160093+987123030+987719909+988524429+988938306
2234+988975370+989164198+989720363+990269438+990430258+990304466+990355288
2224+990909207+991644935+991718641+990773799+989561158+989012854+989060448
2214+989041424+988887484+989123343+989914596+990868002+991620226+992036630
2204+992044001+991782028+991634476+991734505+991833342+991857279+991993459
2194+992180392+992127113+991783853+991260891+990610171+990104828+990160845
2184+990612698+990672014+989860966+988534888+987658908+988389301+991064552
2174+994110159+995151942+993748367+991738296+990700724+990445631+990274773
2164+990391720+991386191+993285282+995709792+998023251+998960583+997654019
2155+995256956+994036031+994791203+996145922+996395329+995127233+993067884
2145+991384577+991074239+992070535+993069428+992842484+991513176+990249783
2135+989973210+990517793+990962206+990638180+989605943+988229323+986749234
2125+985361103+984299103+983709454+983617988+983862061+983916533+983253810
2115+982183667+981771615+982476105+983388657+983325480+982228101+981021146
2105+980464770+980605514+981088043+981606303+982086866+982603581+983139530
2095+983429932+983109626+982067633+980640612+979362688+978454910+977687735
2085+976855557+976124463+975718728+975508420+975107670+974209789+972844681
2075+971544856+971044638+971394636+971803249+971889380+972378648+973778854
2065+975183903+975447069+974871319+974616857+975114057+976052933+977365814
2055+979251497+981307266+982431179+981958828+980507871+979343665+979077340
2045+979454716+980182090+981222259+982517170+983856305+984837859+985211725
2036+985646591+987355450+990214545+992377503+992604799+991676593+990848979
2026+990138803+988870988+987032266+985285080+983893509+982328763+980154292
2016+977775901+975758600+973983195+972236150+971029896+971012277+971863197
2006+972481837+972182941+971330828+970886485+971383124+972221338+972337022
1996+971752076+971866706+973931882+977415092+980096661+980058825+977383153
1986+973945851+971801073+971751725+973277371+975240551+976503242+976519387
1976+975679348+974841064+974578319+974755705+974461864+972828887+970336217
1966+968580186+968382583+969083985+969613405+969393129+968732933+968655647
1956+969685988+970991850+971424400+971056080+970867041+971264914+971753129
1946+971988778+972415080+973420431+974305115+974035070+972870654+972069153
1936+972391143+973516670+974614681+975107389+974935338+974384577+973788962
1926+973357676+973121606+972871847+972275038+971292922+970339235+969886258
1917+969939678+970081966+970086248+970067084+970039848+969725790+968965002
1907+967994328+967132317+966566956+966458994+966824155+967331113+967518748
1897+967122349+966113979+964740940+963589861+963276154+963870365+964700296
1887+965070933+964955319+964719811+964640489+964789586+965137479+965631169
1877+966220467+966829139+967317635+967618005+967957755+968781439+970138614
1867+971289974+971621441+971316438+970775716+970160375+969564338+969218270
1857+969248946+969457359+969557248+969492878+969416224+969437915+969471749
1847+969403869+969330725+969323144+969024669+968191579+967255863+966776843
1837+966766945+966697311+966243000+965728180+965637066+965885771+965830316
1827+965288050+964721566+964294983+963680274+962808295+962076288+961766793
1817+961714146+961602253+961393980+961331435+961625558+962201940+962782112
1807+963213258+963536582+963861661+964353175+965147306+966051224+966549407
1798+966392659+965863238+965448238+965533737+966059928+966363878+966059226
1788+965528402+965239614+965140427+964831282+964266202+963742538+963254744
1778+962475144+961335787+960209488+959621243+959682243+959795260+959532234
1768+959026259+958355042+957538168+956927530+956965647+957492821+958024137
1758+958561279+959090629+959108389+958465320+957914209+958442226+959960642
1748+961162332+961351792+960908362+960369957+960049300+960032874+959978612
1738+959308167+958081698+957271843+957862755+959013483+959305079+958965258
1728+958565420+958177867+957756689+957326105+956760182+955962893+955300380
1718+955495385+956593957+957392791+957346742+956902751+956328685+955637463
1708+954965263+954616457+954579534+954338620+953778243+953623531+954354766
1698+955047673+955011663+954569356+953705029+952335990+950864395+949656106
1689+948566870+947318218+946236985+946011304+946067250+945177512+943478200
1679+941561420+939816621+938434315+937295661+936068138+934710191+933472209
1669+932266026+930617045+928559170+926620699+925205121+924077417+922662400
1659+920847545+918885699+917181262+916639698+917997224+918932028+917977920
1649+916626431+916161731+916420966+916033062+914783567+913333593+912036084
1639+910970926+910449227+911032488+912167492+912416127+911813843+911263153
1629+911447839+912353021+913445135+914631101+916195636+917666179+918260320
1619+918313880+919094392+921285780+923560492+924695776+925084313+925476850
1609+926185974+927010429+927662482+928162982+928671203+929167772+929489692
1599+929574208+929522755+929490675+929572805+929721691+929731940+929345509
1589+928320081+926232654+922321808+916203639+909149753+903967441+902720684
1579+905297520+910945515+919127876+927066305+931486847+933103187+934182245
1570+935969091+937955155+939212441+939721154+939601258+938882097+938323545
1560+940056271+944351091+946472423+945996843+944967134+944058513+943308255
1550+942744298+942319399+941936549+941615541+941396599+941431837+942499944
1540+944761529+945981470+945471284+944614818+944614959+945474793+945979364
1530+945656391+945115669+944861137+944809964+944852995+945409370+946662515
1520+947737150+948037871+948013021+947981644+947640139+946705756+945267855
1510+943525653+941492908+939031335+936559934+934877328+934204988+934606511
1500+936050730+938308313+940937234+943043825+943907170+943802928+943465494
1490+943448296+943516036+942470392+939333249+933359965+922758078+905099918
1480+880256886+852150288+827112040+812314099+814391558+834623114+861998337
1470+882133514+893215333+900064035+905917845+911264487+915026096+916796446
1460+917306563+917506131+917664634+916023866+910704671+901828279+889545050
1451+872735493+847644037+809446089+760374243+713566368+685435061+685964622
1441+711541064+749547166+790389197+827642093+854211672+869799252+879977294
1431+888378387+895264153+900030622+903203073+905730281+907866635+909366238
1421+910470426+911970591+913859152+915066810+915342681+915298738+915379253
1411+915605707+915767088+915747363+915723075+915901093+916090763+915987996
1401+915726725+915645297+915783093+915977958+916257058+916624957+916831404
1391+916833861+917039185+917888069+919235487+920431913+921202808+921733141
1381+922153547+922459533+922679949+922931673+923382263+924089210+924833080
1371+925385525+925786206+926115847+926339914+926562577+927109055+928102683
1361+929135903+929787395+930126724+930405964+930753015+931205711+931745591
1351+932239773+932513257+932545758+932470367+932353561+932124931+931731832
1341+931217083+930628276+929927155+929023729+927870895+926499891+925020153
1332+923597696+922374946+921431648+920879063+920907703+921605665+922754147
1322+923911122+924675700+924844592+924402917+923382895+921698324+919157218
1312+915644104+911198923+905954488+900219801+894727011+890667208+889317122
1302+891444070+896825529+904213549+911834621+918157974+922467114+924846488
1292+925730891+925548451+924700409+923672735+922996956+923027561+923782522
1282+925022049+926455878+927900729+929303040+930662391+931951266+933116173
1272+934133458+935028531+935829962+936523221+937087108+937568303+938042339
1262+938474327+938723103+938739669+938660698+938644413+938716504+938800108
1252+938798704+938629952+938273776+937813148+937359610+936932816+936491001
1242+936070595+935790091+935721649+935843089+936102745+936468327+936936677
1232+937529064+938248084+939030352+939764044+940359238+940761884+940874128
1222+940500333+939393618+937221323+933378146+926918963+916674937+901202690
1213+878643635+847065057+805166992+752740044+691160622+624731688+562249787
1203+516339407+498489681+511687428+546898418+587993191+621869925+645337531
1193+663843170+684765037+711538256+742384405+772814852+798840902+818723583
1183+832949284+843120868+850642963+856095109+859642901+861755809+863294582
1173+865059528+867485512+870647855+874306907+877968697+881066039+883126792
1163+883855780+883302703+882044294+881000616+880877421+881749610+883146587
1153+884433074+885099869+884816627+883365810+880586598+876293112+870142161
1143+861633738+850353824+836259320+819855147+802303264+785181615+769662898
1133+755973988+744251416+736025042+734190462+740991921+756039691+776330072
1123+798005496+818093781+835008211+848161594+857631004+864011076+868086322
1113+870489913+871747691+872480961+873333144+874725558+876762655+879289300
1103+881981258+884472104+886459571+887633324+887429614+884847303+878388752
1094+865857168+844086558+809654923+761702216+705784125+654891738+624401134
1084+623185123+648068377+686466595+724316440+752465085+768040732+772359418
1074+768369040+759141455+747519195+736435269+729027594+727947273+734347631
1064+747556258+765618257+786069668+806485490+824807145+839408186+848809225
1054+851180596+843943709+823992306+788993063+739249509+678584463+613310961
1044+550095122+494192790+448751181+415007645+392841057+381165623+378145532
1034+381601928+389722165+401534132+416454109+433072522+448444774+459139145
1024+463815798+465227516+469236532+481001712+501641986+528251613+556520575
1014+583212999+607003964+627955734+646583726+663250503+677906437+689845634
1004+697480184+698423412+690477471+674153813+655227628+643391128+646037598
994+662814022+686792095+710359801+729357166+743040320+752432444+759223866
984+765012042+770612233+775992288+780840746+785004369+788474593+791325827
975+793761428+796031787+798286070+800593282+803008246+805510744+807996886
965+810429118+812887954+815403017+817846971+820074721+822092794+824003678
955+825815515+827358850+828373117+828679594+828333386+827572177+826541064
945+825137278+823207792+820812905+818232349+815877614+814290476+814038752
935+815382800+818016495+821206777+824184925+826413447+827655711+828003814
925+827800175+827368046+826863545+826477957+826617648+827700426+829897078
915+833153134+837258635+841791701+846185638+849999544+853097517+855584221
905+857649045+859456459+861090980+862579422+863928946+865063950+865714459
895+865419775+863552203+859062518+850140708+834665443+811939953+784619062
885+758720839+740957034+735216591+740877923+753784284+768394380+779231145
875+781260520+770522873+746485975+715200046+689240542+681511158+696589112
866+727757954+762714377+791905297+812133694+824649344+831913537+835982887
856+838255843+839563109+840395146+841184292+842327790+844013063+846223193
846+848899146+851925660+855024054+857892696+860437944+862712374+864725534
836+866468016+867950562+869059032+869626429+869853584+870386935+871663947
826+873314683+874524095+874981494+875192714+875771132+876719133+877583390
816+878057425+878183077+878150295+878150716+878343475+878789152+879412635
806+880095926+880848220+881812717+882964989+883908849+884272746+884250213
796+884391167+884903881+885495425+885862271+885992696+885834684+884743623
786+881267081+873351466+859110532+838553405+815373254+796225037+786869625
776+788673951+798747190+812595305+826297061+837317880+844494539+847454717
766+845941776+839462798+827091824+807622389+780427992+746229688+706869781
756+664654780+622066685+581511370+544766732+512796845+486341650+466720521
747+456348632+458619377+476614198+510943593+558077775+610626233+660293624
737+701710634+733698456+757539084+775037126+787880452+797480989+804791653
727+810422028+814874368+818540019+821695062+824614596+827529849+830494309
717+833425285+836178524+838513113+840107762+840637463+839705256+836570290
707+829730081+816527140+793404550+757630550+710204246+657467241+608299296
697+568131149+536509892+511735407+497033038+500300114+526830805+572692539
687+625912811+674206601+711473606+737801640+755558075+766824440+773472732
677+777631301+780980296+783951776+786168715+787443480+788038113+788532927
667+789674810+791657153+794253995+797322065+800451837+802997506+804776069
657+806190525+807648081+809256488+810857104+812096912+812704741+812818600
647+812838886+812962221+813027363+812738576+811961082+810949553+810286689
637+810414798+811238341+812211331+812702144+812365623+811408216+810434382
628+809783312+809096511+807779769+805805498+803749378+802014617+800258025
618+797755176+794474692+791685863+791094740+793204139+796672047+799463052
608+800576435+800459980+800014725+799604427+798982277+797904273+796609853
598+795513668+794650534+793976720+793927512+794804194+795845837+796003568
588+795295427+794391018+793537923+792657521+791827169+791117765+790464729
578+789862866+789260371+788421244+787214780+785724162+783904744+781427868
568+777714484+771819749+762499646+748575649+728946166+702474089+669379202
558+634258379+607023478+598055480+610409186+636809523+664472270+682776235
548+688090587+684072691+678307609+677585921+684819018+698926719+716322696
538+732781411+745380664+753458433+757936606+760092194+760976808+761222144
528+760755409+759056728+756105606+752410824+747509507+739124138+723865990
518+698918506+664759724+626588591+591548213+565221652+551087838+551015571
509+564937743+589624483+618436694+644565582+664482378+677754252+685197446
499+687651017+685633155+679672717+670540529+658934133+645505932+631417324
489+618124181+606563341+597464848+592873519+596175412+608947138+628723400
479+651012761+672332992+691200072+707330760+720421809+730034279+736747502
469+742102918+747027891+751235808+753996698+754821294+753481107+750011654
459+745030385+740416452+738894386+741711785+748092768+756505655+765513454
449+774031143+780738961+784550761+786686062+790031898+795333404+800511785
439+804109064+806228010+806780946+805798689+804606264+804435687+805200476
429+806700571+809221461+812388296+815392628+818727022+823753498+830431764
419+836370932+838695132+838044763+836826506+836564814+838074245+840422522
409+840584254+836564744+830388031+825950643+824415028+824293659+825396583
399+829519844+835803886+839144458+838912810+839255228+841592905+844771042
390+847686856+849416072+848797292+845913908+842720258+839754113+835606143
380+831034258+828893833+829491133+828673557+826066115
##END=
