##TITLE=MSB-448
##JCAMP-DX=4.24
##DATA TYPE=INFRARED SPECTRUM
##DATE=28/7/2021
##SAMPLING PROCEDURE=Diamant-ATR
##ORIGIN=Angelika Moesle
##XUNITS=1/CM
##YUNITS=TRANSMITTANCE
##RESOLUTION=4
##FIRSTX=3997.453
##LASTX=373.96442
##DELTAX=-1.4165319
##MAXY=0.92811579
##MINY=0.76444381
##XFACTOR=1
##YFACTOR=8.6437518e-010
##NPOINTS=2559
##FIRSTY=0.90370274
##XYDATA=(X++(Y..Y))
3997+1045498243+1045286477+1045391015+1045546100+1045395015+1044908662
3989+1044444099+1044375487+1044708066+1045105120+1045257584+1045119325
3980+1044781643+1044354800+1044016359+1043889892+1043848105+1043744738
3972+1043741359+1044068905+1044636972+1045164078+1045486590+1045532239
3963+1045232001+1044697585+1044334182+1044486921+1045030509+1045563822
3955+1045916191+1046192915+1046400889+1046376824+1046117339+1045937430
3946+1046168022+1046731814+1047112594+1046860556+1046197536+1045695115
3938+1045564235+1045733593+1046113132+1046499567+1046675338+1046761879
3929+1046962337+1047062531+1046791599+1046341724+1046186571+1046448746
3921+1046761258+1046816562+1046760776+1046955165+1047423176+1047865465
3912+1048061510+1047933250+1047560676+1047227752+1047110387+1046906688
3904+1046091135+1044662072+1043196117+1042201896+1041999301+1042730313
3895+1044184683+1045814756+1046852281+1046884140+1046608450+1046811597
3887+1047225269+1047220787+1046882416+1046836146+1047188377+1047560262
3878+1047696383+1047558745+1047099699+1046470536+1046168298+1046385926
3870+1046573696+1046263941+1045779726+1045561753+1045760280+1046327381
3861+1046913791+1047124661+1046906551+1046419922+1045641605+1044333768
3853+1043013312+1043020897+1044046769+1045100086+1045865715+1046400131
3844+1046775739+1046898620+1046630516+1046102030+1045737110+1045855785
3836+1046261390+1046502463+1046419577+1046281663+1046472191+1046929996
3827+1047163553+1046975990+1046808218+1047031156+1047286710+1046933168
3819+1046129061+1045465282+1045123945+1045174560+1045599748+1046192778
3810+1046820906+1047406971+1047703210+1047488064+1047102595+1047033707
3802+1047275125+1047529163+1047744860+1047993587+1048089437+1047856984
3793+1047464205+1047174793+1047051567+1046968612+1046733400+1046309797
3785+1046039073+1046409854+1047366769+1048255624+1048552966+1048444083
3776+1048394296+1048480354+1048606132+1048725910+1048670055+1048254658
3768+1047665559+1047197618+1046904620+1046842007+1047089838+1047528542
3759+1047942766+1048368299+1049054834+1050018852+1050930876+1051276281
3751+1050840749+1050414665+1050607261+1050700422+1049845011+1048441462
3742+1047937250+1048337889+1048597926+1048164600+1047299053+1046925996
3734+1047566951+1048442704+1048718393+1048430498+1047998001+1047786648
3725+1047909667+1048152533+1048294653+1048404019+1048534554+1048458357
3717+1047975383+1047239130+1046645687+1046622655+1047354219+1048221973
3708+1048401054+1048056545+1047850088+1048011654+1048130329+1047836021
3700+1047606256+1047985450+1048539657+1048489043+1047772442+1047040327
3691+1046755397+1046761534+1046830905+1047123765+1047660939+1048252107
3683+1048884373+1049608144+1050133389+1049773089+1047926768+1045157527
3674+1043979192+1045496520+1047832780+1049086554+1048523866+1047093079
3666+1045997836+1045626710+1045960048+1046687337+1047303329+1047432899
3657+1046967853+1046131475+1045552375+1045771658+1046863039+1048381746
3649+1049045732+1048148809+1047035569+1046427852+1046020040+1045825789
3640+1046293317+1047414970+1048338165+1048337613+1047725621+1047381250
3632+1047530680+1047467446+1046590521+1045711113+1045815790+1046423645
3623+1047061635+1047672455+1048017446+1047757134+1047250094+1047075771
3615+1046979231+1046629757+1046443367+1046842490+1047471790+1047902771
3606+1048296998+1048801487+1049118412+1048976430+1048474079+1047956213
3598+1047695900+1047741412+1047919252+1047979382+1047906495+1047918907
3589+1048108538+1048278448+1048156601+1047776856+1047326084+1046923859
3581+1046792427+1047178448+1047983864+1048699844+1048889200+1048696258
3572+1048747769+1049438442+1050400666+1050694078+1049760608+1048440773
3564+1047776649+1047655905+1047604808+1047459309+1047382836+1047661215
3555+1048375057+1049177509+1049514984+1049223434+1048655987+1048056683
3547+1047309535+1046409095+1045733042+1045563477+1045786483+1046245323
3538+1046880623+1047481927+1047707761+1047562813+1047481306+1047789406
3530+1048362507+1048812037+1048873960+1048596753+1048220593+1047971521
3521+1047912218+1047884084+1047671145+1047323464+1047210168+1047565572
3513+1048064889+1048055855+1047230786+1046071275+1045476108+1045829237
3504+1046654582+1047169207+1047092251+1046739054+1046358481+1045956324
3496+1045657810+1045687806+1045960600+1046112305+1046005284+1045913847
3488+1046129889+1046520737+1046568731+1045864267+1044680897+1043989466
3479+1044480508+1045724146+1046693267+1046802770+1046256770+1045625400
3471+1045316197+1045335367+1045434734+1045555478+1045893573+1046383168
3462+1046570248+1046278491+1045901090+1045797999+1045909089+1046100582
3454+1046378134+1046636239+1046618311+1046253391+1045794482+1045526102
3445+1045447077+1045355641+1045143667+1044868322+1044625111+1044506298
3437+1044629111+1045020234+1045490727+1045769658+1045773519+1045650225
3428+1045621332+1045850958+1046358412+1046952752+1047335738+1047338841
3420+1046981369+1046332622+1045553478+1045050713+1045201936+1045837856
3411+1046360067+1046482879+1046470743+1046585418+1046694232+1046539286
3403+1046103961+1045625193+1045352400+1045307095+1045287097+1045151252
3394+1044982653+1044894319+1044890733+1044984032+1045209245+1045487555
3386+1045720698+1045986252+1046391649+1046784842+1046892966+1046697335
3377+1046396338+1046054174+1045615332+1045254412+1045325369+1045822548
3369+1046173125+1045764831+1044610837+1043422089+1043016967+1043643303
3360+1044823983+1045821996+1046213740+1046028936+1045498519+1044815846
3352+1044124622+1043588551+1043342719+1043351201+1043394713+1043299966
3343+1043169913+1043287071+1043719017+1044157169+1044277154+1044096280
3335+1043778044+1043327825+1042762861+1042313124+1042145076+1042113011
3326+1042008196+1041861525+1041839459+1041982475+1042106460+1041987578
3318+1041684719+1041506879+1041523360+1041389239+1040853375+1040125397
3309+1039536987+1039134348+1038745707+1038259836+1037759554+1037422217
3301+1037314092+1037397944+1037723351+1038349618+1039090560+1039621597
3292+1039787577+1039568363+1038967748+1038200120+1037722455+1037781275
3284+1038092754+1038171158+1037876298+1037493380+1037349053+1037507516
3275+1037792653+1037963666+1037918569+1037875333+1038185708+1038809078
3267+1039237714+1039181239+1039033050+1039359423+1040156979+1040842342
3258+1040900541+1040430255+1039973209+1039819573+1039777164+1039739996
3250+1039993965+1040665536+1041367035+1041754711+1041999370+1042374288
3241+1042766033+1042880156+1042623568+1042166314+1041896417+1042269405
3233+1043337823+1044479198+1044925970+1044536019+1043816729+1043370095
3224+1043524628+1044231160+1045067883+1045588232+1045813032+1046122304
3216+1046656720+1047168104+1047461171+1047649975+1047902081+1048177082
3207+1048292860+1048150878+1047853191+1047631150+1047631426+1047756720
3199+1047793130+1047720656+1047735137+1047887738+1047936284+1047725828
3190+1047476479+1047451517+1047567158+1047615772+1047685143+1048049718
3182+1048747907+1049518845+1050092843+1050359913+1050286612+1049911003
3173+1049504916+1049457956+1049791915+1050068915+1050004716+1049828117
3165+1049824462+1049946102+1050069673+1050235652+1050476933+1050696905
3156+1050783998+1050707456+1050565404+1050558095+1050760070+1050951218
3148+1050828682+1050331503+1049677722+1049152891+1048895682+1048872581
3139+1049038974+1049392171+1049800879+1050026092+1050047331+1050103255
3131+1050282474+1050392736+1050322469+1050245031+1050369636+1050662358
3122+1050871780+1050806409+1050582230+1050489276+1050552440+1050470106
3114+1050104841+1049696340+1049428650+1049183163+1048897750+1048774662
3105+1048917472+1049093174+1049045525+1048803004+1048520832+1048244935
3097+1047986347+1047771684+1047429175+1046619414+1045351434+1044190062
3088+1043671920+1043726947+1043888927+1043826659+1043447327+1042716039
3080+1041648310+1040423773+1039299224+1038357686+1037496276+1036728717
3071+1036285876+1036294426+1036589079+1036927106+1037142114+1037039230
3063+1036404688+1035217388+1033731298+1032340092+1031332701+1030711813
3054+1030270764+1029861712+1029543544+1029497826+1029857988+1030599620
3046+1031563155+1032527655+1033251082+1033606210+1033724402+1033800324
3037+1033760260+1033405545+1032831203+1032396430+1032309820+1032455526
3029+1032620954+1032764177+1032977185+1033219569+1033287629+1033155370
3020+1033123374+1033458780+1034077255+1034714830+1035247247+1035734289
3012+1036229607+1036664104+1036957999+1037153354+1037359328+1037679840
3003+1038235426+1039076631+1040073817+1041055143+1041922552+1042500135
2995+1042565161+1042216101+1041900554+1041930689+1042219066+1042522477
2986+1042719556+1042869951+1043128608+1043552762+1043977812+1044170064
2978+1044048493+1043662335+1043070064+1042366841+1041710095+1041183334
2969+1040696636+1040104227+1039377835+1038617723+1037890434+1037108739
2961+1036133619+1034929010+1033517394+1031931178+1030313379+1028806809
2952+1027207560+1025086652+1022389954+1019535345+1016808237+1014057063
2944+1011008133+1007495261+1003373292+998554997+993231248+987844678+982696631
2934+977664983+972500248+967355511+962753395+959028549+956107604+953870503
2924+952451922+952101276+952862905+954455396+956487349+958793751+961474727
2914+964616197+968097832+971671938+975073858+978098515+980727015+983154574
2904+985575444+988007072+990413323+992843296+995285888+997554570+999498397
2894+1001209080+1002889146+1004635687+1006415603+1008134078+1009710364
2885+1011150805+1012496499+1013731862+1014873582+1016053159+1017307554
2877+1018402521+1019069955+1019320820+1019392535+1019487558+1019599889
2868+1019498591+1018907285+1017750740+1016114944+1013971694+1011181215
2860+1007794327+1004073136+1000160107+996044621+991957682+988512940+986320730
2850+985614543+986249291+987879226+990195557+993155464+996859416+1001078268
2840+1005164379+1008655530+1011688669+1014572378+1017263284+1019563410
2832+1021543715+1023400725+1025075412+1026360493+1027278448+1028085037
2823+1028974719+1029975766+1031041702+1032084814+1032974634+1033621036
2815+1034060498+1034419350+1034789166+1035171187+1035581757+1036129826
2806+1036862149+1037592195+1038069998+1038275007+1038379545+1038489256
2798+1038582899+1038637582+1038677853+1038732950+1038823973+1038999468
2789+1039352528+1039907079+1040432738+1040546516+1040198284+1039899976
2781+1040213593+1041081829+1041889246+1042150868+1041947169+1041698511
2772+1041721129+1042060466+1042571643+1043038757+1043314378+1043426019
2764+1043484840+1043501941+1043445879+1043442776+1043678333+1044080765
2755+1044349352+1044355214+1044302393+1044424240+1044710273+1044999133
2747+1045190144+1045313025+1045480108+1045767589+1046082309+1046214637
2738+1046057139+1045706907+1045364260+1045216348+1045342332+1045636778
2730+1045906193+1046078585+1046203811+1046277250+1046248357+1046180710
2721+1046241530+1046523288+1046943787+1047278159+1047290916+1046959440
2713+1046577902+1046514875+1046844420+1047306363+1047619910+1047728172
2704+1047731068+1047707278+1047658664+1047558676+1047410074+1047284848
2696+1047292916+1047459654+1047670386+1047817747+1047957592+1048169083
2687+1048295825+1048056545+1047441242+1046765258+1046303798+1046113615
2679+1046178848+1046424059+1046626379+1046611484+1046502739+1046548044
2670+1046779256+1047016537+1047108939+1047038534+1046872072+1046686716
2662+1046521702+1046384547+1046304901+1046322899+1046418129+1046545492
2653+1046753466+1047140935+1047651630+1048047305+1048152188+1048032410
2645+1047910494+1047975314+1048254038+1048608062+1048901060+1049164200
2636+1049496710+1049846873+1050043125+1049998234+1049792053+1049585044
2628+1049460163+1049337006+1049139031+1049011460+1049141306+1049418858
2619+1049590629+1049665792+1049858389+1050235928+1050671529+1050971216
2611+1050910189+1050445006+1049985270+1050047193+1050574851+1051013417
2602+1051072376+1050958873+1050864539+1050699870+1050403149+1050134010
2594+1050077948+1050275234+1050640636+1051026933+1051353375+1051703952
2585+1052151965+1052540330+1052688381+1052711137+1052837673+1053054680
2577+1053229900+1053357815+1053418083+1053268653+1052936971+1052734651
2568+1052859601+1053099295+1053119224+1052916352+1052787817+1052895872
2560+1053093916+1053244174+1053451596+1053870854+1054494225+1055195585
2551+1055814267+1056198495+1056258004+1055949009+1055319708+1054687649
2543+1054477192+1054677512+1054802738+1054544287+1054133442+1053997183
2534+1054323004+1054891278+1055200757+1054925964+1054274942+1053685015
2526+1053328163+1053181285+1053351333+1053954154+1054771155+1055323845
2517+1055361909+1055169175+1055286333+1055924667+1056725325+1057138170
2509+1056957090+1056451773+1056072717+1056094783+1056479494+1056944126
2500+1057115691+1056745875+1055935424+1055098701+1054595453+1054458988
2492+1054540977+1054728057+1054950857+1055191448+1055499823+1055811508
2483+1055913909+1055813508+1055831161+1056086026+1056250212+1056085129
2475+1055831575+1055824128+1056024792+1056151121+1056088095+1055979832
2466+1055966868+1056013001+1056089543+1056369646+1057027150+1057893938
2458+1058501380+1058498415+1058018750+1057579633+1057558325+1057847875
2449+1058146321+1058359604+1058528135+1058609504+1058569302+1058463453
2441+1058277615+1057895386+1057340628+1056890960+1056853930+1057264844
2432+1057826774+1058141356+1058019509+1057608939+1057234021+1057074523
2424+1057032735+1056964261+1056887926+1056848482+1056789524+1056754839
2415+1056949229+1057401310+1057805673+1057836704+1057464130+1056953573
2407+1056673746+1056849793+1057429031+1058165491+1058776725+1059069447
2398+1059066551+1058971183+1058913397+1058825063+1058584335+1058186040
2390+1057806225+1057720650+1058008200+1058387118+1058524618+1058382015
2381+1058119014+1057901317+1057945932+1058455730+1059338517+1060182963
2373+1060616357+1060615047+1060495545+1060558158+1060655111+1060346253
2364+1059523045+1058513654+1057658450+1057168718+1057092452+1057142239
2356+1057022185+1056888202+1056978466+1057141136+1057177821+1057192922
2347+1057366487+1057639005+1057669552+1057166581+1056279519+1055599397
2339+1055784339+1056940816+1058326919+1058969459+1058611159+1057809121
2330+1057152582+1056723395+1056408951+1056329168+1056639681+1057116725
2322+1057284911+1057040183+1056772285+1056734221+1056769458+1056773182
2313+1056949091+1057435789+1058019716+1058385601+1058405668+1058123220
2305+1057707272+1057462751+1057670518+1058276925+1058839613+1058951117
2296+1058697493+1058523446+1058672048+1058976769+1059212050+1059377546
2288+1059548904+1059654132+1059537182+1059185294+1058806238+1058671221
2279+1058913328+1059434022+1059926926+1060059530+1059792322+1059450296
2271+1059342102+1059442642+1059524631+1059376788+1058950220+1058574129
2262+1058749556+1059399957+1059854590+1059920030+1060183032+1060859086
2254+1061274689+1060943834+1060319567+1060166413+1060733998+1061530105
2245+1061700222+1060990380+1060194893+1060035740+1060129246+1059928788
2237+1059917893+1060785164+1062133754+1062991026+1063036883+1062567631
2228+1061700222+1060280951+1058442697+1056858136+1056285380+1056837243
2220+1057776574+1058261065+1058284855+1058484830+1059065654+1059634411
2211+1060112213+1060859775+1061745458+1062014390+1061335371+1060386938
2203+1060273503+1061487766+1063308573+1064482427+1064705847+1064761150
2194+1065137517+1065546018+1065760750+1065896802+1065934521+1065646488
2186+1064865758+1063768585+1063188795+1064024828+1065822604+1066899091
2177+1066395843+1065298187+1065041115+1065710756+1066096639+1065264605
2169+1063567368+1061908334+1060643044+1059989125+1060804679+1063393252
2160+1066067953+1067059967+1067328347+1068375872+1069042685+1067686441
2152+1065235712+1063926772+1064384370+1065533813+1066424805+1066805723
2143+1066563546+1065768611+1064949541+1064570140+1064403333+1063935322
2135+1063269337+1063058259+1063648462+1064822522+1066181801+1067226843
2126+1067341794+1066275099+1064537316+1063033504+1062378344+1062603971
2118+1063353050+1064221838+1064871137+1064965056+1064404574+1063635774
2109+1063283611+1063532959+1064230596+1065245366+1066255378+1066654362
2101+1066229450+1065549190+1065319150+1065651315+1066109948+1066159252
2092+1065490301+1064262592+1063200862+1063108046+1063974283+1064862103
2084+1065023325+1064796387+1064944783+1065443617+1065591323+1065198820
2075+1064946300+1065345353+1065963345+1066109189+1065732271+1065107866
2067+1064261075+1063427179+1063335259+1064179499+1065099384+1065498024
2058+1066015270+1067345862+1068749342+1068646459+1066496106+1063417594
2050+1061136223+1060726275+1062018182+1063790030+1064673782+1064271556
2041+1063440350+1063162729+1063441384+1063826784+1064418917+1065503334
2033+1066693806+1067274975+1067123132+1066880334+1067470743+1069192735
2024+1070956377+1071226895+1070063247+1069111159+1069325615+1069990291
2016+1070190680+1069922506+1069387883+1068482134+1067370825+1066833995
2007+1067571283+1069084404+1069658746+1068106043+1065422585+1064029449
1999+1065265363+1068203686+1071059744+1072916271+1073741823+1073588877
1990+1072428676+1070484919+1068390698+1067080861+1067222154+1068353461
1982+1068905875+1067675752+1065325839+1063942977+1064773356+1066886747
1973+1068465792+1068659216+1068006745+1067755949+1068664594+1069883201
1965+1069610545+1067391719+1064815213+1063626326+1063791961+1064036137
1956+1063756034+1063476345+1063822233+1064720466+1065452512+1065269777
1948+1064196117+1063213688+1063343051+1064657025+1066338816+1067471640
1939+1067667753+1067238221+1067082309+1067837318+1068883602+1069075233
1931+1068433589+1068006470+1068203617+1068417936+1068159899+1067605899
1922+1067105892+1066814411+1066866681+1067348069+1067936478+1068077633
1914+1067625621+1066875369+1066164217+1065678484+1065501265+1065589875
1905+1065722134+1065677174+1065422240+1065043736+1064629512+1064270177
1897+1063990074+1063667701+1063220377+1062812773+1062723956+1063072258
1888+1063637704+1064021519+1064089096+1064103715+1064352236+1064727293
1880+1064919062+1064907477+1064882997+1064825832+1064598343+1064315827
1871+1064215012+1064306035+1064473255+1064809627+1065421689+1066139599
1863+1066686427+1066832823+1066470523+1065815088+1065411828+1065620491
1854+1066218831+1066779933+1067195123+1067565145+1067884071+1068114594
1846+1068295951+1068370148+1068232304+1068067979+1068130040+1068393870
1837+1068634460+1068715485+1068750446+1068874430+1068967798+1068798991
1829+1068505304+1068483100+1068670111+1068610946+1068166312+1067702645
1820+1067496051+1067398959+1067106582+1066605334+1066169457+1065903146
1812+1065622629+1065269225+1065095591+1065232195+1065526020+1065893975
1803+1066422116+1067062381+1067477363+1067415026+1067065277+1066826617
1795+1066977977+1067557491+1068263265+1068669628+1068766789+1068771271
1786+1068712657+1068512889+1068273747+1068241957+1068438761+1068583432
1778+1068478824+1068229752+1068009849+1067838008+1067621276+1067363171
1769+1067167195+1067073483+1067088860+1067179262+1067181055+1066937775
1761+1066641123+1066615609+1066721664+1066572442+1066143461+1065724410
1752+1065459684+1065293084+1065100487+1064759151+1064268660+1063784031
1744+1063486137+1063403871+1063358360+1063176383+1062970201+1062951376
1735+1063092738+1063126320+1062942895+1062770847+1062762572+1063016678
1727+1063616466+1064429812+1065093040+1065352663+1065386728+1065596632
1718+1066176560+1066745592+1066757453+1066426943+1066177043+1066154563
1710+1066322680+1066506864+1066506312+1066362537+1066354193+1066542859
1701+1066684841+1066573959+1066361709+1066234346+1066087192+1065864461
1693+1065648005+1065436308+1065167031+1064871688+1064639304+1064394162
1684+1063883812+1063183002+1062656723+1062284011+1061907231+1061421567
1676+1060781026+1060121591+1059623378+1059100133+1058150734+1056928128
1667+1056162637+1055994382+1056064511+1056123607+1056216354+1056527626
1659+1057123552+1058008407+1059232461+1060711656+1061574169+1061175805
1650+1060632424+1060322118+1059946717+1059516839+1059332311+1059171779
1642+1058560683+1057269809+1055187931+1051512941+1044734890+1036448131
1633+1031003983+1028963548+1029317917+1031837258+1036071006+1040711324
1625+1044832120+1048335614+1051074168+1052904906+1054116272+1055070566
1616+1055901015+1056566242+1057049009+1057358833+1057441650+1057138860
1608+1056301378+1054992783+1053365745+1051429434+1049177853+1046787048
1599+1044462442+1042293540+1040392880+1038920512+1037854301+1036914004
1591+1035840966+1034674077+1033741366+1033422440+1033942444+1035314686
1582+1037317678+1039515059+1041461023+1042805821+1043205426+1042806303
1574+1042502204+1042799684+1043842105+1045730973+1047992760+1049835840
1565+1050975146+1051483014+1051582657+1051437985+1050739590+1049083589
1557+1047575639+1046858970+1046749191+1047255128+1048380298+1049903211
1548+1051412885+1052550467+1053110190+1052939177+1051876620+1049641382
1540+1046818906+1045424391+1045599472+1046451780+1047567089+1048624060
1531+1049321560+1049730129+1050072569+1050503895+1051092373+1051751601
1523+1052296981+1052631422+1052778094+1052600668+1051826488+1050410320
1514+1048444221+1045795241+1042330639+1037931257+1030960609+1017455467
1506+1000786098+989751682+982864541+977232278+972659883+970493740+972403708
1496+978240084+985443667+992368666+999234292+1006097711+1011016684+1011999458
1486+1009896410+1006354093+1002402379+999171610+998241243+1000691972+1006219558
1476+1013371217+1020481848+1026621633+1031351664+1034354806+1035978948
1468+1036786986+1037074053+1037111083+1037346916+1037958426+1038719710
1459+1039218751+1038681232+1036379519+1032749765+1028196747+1022898029
1451+1017626342+1013630289+1011947533+1012675373+1014631888+1015578735
1442+1012944443+1005229544+992194894+973972478+954306311+942131899+941252767
1432+949396027+964123362+981329974+995704870+1005762236+1013352047+1019833377
1422+1025145748+1029240410+1032501382+1034838539+1035871651+1035817313
1414+1035066097+1033927549+1032840857+1032283685+1032486212+1033377618
1405+1034619670+1035683054+1036244708+1036352626+1036170373+1035837932
1397+1035389987+1034738000+1033941203+1033269562+1032857545+1032652467
1388+1032609231+1032755626+1033138889+1033719161+1034312674+1034725932
1380+1034985141+1035272692+1035562862+1035494388+1034664354+1032961739
1371+1030337583+1026495718+1021445314+1016047366+1011265963+1007440371
1363+1004853453+1003986113+1004704230+1006274862+1008057398+1009581139
1354+1010399657+1010192028+1009020381+1007475194+1006458976+1006616819
1346+1007965616+1010097143+1012611174+1015329870+1018198546+1021066257
1337+1023653383+1025733606+1027234315+1028237225+1028923001+1029440730
1329+1029845231+1030174914+1030525767+1031020946+1031720859+1032541033
1320+1033303213+1033909000+1034409075+1034852675+1035185323+1035347510
1312+1035380402+1035435706+1035751460+1036530811+1037705423+1038907893
1303+1039825848+1040522106+1041291803+1042233272+1043061306+1043380025
1295+1043054548+1042237409+1041119411+1039786956+1038278799+1036683964
1286+1035164774+1033905828+1033072759+1032830652+1033301214+1034418453
1278+1035889856+1037388083+1038729916+1039847018+1040678017+1041160095
1269+1041273529+1041035145+1040483904+1039756960+1039163930+1039072769
1261+1039651111+1040762145+1042106667+1043374164+1044294876+1044707790
1252+1044611527+1044121450+1043429812+1042790168+1042400285+1042255958
1244+1042186657+1042010403+1041618659+1040951707+1039957762+1038618343
1235+1037035989+1035437085+1033993955+1032661224+1031262433+1029721315
1227+1028169785+1026840158+1025844971+1025080101+1024405910+1023865908
1218+1023582564+1023455270+1023131862+1022309551+1020965925+1019326268
1210+1017712400+1016414631+1015622040+1015432615+1015868285+1016789274
1201+1017825489+1018554364+1018787921+1018602496+1018128969+1017417264
1193+1016450488+1015193473+1013703038+1012243703+1011208453+1010922557
1184+1011616747+1013472377+1016475037+1020259393+1024271030+1028088760
1176+1031530124+1034529888+1037018336+1038906514+1040135602+1040716633
1167+1040710082+1040176701+1039155449+1037665635+1035757666+1033663513
1159+1031896492+1031043219+1031307118+1032323956+1033541253+1034711382
1150+1035846620+1036830842+1037439870+1037757761+1038251217+1039322255
1142+1040937019+1042696455+1044149377+1045057609+1045458455+1045542859
1133+1045560167+1045807515+1046502670+1047574605+1048659228+1049304527
1125+1049166751+1048171634+1046601830+1044970999+1043789215+1043417193
1116+1043965538+1045209797+1046706093+1048039030+1048893475+1048948778
1108+1047842916+1045241586+1040856409+1034363840+1025418680+1014033342
1099+1001175980+988879239+979426970+974207414+973170164+975117370+978446058
1089+981950310+985313822+988948472+993299446+998308131+1003521964+1008530373
1079+1013127386+1017172123+1020484192+1022881134+1024264272+1024773381
1071+1024919570+1025405302+1026657560+1028570080+1030752566+1032957394
1062+1035203390+1037556683+1039909355+1041998473+1043605100+1044700274
1054+1045441147+1046077068+1046812080+1047645907+1048382504+1048912714
1045+1049418651+1050145388+1051056929+1051896549+1052507369+1052879667
1037+1052908284+1052272915+1050582161+1047648665+1043806317+1040083333
1028+1037840371+1037912293+1040005618+1042954975+1045543410+1047140521
1020+1047775683+1047796026+1047524336+1047181137+1046944546+1046946201
1011+1047261748+1047952696+1049014081+1050252892+1051206014+1051104096
1003+1049159649+1045430735+1041471849+1039530298+1040721184+1044172961
994+1048021032+1050967009+1052829053+1053984219+1054700957+1055025951
986+1055022641+1054881624+1054796738+1054772259+1054579248+1053978082
977+1053038751+1052153068+1051657958+1051523078+1051425849+1051045827
969+1050301230+1049407963+1048744114+1048622612+1049165510+1050331434
960+1051956955+1053736457+1055311226+1056518524+1057513641+1058512068
952+1059444434+1060018294+1060106007+1059899826+1059622895+1059213705
943+1058397669+1057043906+1055366047+1053736181+1052319186+1050932738
935+1049261912+1047227062+1045151873+1043508423+1042453658+1041721749
926+1041030594+1040379986+1039814608+1039161862+1038281213+1037381877
918+1036759885+1036264706+1035318134+1033562974+1031307600+1029204483
909+1027664607+1026749893+1026433450+1026705761+1027522624+1028808326
901+1030418125+1032100260+1033673995+1035194977+1036766298+1038293487
892+1039608565+1040735183+1041891659+1043263212+1044837498+1046442057
884+1047829263+1048677088+1048715635+1048040685+1047126109+1046369376
875+1045884057+1045822134+1046481983+1047899323+1049643795+1051231045
867+1052591496+1054037868+1055810129+1057718788+1059267491+1060106283
858+1060319705+1060320463+1060467548+1060680004+1060431139+1059269008
850+1057286497+1055009884+1053035096+1051839176+1051563487+1051736844
841+1051504666+1050408734+1048788661+1047272022+1046067138+1044951484
833+1043833279+1043050825+1043008002+1043717017+1044899766+1046395235
824+1048212870+1050281991+1052389797+1054280113+1055680697+1056359854
816+1056217872+1055262956+1053622057+1051647683+1049757022+1048078404
807+1046461365+1044747647+1042798236+1040512038+1038185432+1036684585
799+1036898213+1038961404+1042159695+1045620297+1048930505+1052008879
790+1054682822+1056693950+1057916418+1058377326+1058279752+1058079157
782+1058238309+1058863679+1059765843+1060801300+1061991565+1063353533
773+1064704951+1065715790+1066216900+1066317301+1066080779+1065223369
765+1063248512+1059750396+1054515049+1047420693+1038373064+1027508005
756+1015481023+1003361777+992144487+982337986+973862423+966208068+958719967
747+950837571+942392142+934078904+927562338+924643254+926081212+931164233
737+938223214+945538302+952166785+958177138+964017031+969765279+975184189
727+980286380+985496695+991175435+997004225+1001861136+1004456812+1004359376
717+1002493954+1000588468+999890555+1000116595+999775328+997593807+993270415
707+986955134+978819804+969473729+960145100+951851721+944467883+936699335
697+926941381+914571200+901036751+889771122+884388897+886387751+894547009
687+906427388+920006522+934062492+947774643+960356384+971078012+979587364
677+986166474+991571248+996417057+1000712659+1004251390+1007341418+1010725685
667+1014228283+1016749141+1018317359+1019575892+1020709957+1021417248
659+1021413249+1020807393+1020065624+1019727390+1019997425+1020574732
650+1021001369+1021136662+1021250165+1021775203+1023002567+1024944946
642+1027511315+1030654233+1034103665+1037175420+1039181721+1039978794
633+1040008239+1039927973+1040204628+1040905368+1041841320+1042828370
625+1043559865+1043374233+1041752780+1039233715+1037423665+1037660118
616+1039583395+1041489571+1042273336+1042373668+1042722383+1043542832
608+1044467958+1045220140+1045818135+1046478397+1047400006+1048436084
599+1049249844+1049997130+1051255525+1052988343+1054215914+1054116961
591+1053107984+1052361456+1052496612+1053145703+1053469732+1052811331
582+1050948322+1047985519+1044332872+1040804071+1038552145+1038564626
574+1040793589+1043980226+1046716574+1048576618+1050015335+1051404127
565+1052876288+1054807703+1057289600+1059401336+1060103663+1059589658
557+1058971459+1059140472+1060435483+1062671963+1064989880+1066274065
548+1066178974+1065489542+1065249641+1065521607+1064994707+1061815863
540+1054623381+1042443176+1023923073+997938729+965678478+931868697+903760893
530+888206214+888759524+904511283+929429829+954058135+971161863+978072656
520+974440971+961411907+942658523+923360172+907121509+895334979+889264840
510+891180946+902549665+920796768+939405067+952915036+960079177+962078445
500+960591182+957540735+954768047+953656047+955245849+960092693+967399712
490+975210668+982479417+989674312+996822110+1002703238+1006712531+1009703537
480+1012039659+1012886037+1012152887+1011537515+1013002367+1016883469
472+1021320777+1023893767+1023936520+1022264660+1019785590+1017183225
463+1015284220+1014687053+1014711326+1013535266+1010280569+1006665365
455+1004866210+1005235267+1006882372+1008547337+1009266695+1008754552
446+1007456024+1006588615+1007412720+1009566382+1011033371+1010902077
438+1010421930+1010720100+1011160735+1011007306+1010976275+1011635158
429+1012225912+1012080344+1011285822+1009485289+1006289411+1003393152
421+1004730020+1013210479+1023672208+1028130135+1028302182+1029502998
412+1034271368+1040529415+1043437466+1040593890+1034539404+1029868125
404+1028664206+1029356533+1029381151+1029202346+1034460379+1047580880
395+1058987250+1060847018+1054978716+1046456951+1038736053+1033087723
387+1029781860+1028946378+1030151193+1031877736+1032893747+1033432508
378+1034554919+1036704858+1037935325+1035285035
##END=
