##TITLE=X7622
##JCAMP-DX=5.0
##DATA TYPE=LINK
##BLOCKS=1


$$ === CHEMSPECTRA SPECTRUM ORIG ===
##TITLE=X7622
##JCAMP-DX=5.00
##DATA TYPE=INFRARED SPECTRUM
##DATA CLASS=XYDATA
##ORIGIN=ComPlat
##OWNER=
##XUNITS=1/CM
##YUNITS=TRANSMITTANCE
##XFACTOR=1
##YFACTOR=9.0744901e-010
##FIRSTX=3997.453
##LASTX=373.96442
##MAXX=3997.453
##MAXY=0.9743659542769453
##MINX=373.96442
##MINY=0.29264569405151314
##NPOINTS=2559
##XYDATA= (X++(Y..Y))
2559A065776027A065925655A065942930A065535888A064935144A064561272A064556149
2552A064894223A065545806A066274764A066711430A066806474A066780200A066594447
2545A066015576A065160111A064484751A064308521A064667286A065427838A066280281
2538A066865524A067038994A066861386A066488105A066232070A066403636A066905131
2531A067251941A067009896A066094988A064868607A064008150A064040203A064897376
2524A065938004A066424917A066127830A065580553A065603411A066276406A066897183
2517A067044052A066800431A066170721A065147171A064276533A064317717A065154134
2510A065926312A066155285A066087500A066161131A066330595A066109372A065244055
2503A064141619A063628300A064131175A065290756A066549519A067638293A068356742
2496A068275951A067050817A065047595A063433877A063193408A064181226A065652345
2489A066940929A067612873A067599211A067090753A066380646A065850250A065708833
2482A065756716A065712446A065430268A064821905A063990612A063507705A064147333
2475A065688668A066880040A066854686A065615234A063877833A062634505A062688957
2468A064048414A065642558A066378019A065897608A064730671A063901085A063877702
2461A064360871A064781576A064645413A063763872A062976783A063670469A065462453
2454A067303634A068570739A068897779A068194634A066760692A065181327A064035868
2447A063820688A064803317A066511685A067972426A068499735A068024316A067095876
2440A066431880A066356606A066678785A066938236A066871041A066618421A066437003
2433A066305373A066251184A066639637A067545876A068366003A068563777A068043102
2426A067058371A066384784A066732908A067344949A066811072A065157484A064114360
2419A064747420A066232398A067676521A068744013A069286364A069309681A069042151
2412A068817382A068808777A068865002A068741583A068442130A068117127A067825886
2405A067711464A068012493A068632745A069229153A069652025A069905893A069869110
2398A069348632A068533628A068044481A068262223A068785656A068813112A068030753
2391A066889038A066133741A066025166A066126122A065731822A064446588A062992416
2384A062753393A063464945A063931497A063780161A063326287A062983352A062642979
2377A061852015A060393311A058830497A058418135A059678737A061876318A064307667
2370A066453030A067747459A068014529A067690577A067323339A067025069A066747030
2363A066705846A067167275A067962245A068458814A068098867A067057780A066529354
2356A067564990A069461542A070776596A070802147A069735969A068422622A067782075
2349A067955348A068436349A068964382A069614585A070503352A071703065A073047414
2342A073741823A072837029A070872560A069300551A068575928A068281796A067905034
2335A067297788A066670180A066278508A066434047A067232105A067787592A067207670
2328A066030749A066305176A068670053A071162817A072179470A071767173A070904614
2321A070217102A069569066A068927862A068802209A069185539A069083072A067816558
2314A065814715A064277519A063889459A064527117A066024575A067856626A069207477
2307A069774656A069998507A070194704A069994631A068967403A067306984A065520912
2300A063843874A062649678A062763902A063915864A064923650A065347769A065455228
2293A065573196A065714022A065665482A065224284A064357521A063446028A063137971
2286A063526162A064154296A064859345A065586004A065823188A065226057A064119155
2279A063005750A062031594A061068934A059991392A058901304A058323090A058570850
2272A058979928A058605202A057563852A057223413A058172872A059290481A059518272
2265A058896378A058272186A058208669A058254517A057829411A057279967A057126201
2258A056897950A055701193A053593664A051843127A051293617A051342223A051415526
2251A051565416A051830121A052032624A051998600A051541441A050525774A049313843
2244A048667055A048735892A048803743A048197613A046983778A045873132A045603106
2237A046393675A047724691A048576609A048202605A046807220A045302603A044388810
2230A044078849A043916938A043418596A042455607A041380889A040738699A040753018
2223A040999529A040725628A039618135A038163043A037110855A036579671A035934722
2216A034644036A032999907A031748434A031080693A030400473A029166012A027573970
2209A026251756A025380659A024547986A023408570A022126752A021141627A020577601
2202A020051146A019158109A017981451A016942794A016240635A015636344A014733324
2195A013317248A011501356A009568809A007689137A005936300A004451783A003305601
2188A002290656A001118530I99656607I97853457I95694629I93339736I91067407
2181I89054923I87364223I86032288I84992712I84001873I82761764I81129917I79208076
2173I77201372I75165242I72962669I70511286I67938980I65468220I63315238I61587625
2165I60055157I58260218I56051274I53734542I51589574I49558239I47474422I45297663
2157I43086551I40894422I38627545I36008931I32897624I29595177I26598422I24157351
2149I22215543I20475055I18437348I15775055I12719973I09774057I07190847I04977896
2141I03077074I01259277H99102814H96301271H92895766H89227920H85722970H82574092
2133H79649786H76792675H73990081H71158783H68107708H64799809H61383335H58005943
2125H54887213H52354711H50406859H48445806H45826995H42548982H39126006H36006028
2117H33279036H30711918H27970082H24980290H21956670H18954266H15829099H12768828
2109H10163746H07737322H04626803H00619307G96541726G93130638G90240488G87368006
2101G84324747G81220402G78231989G75484964G72952527G70513033G68113738G65638314
2093G62734042G59233362G55679214G52942698G51304019G50215509G48961607G47340204
2085G45613838G43929773G42080644G39859154G37339657G34761111G32391898G30488449
2077G29190341G28453961G28069120G27693080G27059561G26234704G25469292G24840436
2069G24260777G23738065G23469944G23698130G24427613G25309352G26007439G26609364
2061G27422201G28519842G29773744G31190345G32944101G35088610G37428462G39793273
2053G42320981G45261707G48556010G51849064G54944870G58046128G61436723G65040592
2045G68501863G71638130G74568150G77467825G80515682G83932287G87704307G91453929
2037G94879008G98070252H01173875H04039328H06483945H08796013H11706854H15687814
2029H20350571H24760249H28356040H31440680H34721976H38451631H42119017H45098365
2021H47428496H49599081H51805463H53899789H55834241H57705899H59618282H61793924
2013H64489519H67588412H70672330H73612137H76631947H79678556H82284164H84279899
2005H86200097H88713026H91897373H95204156H97978571H99991646I01505197I02843043
1997I04124533I05545141I07531680I10272203I13332934I16024259I18001997I19429107
1989I20701795I22072287I23568234I25297949I27542757I30309356I33107943I35486220
1981I37535947I39616020I41812681I43946089I45908982I47732231I49473901I51244012
1973I53179843I55263923I57341696I59332045I61185180I62762838I64058713I65309725
1965I66622021I67861473I69068149I70486589I72127697I73814128I75524466I77224624
1957I78659223I79685728I80451995I81112905I81823209I82919996I84558871I86296994
1949I87509779I88123593I88666535I89697638I91321931I93144655I94650192I95656139
1941I96389892I97181118I98112973I98945843I99468423I99876910A000529150
1934A001354597A001927162A002156202A002516214A003456477A004813700A005983068
1927A006630841A007030658A007572351A008266760A009030728A010055131A011407625
1920A012585926A013019504A012878415A012981473A013899732A015383593A016676052
1913A017192655A016860821A016024995A015160728A014592498A014422903A014692863
1906A015413479A016385730A017223658A017621241A017456901A016829686A016126082
1899A015685410A015278368A014376727A012900222A011176812A009409591A007845662
1892A007126359A007717578A009208336A010724120A011883504A012938121A014103089
1885A015185097A015951495A016535817A017205463A017928247A018509351A018988711
1878A019526727A020056532A020352437A020324061A020090030A019908283A020030915
1871A020477302A021065368A021694881A022307907A022646310A022527817A022306988
1864A022583254A023472612A024518559A025221375A025394189A025114442A024534258
1857A023735281A022753703A021640298A020326492A018569123A016238598A013480144
1850A010428740A006992035A002953011I97993626I91644504I83404282I72763319
1843I59131381I42102806I21846729H99136838H75367535H52619745H32965528H17192168
1835H04449983G93276916G82731588G72716066G63812438G57051939G53491617G53544164
1827G56574352G61302202G66709419G72544237G79112086G86799317G95748792H05782509
1819H16529551H27526651H38140290H47564264H55118617H60550991H63952817H65455070
1811H65185438H63492309H60921119H57785048H53990433H49500555H44778420H40561721
1803H37389393H35555109H35491593H37994997H43757300H52525817H62942798H73373048
1795H82755707H90753557H97501313I03297049I08288948I12420783I15690126I18221183
1787I20030245I20953298I20851554I19783602I18045742I16121011I14525488I13672387
1779I13859454I15220881I17612558I20651679I23913599I26980044I29321867I30330178
1771I29572516I26988715I22852150I17646516I11980046I06491644I01726420H98010559
1763H95380451H93718258H93113968H94112360H97498751I03720053I12398057I22377913
1755I32336947I41420877I49369529I56253383I62220291I67332062I71516116I74779087
1747I77423121I79891975I82451671I85108315I87734811I90268496I92848487I95648454
1739I98543596A001160962A003304222A005107832A006771010A008344266A009773020
1732A011013917A012077731A012994216A013751943A014286938A014550067A014612598
1725A014712634A015079872A015702028A016399918A017090976A017794187A018457527
1718A018996724A019434310A019837214A020180937A020409253A020611953A021057617
1711A021966483A023247513A024532944A025478987A026013062A026370907A026905966
1704A027756505A028705044A029442607A029855823A029964136A029772536A029342111
1697A028863145A028501883A028244141A028000257A027826787A027902783A028291828
1690A028877792A029522150A030097671A030403888A030283424A029863245A029527339
1683A029597883A030030476A030425367A030415514A030033038A029549408A029053890
1676A028456234A027838741A027436428A027216716A026813287A026049910A025300853
1669A025087972A025451663A025949348A026170965A025987642A025403122A024560334
1662A023871903A023748877A024128661A024579711A024869442A025116413A025393204
1655A025550123A025500597A025415602A025531403A025915324A026479613A027119307
1648A027750199A028266145A028580638A028714437A028734470A028637784A028445725
1641A028400534A028827938A029723405A030681139A031374234A031913235A032517722
1634A033060664A033301264A033399001A033741542A034319756A034705516A034622558
1627A034184907A033610634A033031895A032573094A032341362A032312264A032369080
1620A032412563A032343398A032092289A031767417A031574504A031517293A031428752
1613A031334036A031490035A032040924A032851593A033589615A033838556A033389411
1606A032567248A031986275A031890311A031982991A031889589A031526226A031002924
1599A030373411A029603860A028802781A028363948A028674041A029645701A030752012
1592A031569249A032098332A032483698A032679436A032595163A032405337A032388457
1585A032518839A032541303A032421167A032351148A032359293A032347996A032482779
1578A033049498A033912582A034593723A034907691A035070521A035166419A034976265
1571A034463275A034023128A033992257A034194628A034306159A034396080A034670901
1564A034918135A034730279A034142935A033593556A033377128A033477296A033786864
1557A034256699A034861778A035496546A036007237A036472934A037188690A038048753
1550A038437075A038297432A038647986A040197268A042028465A042593805A041593310
1543A039975191A038526471A037416678A036784078A036799317A037185537A037299236
1536A036744668A035686700A034671295A034242118A034544985A035249706A035879876
1529A036123957A035956069A035717046A035903653A036618030A037491557A038266823
1522A039016800A039746941A040308405A040702902A041014111A041197632A041324138
1515A041758505A042731413A043968829A044986861A045612564A046158659A047167955
1508A048830279A050540290A051336508A050918825A049845816A048627119A047219648
1501A045657098A044517682A044311435A044788824A045190283A044991130A044271762
1494A043544577A043315998A043771186A044819039A046236100A047551745A048030842
1487A047287697A045922132A045016287A044873622A044779169A044183614A043499124
1480A043383718A043774142A044058093A043897102A043531638A043359021A043418333
1473A043409466A043187520A042975493A042969713A043089849A043298198A043770858
1466A044548159A045405660A046233341A047153899A048132849A048852021A049086577
1459A048925783A048533717A047983747A047460313A047343988A047852117A048718288
1452A049418871A049632803A049399692A048953568A048478477A047968049A047401921
1445A047014255A047031530A047181946A046963416A046387238A045948142A045974219
1438A046431969A047141747A047847059A048329769A048557954A048520121A048115837
1431A047460905A046917175A046647280A046566358A046739040A047308715A048107889
1424A048788898A049101619A048662851A046958621A044101510A041098383A038810093
1417A037051214A035158800A032984865A030786890A028550819A026046692A023376779
1410A020992919A019094199A017280934A015180762A013343785A012748427A013348908
1403A014143944A014786725A015991234A018249178A021164156A024031777A026355931
1396A027830005A028231267A027470124A025849115A024256941A023599381A023893644
1389A024431003A024718238A025049021A026021995A027532721A028773946A029344804
1382A029598146A029703108A029360568A028695257A028455971A029148146A030635029
1375A032673787A035126089A037532676A039222324A039980775A040218024A040515966
1368A041262396A042618174A044562872A046842361A048943584A050378445A051171378
1361A051911766A053139987A054768615A056167153A056746746A056513044A056126692
1354A056274612A056963043A057670588A058134907A058557581A059022031A059252712
1347A059120425A058938153A059028140A059283452A059348545A059088109A058768623
1340A058749706A059040948A059302960A059297180A059192743A059425132A060248150
1333A061338171A062037506A062092418A061713619A060989062A059979700A059097764
1326A058583921A058325192A058723827A060334064A062239418A062659991A061563401
1319A060782421A061323458A062222537A062244344A061454300A060729808A060512921
1312A060604287A060742551A060798054A060787282A061139806A062341753A063998494
1305A064926408A064293348A062294395A060028700A058852042A059337116A060912015
1298A062640548A063909427A064462615A064478576A064457361A064656054A064923715
1291A064918460A064110485A062204999A059795457A057931878A057068859A056847045
1284A056574655A055798602A054686642A053793146A053545321A054244918A056001433
1277A058240526A060202762A062073172A064289407A065710738A064217943A059877036
1270A055892398A055092830A056692163A057912895A057719785A057161999A057406605
1263A059323979A063129630A066930156A068262551A067546861A067012852A067869434
1256A069833312A071557050A071581353A069929210A068049342A066861845A066025888
1249A064757864A062325332A058726454A055736530A055872627A059412455A063748567
1242A066368101A067065793A066815144A066030158A064576445A062688695A061322735
1235A061444382A062772507A063648071A062907816A061446418A060922130A061490820
1228A061932675A061570363A060967978A060842719A061046732A060887581A060295310
1221A060113826A060811388A061541003A061260008A060232123A059565498A059687539
1214A060097537A060304769A060284013A060164403A060014972A059861666A059534561
1207A058778213A057937855A057999729A059283124A060690661A061069328A060774079
1200A060957008A061810109A062425368A062187790A061606883A061648724A062484352
1193A063154852A062634900A060990901A059319973A058803107A059724913A060803111
1186A059731678A055554784A050587976A048833038A051905198A057442600A061873100
1179A063580483A063117544A061322341A058282826A054506734A051837872A051678720
1172A053238249A055153456A057336127A059585795A060594763A060142661A060208279
1165A062191928A064590830A065030451A063551450A062373019A063191438A066019451
1158A069534845A071363875A069904053A066908744A065734253A066513393A066272662
1151A063936489A061841703A062314560A064860527A066752022A065907066A063121747
1144A061100068A061401425A063038658A064100961A063505932A061224144A058112574
1137A055478984A054472118A056065540A060876677A067669098A072726944A073052735
1130A069611498A065593033A062651649A060406185A058661230A058172215A059054150
1123A060099244A060238494A059792369A059873687A060688953A060911424A059146239
1116A055868161A053396810A053837942A057145053A061029852A062985716A062582878
1109A061347958A060609016A060446252A060701105A061414299A062113436A062015830
1102A061066832A059933327A059103348A058624907A058392058A058200722A057858181
1095A057498234A057401022A057422763A057215531A056974538A057196483A057644840
1088A057591768A057019662A056671210A056927048A057357934A057619552A057916377
1081A058297014A058336950A057822055A057161999A056838309A056876406A057049548
1074A057221705A057325092A057244695A056961072A056865765A057664085A059553807
1067A061598344A062421033A061789813A060817562A060446974A060599886A060799893
1060A060849090A060804294A060693288A060263848A059202464A057978119A057656992
1053A058586679A060094450A061196688A061415941A061068474A060829779A061096718
1046A061769385A062472332A062798715A062501890A061746790A061080888A060930209
1039A061158263A061250352A061004826A060674437A060529670A060518767A060223321
1032A059282796A057750918A056036442A054935977A055303609A057012043A059000093
1025A060316920A060731056A060547076A060123350A059859959A060125781A060796477
1018A061313868A061319254A060850535A060139706A059542903A059399384A059681430
1011A059967220A059898449A059560244A059295538A059227227A059190904A059029388
1004A058680935A058177338A057782448A057833287A058236979A058568813A058472587
997A057902320A057182492A056641718A056287223A056010169A055822313A055669139
990A055309192A054621483A053943430A053697050A053735278A053656458A053248036
983A052482886A051396215A050057580A048613326A047137806A045513447A043666683
976A041732823A039814004A037857548A036038568A035038073A035218572A035892684
969A036098274A035423243A033856226A031230847A027552360A023522597A019430960
962A014374100A008224919A004022868A004205140A008131320A014189463A020514807
955A025824024A029752897A032242967A033300475A033145528A032434173A032346551
948A033373384A034864143A036577372A038670778A040894830A042700081A043955298
941A045106405A046365825A047345630A047709583A047595688A047416174A047519363
934A048303758A049696976A050959155A051663416A051927005A051973443A051817904
927A051441601A051338741A052171480A053455203A054459244A055003960A055135393
920A054994567A054777482A054475862A054009705A053909340A055015192A056800279
913A057970369A058159144A057821267A057540206A057397278A057101242A056475735
906A055525292A054431197A053773178A053777382A053616128A053001722A052563283
899A053301109A054866090A056007607A056339967A056084786A055542304A054956733
892A054601712A054577607A054415105A053618690A052055876A049864470A047247235
885A043945971A038983433A031466257A022031313A011971257A000782952I87473915
878I75416614I71256600I75672255I85163949I96904524A008512943A018011797
871A024629893A028727902A031094356A032341033A032637661A031940625A030375381
864A028238164A025656465A022303310A017528364A010808195A001906275I90505088
857I76129808I59113712I41668899I27416316I19077305I16861464I20020064
850I28355133I39138236I47171357I51252748I53347205I55551158I58810188
843I62836141I67261452I71504490I74671366I76881887I80763730I88953310
836I97208640A002993801A007812951A012293699A016363463A020018304A022965270
829A024698204A025112997A024567822A023567919A022841325A023609496A025479775
822A026517775A026212083A025399181A025278192A025805632A025764777A024233623
815A020832782A015831688A009684346A002367769I94834040I89696456I88251479
808I90072167I94074343I98284933A001079711A001931826A000666626I97118587
801I91956042I87109370I81940847I73218573I57539799I30626806H86778771
794H23889086G55749627G04014420F75835373F68919335F82272511G11573043
787G44857621G73851278G98538906H21785367H45314530H67721685H86251068
780H99885042I09084049I14279568I15509890I12602793I05892148H95685223
773H80728510H58896220H31429907H05079627G84241132G66455354G46157371
766G20387341F98813648F93315590G01420832G17887155G39348463G62367330
759G82784726G96741339H03801224H07461714H11440637H16808904H22938445
752H29699338H36984584H43336924H48026678H52262885H57585961H64293519
745H71022358H76559432H80938434H84399771H86717882H87817428H88088899
738H87874770H86897461H84325680H79255946H71123248H59749255H45027164
731H26342111H01626370G68449776G27937424F83547104F35494719E83416643
724E32362051D88686272D53800225D28860438D17867738D24126249D50714469
717D99186836E59123709F07964824F32301832F35192180F25216330F10288190
710E97521504E93377451F03160190F28603772F64200156G00796640G32062888
703G52922205G58854563G51642949G41774032G42785496G59023502G80527111
696G95734473H00508170G95803178G84125726G68039843G50003482G32832767
689G19801442G13775287G16007286G25619182G40564335G59355599G81182372
682H04297465H26052445H45058101H61537823H75944960H88290285H98422856
675I06409670I12512478I16968791I19984135I21833658I22869819I23528692
668I24316897I25636746I27640888I30341869I33742382I37776218I42245143
661I46914271I51615060I56183035I60323607I63662443I65996449I67462050
654I68453677I69357683I70264841I70886800I70787158I69665477I67347366
647I63570354I58015743I50771615I42720496I35344277I30145804I28072102
640I28993448I31374746I32544968I29798862I21862361I09492799H94232102
633H76107199H52768978H21313560G80997735G34268811F85580542F39405989
626E98632873E64056622E35725354E15175211E06016270E11920319E33926244
619E69502068F13734353F61176536G07044411G47723928G80994056H05891938
612H22082126H29102667H26233535H13450100G92941075G69638980G49445762
605G35819538G27583717G20386684G10789961F99310611F90006443F87606097
598F94796627G11229976G34247595G60412976G86737968H11149396H32570111
591H50933840H66926057H81341996H94511192I06144111I15385879I20864231
584I21091891I15557708I05972742H96383047H91299060H92876061H99648712
577I07976359I14467555I17113361I15041762I08041254H96302059H80434313
570H61948741H43720452H29476145H22318719H23358755H31278769H42946763
563H54688783H63553526H67929836H67247908H61186481H49156570H30297454
556H03588146G67839639G21923421F65856371F02490150E37894527D78657153
549D27975448C85281148C50491164C27560707C22492714C37599318C67218743
542C98135128D15232901D10127993C86991980C60016160C44019706C46350592
535C65725883C96111379D30852593D64777818D94692131E19192034E38178445
528E52213254E62012677E68352340E72339080E75637389E80149271E87153194
521E96663674F07692303F19133425F30499274F42194198F55294623F70794015
514F88775267G08305014G28072667G47029323G64586455G80530526G94890634
507H07762348H19040180H28118199H33404886H31420843H16630967G84278309
500G35710175F81280490F36730493F15109442F20367294F46626865F82734005
493G18639168G49202075G73630318G92934572H08317967H20768714H30903715
486H39029253H45609648H51472315H57292552H63144513H68799752H74168741
479H79212004H83713902H87381419H90005616H91475552H91785777H90980494
472H89015039H85893223H82160547H79134563H78393913H80853506H86204301
465H93184446I00417737I07055276I12770484I17470944I21222142I24226188
458I26565646I28030196I28352833I27454938I25248555I21259450I14526210
451I03816936H88077601H67164621H42678642H18267543G98753889G88254474
444G88393527G97748008H12777696H29597003H45523208H59578083H71927086
437H82989804H92920201I01613969I08983094I15143046I20347497I24819312
430I28669364I31939955I34742220I37322802I39864895I42241858I44107474
423I45137066I45026586I43317955I39216137I31422761I18433079H99682604
416H76884895H54402927H38101536H32872782H40005905H56421191H76628925
409H95750185I11238936I22722884I30980250I37028212I41634218I45170565
402I47705695I49239082I49902356I50059603I50345196I51380700I53109759
395I54609253I54843744I53307467I49919171I45236183I41163857I40362252
388I44073515I50897662I58112692I63888723I68035206I71175218I73812485
381I76072072I77856962I79133460I80108666I81025480I81886199I82618573
374I83261551I83704719I83557916I82588753I81028764I79197567I76879588
367I73205830I67249695I58489848I46222621I28424364I00895061H57309235
360G92361678G08057846F16191516E32421988D69927521D39709782D50206143
353E00263458E75196257F54447434G22796095G73798467H06083209H18695669
346H09119768G77043245G32402933F96711768F90245401G16219904G59950431
339H03307348H37258880H61948281H80494085H95279626I07475849I17366506
332I24973669I30703130I35294818I39385601I43313095I47071124I50354654
325I52909161I54942007I56982669I59162515I60837122I61253097I60464236
318I59231549I58084908I56643347I53776252I48719523I42492836I37871328
311I37246019I40532570I45515667I49946955I52878026I54333972I54508231
304I53628529I52298367I51427795I51517388I52156688I52595061I52666655
297I52605505I52053630I49850926I44623288I34764093I17521717H88594467
290H44405599G87720268G31801861F95631533F91304814G15676503G54752877
283G94778577H28592107H54640439H73704554H87080062H96195849I02489862
276I07038395I10290923I12331585I13391523I13970920I14448309I14777319
269I14686150I14031283I12912952I11618916I10384588I09058827I07309209
262I05286150I03477088I01727865H99177431H95454017H91219386H87167553
255H83054437H78167237H72371371H66082678H59324281H51425417H41638606
248H29554374H15080830G99020630G84470762G77207520G83020268H03127900
241H31674120H58535222H75742063H81193091H76869459H65165799H47633561
234H26736607H07020976G92755911G84745649G80550297G77345850G73642798
227G68923290G63090311G56506370G49830339G43528905G37818295G33026534
220G29502602G27048592G24947500G22870317G21357949G21050221G21813992
213G22858889G23307443G22795504G22481864G25883165G35005323G45620932
206G54501505G61985839G67286451G67287567G60276748G49356498G40437499
199G36963224G37709654G39479568G40493855G40984448G41682075G42610383
192G43182620G42912463G41806743G40235062G38654317G37435358G36668895
185G35956555G34533254G31916873G28522994G25436647G23432372G22264122
178G20886800G18173470G13390774G06322350F97089252F85412720F69788397
171F47819353F17883398E81085199E42614528E11052144D94472287D95871088
164E12028795E36285407E62432856E87020710F09205393F29180016F47000671
157F62555829F75994591F87904038F99086695G10017257G20472007G29777751
150G37448298G43683064G49240697G54701381G59905700G64268217G67537296
143G70180936G73240419G77744025G83824500G90402267G96296594H01407183
136H05812592H07973127H04603551G92312153G70045365G41684637G16409730
129G03877273G07199228G21376801G38357033G52570731G62829284G70878760
122G78601001G86320876G93501291H00084970H06274414H11787907H16290593
115H20019065H23512455H27211501H31269179H35369881H39064657H42391210
108H45554539H47949434H48126977H44539068H36372018H24931027H14271738
101H08783073H09868891H15756453H23643691H31351744H37719717H42692501
94H47385013H52645953H56955528H57759957H55796539H54847737H56780744
87H59894679H61927196H62890448H64315917H67038245H70666549H74236198
80H76521138H76697302H75613455H75308157H76408491H77028808H74876680
73H69570156H61509645H49446235H31597992H08150999G79604385G45595578
66G08615238F76136927F56867289F55651811F72484386G05282708G48236918
59G88718858H17456940H35935878H48597535H56884853H61348063H64370566
52H68715348H74700057H80089802H82902576H83636986H84075819H84852530
45H85029876H83301277H78895802H71498368H62130488H54358065H51867535
38H54556430H58954022H62270131H64467581H66720796H70918184H79041817
31H89215769H97168822I00237172H98186197H92929922H86651147H80808841
24H77246024H77538645H80592808H82632353H79779512H70746684H61005588
17H61575920H73777660H88158392H98510544I04697624I06638972I02375572
10H93253414H87013853H90639398I00641456I08038561I07947064H99918672
3H86978449H78086710H80856725
##END=


$$ === CHEMSPECTRA PEAK TABLE EDIT ===
##TITLE=X7622
##JCAMP-DX=5.00
##DATA TYPE=INFRAREDPEAKTABLE
##DATA CLASS=PEAKTABLE
##$CSTHRESHOLD=0.93
##MAXX=3997.453
##MAXY=0.9743659542769453
##MINX=373.96442
##MINY=0.29264569405151314
##$CSSOLVENTNAME=- - -
##$CSSOLVENTVALUE=0
##$CSSOLVENTX=0
##NPOINTS=32
##PEAKTABLE= (XY..XY)
427.7926318999216, 0.7730263512868903
461.7893973103983, 0.5949705867966572
481.62084379984344, 0.7942975205145746
515.6176092103201, 0.7339293988986078
555.28050218921, 0.6387327345453497
607.6921821970286, 0.4487083873105859
674.2691811259069, 0.6559575831927499
718.1816697810787, 0.7052761945885553
777.6760092494133, 0.6273238690725341
857.001795207193, 0.626362505794503
875.4167098045345, 0.39901420636321583
957.5755595465203, 0.7557895814818458
1002.9045800938229, 0.7153007420593708
1076.56423848319, 0.5581804541845524
1133.2255141673181, 0.3121803416301911
1144.5577693041437, 0.29264569405151314
1175.721470930414, 0.7462123074610182
1221.0504914777166, 0.623967471992614
1253.6307249960905, 0.45918396325539274
1347.1218298749022, 0.6477146775506158
1376.8689996090693, 0.5384597804662735
1392.4508504222044, 0.3791936651590394
1454.7782536747459, 0.6291485457630659
1491.608082869429, 0.6070101883156084
1580.849592071951, 0.8340157905357181
1613.4298255903245, 0.8853728218842176
1732.4185045269928, 0.9110995575839608
2364.1917284050173, 0.9195578144879029
2867.0605501016416, 0.8104553860787718
2923.7218257857703, 0.758166018931173
2963.3847187646597, 0.6837552218899492
3300.5193090852226, 0.6565120844475555
##END=


$$ === CHEMSPECTRA PEAK TABLE AUTO ===
##TITLE=X7622
##JCAMP-DX=5.00
##DATA TYPE=INFRAREDPEAKTABLE
##DATA CLASS=PEAKTABLE
##$CSTHRESHOLD=0.93
##MAXX=3997.453
##MAXY=0.9743659542769453
##MINX=373.96442
##MINY=0.29264569405151314
##NPOINTS=46
##PEAKTABLE= (XY..XY)
3300.5193090852226, 0.6565120844475555
2963.3847187646597, 0.6837552218899492
2923.7218257857703, 0.758166018931173
2893.974656051603, 0.8291111030474869
2867.0605501016416, 0.8104553860787718
1614.8463574824077, 0.8813658401259661
1579.4330601798279, 0.8320050278139507
1518.52218881939, 0.8967878262495859
1491.608082869429, 0.6070101883156084
1454.7782536747459, 0.6291485457630659
1392.4508504222044, 0.3791936651590394
1376.8689996090693, 0.5384597804662735
1364.1202125801406, 0.6731221109821084
1347.1218298749022, 0.6477146775506158
1280.5448309460512, 0.8421781101685191
1253.6307249960905, 0.45918396325539274
1221.0504914777166, 0.623967471992614
1194.136385527756, 0.8088084496109307
1175.721470930414, 0.7462123074610182
1144.5577693041437, 0.29264569405151314
1133.2255141673181, 0.3121803416301911
1076.56423848319, 0.5581804541845524
1035.4848136121968, 0.7970976867418762
1002.9045800938229, 0.7153007420593708
957.5755595465203, 0.7557895814818458
923.5787941360436, 0.8533307946187706
875.4167098045345, 0.39901420636321583
857.001795207193, 0.626362505794503
813.0893065519936, 0.8505029720679912
800.3405195230648, 0.863372210659233
777.6760092494133, 0.6273238690725341
718.1816697810787, 0.7052761945885553
677.1022449100856, 0.6543163092067312
670.0195854495696, 0.6556154522297547
654.4377346364345, 0.6687565480252082
607.6921821970286, 0.4487083873105859
555.28050218921, 0.6387327345453497
515.6176092103201, 0.7339293988986078
498.61922650508177, 0.7757307326413904
481.62084379984344, 0.7942975205145746
461.7893973103983, 0.5949705867966572
427.7926318999216, 0.7730263512868903
406.54465351837325, 0.7960560360052362
398.0454621657541, 0.7813186684350679
385.29667513682534, 0.8049198427611356
375.380951892103, 0.7968189156836571
##END=

##END=

