##TITLE=JMB-190_B
##JCAMP-DX=4.24
##DATA TYPE=INFRARED SPECTRUM
##DATE=3/4/2019
##SAMPLING PROCEDURE=Diamant-ATR
##ORIGIN=Angelika Moesle
##XUNITS=1/CM
##YUNITS=TRANSMITTANCE
##RESOLUTION=4
##FIRSTX=3997.453
##LASTX=373.96442
##DELTAX=-1.4165319
##MAXY=0.95301396
##MINY=0.59778953
##XFACTOR=1
##YFACTOR=8.8756341e-010
##NPOINTS=2559
##FIRSTY=0.91969478
##XYDATA=(X++(Y..Y))
3997+1036201773+1035907296+1035567557+1035396916+1035441238+1035502417
3989+1035340639+1034927768+1034459292+1034097526+1033821786+1033632073
3980+1033734417+1034308058+1035154552+1035779298+1035828053+1035381201
3972+1034857188+1034669421+1034924075+1035374620+1035675140+1035701062
3963+1035587435+1035494022+1035431433+1035353936+1035349638+1035600128
3955+1036114806+1036625254+1036855060+1036782666+1036542653+1036229709
3946+1035914213+1035656538+1035412563+1035134204+1034983306+1035179937
3938+1035647808+1036069812+1036238507+1036206473+1036148048+1036165240
3929+1036196132+1036133006+1036039257+1036134752+1036491548+1036878900
3921+1037078822+1037122473+1037115018+1037062436+1036994273+1037034902
3912+1037183315+1037195605+1036852575+1036275106+1035820061+1035730409
3904+1035966729+1036288134+1036485235+1036583954+1036748820+1036927386
3895+1036864126+1036573948+1036435272+1036541915+1036425467+1036120112
3887+1036432048+1037574764+1038370689+1037991866+1037229988+1037010726
3878+1037098028+1037000921+1036932020+1037135635+1037288481+1037089835
3870+1036794956+1036600071+1036247304+1035674872+1035265627+1035330566
3861+1035675946+1035942553+1036040264+1036109770+1036374429+1037000653
3853+1037767903+1038169358+1038153442+1037914503+1037584099+1037284451
3844+1037127106+1037063980+1036820005+1036186595+1035425927+1035165632
3836+1035661172+1036573075+1037472688+1038002208+1037928471+1037411644
3827+1036883332+1036592617+1036502427+1036615718+1036976410+1037238786
3819+1037044371+1036877960+1037459593+1038539384+1039091468+1038717211
3810+1037834320+1037130598+1037074927+1037306546+1037070897+1036635999
3802+1037049878+1038301116+1039004032+1038794171+1038517088+1038560806
3793+1038535556+1038287685+1038187893+1038432204+1038683365+1038553218
3785+1038108783+1037760717+1037880254+1038592033+1039592447+1040207389
3776+1040157224+1039835146+1039619914+1039537850+1039479559+1039257409
3768+1038658853+1037917928+1037642255+1037932971+1038229260+1038168955
3759+1037918197+1037692756+1037448512+1037113407+1036795896+1036820274
3751+1037433805+1038050761+1037922092+1037576174+1038213546+1039890751
3742+1040846708+1040329343+1039295150+1038696393+1038841851+1039449540
3734+1040100612+1040543367+1040483733+1039786660+1038823182+1038198100
3725+1038099986+1038117648+1037947812+1037823910+1038054320+1038606673
3717+1039148819+1039284405+1038906119+1038461551+1038617955+1039292934
3708+1039718565+1039540536+1038946950+1038284126+1037785095+1037406338
3700+1037056660+1036993266+1037504049+1038314413+1038706869+1038322740
3691+1037707933+1037951841+1039324228+1040562439+1040705480+1040097321
3683+1039466463+1039250156+1039374461+1039438795+1039316371+1039270437
3674+1039145797+1038515879+1037960102+1038564567+1040123377+1041148907
3666+1041224524+1040952813+1040603337+1039965965+1038987914+1038146390
3657+1038113887+1038930967+1039680286+1039715006+1039461695+1039759395
3649+1040747721+1041309744+1040795334+1039922045+1039492184+1039548662
3640+1039515621+1039105369+1038794843+1039045534+1039601379+1039941789
3632+1040073145+1040435247+1041106330+1041383279+1040915743+1040184153
3623+1039472306+1038732925+1038206696+1038608889+1040085837+1041600661
3615+1042230310+1042015614+1041604825+1041513493+1041657743+1041596363
3606+1041116068+1040444783+1039907070+1039707618+1039896997+1040254196
3598+1040403214+1040227737+1039977852+1039855293+1039681696+1039219600
3589+1038661069+1038595391+1039240754+1039937223+1040138823+1040119281
3581+1040414227+1041119426+1041756126+1041802799+1041258303+1040590107
3572+1040181332+1040004109+1039871075+1039801099+1039940849+1040169244
3564+1040254465+1040309398+1040605351+1041114255+1041459568+1041402217
3555+1041125873+1040897880+1040709039+1040445320+1040235392+1040298921
3547+1040548269+1040625431+1040403415+1040187309+1040292877+1040713404
3538+1041206526+1041507584+1041471521+1041163614+1040818167+1040665052
3530+1040775792+1041029370+1041247289+1041405172+1041574403+1041630209
3521+1041327003+1040810914+1040634430+1041027356+1041512553+1041538274
3513+1041170867+1040848924+1040742818+1040672372+1040522885+1040416645
3504+1040504283+1040797684+1041197997+1041502144+1041383145+1040620999
3496+1039511793+1038782352+1038832584+1039365596+1039972412+1040627445
3488+1041328615+1041771168+1041798702+1041697499+1041729801+1041807500
3479+1041820058+1041808373+1041691791+1041305849+1040799968+1040584667
3471+1040794327+1041099749+1041102973+1040759003+1040381724+1040337133
3462+1040726835+1041252326+1041409940+1040968863+1040260710+1039839310
3454+1039863889+1040011228+1040025062+1040064213+1040396565+1040926757
3445+1041228687+1041054822+1040646249+1040464929+1040647726+1040869406
3437+1040845432+1040735901+1040841000+1041141923+1041416991+1041584745
3428+1041655997+1041582462+1041366289+1041121306+1040907752+1040709509
3420+1040589436+1040631072+1040754503+1040787342+1040684125+1040563043
3411+1040564387+1040736506+1040990555+1041116337+1040956238+1040677140
3403+1040718105+1041274756+1041984924+1042326342+1042149522+1041663115
3394+1041157234+1040878607+1040903521+1041054285+1041166703+1041330092
3386+1041603952+1041731345+1041477901+1041059053+1040877465+1040919706
3377+1040744027+1040150105+1039573778+1039570554+1040120691+1040747385
3369+1041119358+1041251923+1041309140+1041455270+1041774929+1042215603
3360+1042633040+1042828127+1042587308+1041921865+1041239970+1040997404
3352+1041184566+1041402150+1041428340+1041469909+1041783256+1042273222
3343+1042660373+1042870972+1042987352+1042980771+1042767083+1042438156
3335+1042232996+1042310896+1042577839+1042732632+1042588785+1042312776
3326+1042149387+1042054766+1041874856+1041697163+1041770228+1042207745
3318+1042856735+1043277799+1042990979+1042060877+1041238962+1041134536
3309+1041490325+1041698641+1041733763+1042031530+1042680116+1043292909
3301+1043597526+1043686104+1043684962+1043554412+1043293648+1043064245
3292+1042988292+1043011327+1043054373+1043091309+1043015759+1042703419
3284+1042265298+1041955980+1041874521+1042004601+1042342459+1042721551
3275+1042801197+1042471800+1042033477+1041846450+1042004063+1042361061
3267+1042724036+1043004275+1043198220+1043291297+1043286865+1043232872
3258+1043093995+1042793878+1042522167+1042677766+1043288410+1043790866
3250+1043666226+1043066730+1042574347+1042525390+1042811808+1043193653
3241+1043511701+1043667099+1043609950+1043351267+1042956259+1042594493
3233+1042504639+1042758890+1043159136+1043474430+1043677172+1043852582
3224+1043977961+1043926856+1043706317+1043562672+1043725860+1044111869
3216+1044393720+1044348927+1044104414+1044013822+1044221668+1044440393
3207+1044342883+1044019732+1043793955+1043814505+1044063584+1044518562
3199+1045057618+1045395611+1045317576+1044937477+1044602707+1044539447
3190+1044682354+1044880663+1045081256+1045213955+1045139480+1044856017
3182+1044566578+1044486528+1044688868+1045064803+1045379561+1045477406
3173+1045417906+1045342759+1045313815+1045309115+1045232222+1044974211
3165+1044623861+1044454160+1044536962+1044600290+1044435423+1044184598
3156+1044062308+1044038468+1043995556+1043949353+1043937466+1043888443
3148+1043766757+1043641445+1043486384+1043161687+1042729946+1042521764
3139+1042721887+1043145167+1043551256+1043907448+1044204610+1044316424
3131+1044264177+1044346107+1044729295+1045089852+1044956213+1044342749
3122+1043755609+1043561530+1043645005+1043734388+1043783613+1043902680
3114+1044106161+1044250545+1044152766+1043785897+1043404723+1043330718
3105+1043553606+1043758564+1043787307+1043804096+1043990250+1044308030
3097+1044550460+1044469337+1043974335+1043298953+1042784879+1042466226
3088+1042091432+1041536125+1040911513+1040239489+1039300523+1037928270
3080+1036249520+1034448749+1032419918+1029926037+1027074418+1024326018
3071+1022030513+1020295219+1019327040+1019449598+1020646978+1022381064
3063+1023929734+1024777973+1024830422+1024441324+1024017439+1023442858
3054+1022171942+1019998325+1017446958+1015340026+1014206443+1014111754
3046+1014847978+1016203174+1018050148+1020185755+1022187321+1023591271
3037+1024230792+1024287941+1023994808+1023435538+1022758679+1022434184
3029+1022993387+1024427221+1026043315+1027057764+1027231226+1026834808
3020+1026204891+1025556774+1025101461+1025057608+1025551335+1026587945
3012+1027987463+1029293769+1030003198+1029991244+1029553727+1029073902
3003+1028816563+1028904066+1029319221+1030019450+1031029332+1032229130
2995+1033215038+1033651078+1033611389+1033373121+1033074414+1032712111
2986+1032287958+1031876900+1031628358+1031669524+1031975014+1032397085
2978+1032835610+1033294012+1033766249+1034129224+1034228345+1034087856
2969+1033923527+1033875041+1033839381+1033671291+1033448000+1033423018
2961+1033718300+1034102697+1034122374+1033503739+1032464778+1031621575
2952+1031510433+1032117786+1032902765+1033352639+1033456797+1033565857
2944+1033913252+1034419536+1034884722+1035197531+1035329760+1035273215
2935+1035112177+1035024203+1035033202+1034927298+1034600520+1034254670
2927+1034054480+1033810303+1033233170+1032373850+1031628694+1031335762
2918+1031465305+1031756222+1032063525+1032442482+1032961661+1033597890
2910+1034278846+1034894459+1035316934+1035513296+1035636593+1035939665
2901+1036529894+1037226362+1037771865+1038161030+1038580147+1039078507
2893+1039519651+1039800427+1039928224+1039949646+1039939372+1039994238
2884+1040146747+1040299660+1040296302+1040093695+1039810702+1039538991
2876+1039241493+1038958970+1038891479+1039093214+1039326377+1039382452
2867+1039311670+1039211004+1039005240+1038559799+1037905773+1037303389
2859+1037088828+1037419367+1038149547+1038945674+1039511793+1039778132
2850+1039940983+1040243585+1040657665+1040889889+1040777806+1040545650
2842+1040533562+1040801848+1041174762+1041573933+1042073099+1042634115
2833+1043020258+1043065924+1042903408+1042802675+1042845386+1042893939
2825+1042851631+1042773059+1042740690+1042813823+1043045173+1043374368
2816+1043630902+1043745133+1043776562+1043745939+1043685969+1043749230
2808+1043995220+1044272840+1044510772+1044814650+1045127929+1045160567
2799+1044798197+1044293725+1043989444+1044012076+1044230801+1044423000
2791+1044515741+1044628428+1044831371+1045021287+1045124437+1045231886
2782+1045432143+1045688072+1045912841+1045981743+1045735887+1045206837
2774+1044763612+1044791280+1045271306+1045854416+1046260639+1046421879
2765+1046332831+1046029759+1045722859+1045683506+1045899276+1046071999
2757+1046062799+1046065485+1046212086+1046316714+1046179515+1045881883
2748+1045637773+1045567864+1045708152+1046033922+1046382526+1046487423
2740+1046181194+1045578542+1045044590+1044894564+1045067557+1045199718
2731+1045094755+1044934388+1044931634+1044998790+1044939156+1044782281
2723+1044778050+1045110939+1045683304+1046187440+1046418521+1046468619
2714+1046531745+1046641074+1046705946+1046680629+1046600109+1046529193
2706+1046486550+1046391122+1046187440+1046026938+1046108935+1046362984
2697+1046530872+1046539468+1046533357+1046580298+1046614078+1046639664
2689+1046732875+1046804530+1046601049+1046026334+1045331947+1044906115
2680+1044909809+1045159224+1045355855+1045370495+1045278290+1045212075
2672+1045300183+1045613060+1046018410+1046228270+1046124649+1045872750
2663+1045638579+1045439127+1045333089+1045469482+1045806333+1046039631
2655+1045981071+1045836620+1045938293+1046318795+1046740061+1047038567
2646+1047228952+1047324850+1047298592+1047213372+1047206388+1047321761
2638+1047481994+1047602739+1047657538+1047663179+1047691384+1047831336
2629+1048086526+1048359378+1048572261+1048741089+1048890174+1048967067
2621+1048904546+1048739343+1048616382+1048641028+1048750491+1048779771
2612+1048662048+1048506516+1048494696+1048736120+1049169876+1049559109
2604+1049675691+1049533724+1049341391+1049204193+1049026365+1048735448
2595+1048442584+1048301155+1048310691+1048325734+1048198541+1047899633
2587+1047569967+1047435589+1047626310+1048095122+1048703818+1049279474
2578+1049598462+1049519622+1049226690+1049142477+1049450183+1049847340
2570+1049984135+1050006095+1050310443+1050840635+1051106436+1050966551
2561+1050831905+1050943651+1051061777+1051096027+1051420521+1052230952
2553+1053085236+1053385689+1052996121+1052249084+1051612989+1051394129
2544+1051574240+1051885371+1052056483+1051953198+1051603587+1051205356
2536+1050985220+1051002211+1051187291+1051506480+1051920695+1052270037
2527+1052341087+1052041776+1051505137+1051071448+1051087901+1051571419
2519+1052076764+1052073137+1051503861+1050795775+1050282305+1049898714
2510+1049559579+1049444811+1049696442+1050159008+1050645414+1051179031
2502+1051791353+1052312748+1052547321+1052523615+1052403609+1052259493
2493+1052111752+1052057020+1052113095+1052094291+1051895646+1051723661
2485+1051798203+1052047887+1052316105+1052642346+1053123984+1053652564
2476+1053928304+1053689567+1052897872+1051786988+1050769652+1050203062
2468+1050185736+1050639639+1051538110+1052811108+1054034208+1054587501
2459+1054242927+1053303423+1052120616+1050866355+1049840154+1049538828
2451+1050134362+1051146796+1051897190+1052117728+1051937685+1051566249
2442+1051250887+1051264990+1051611713+1051944535+1052023912+1052065683
2434+1052422144+1053069790+1053605153+1053696887+1053417789+1053115590
2425+1052996456+1052865772+1052345318+1051396614+1050521177+1050281432
2417+1050697124+1051306760+1051727086+1051903570+1051924052+1051918881
2408+1052102887+1052534495+1052846700+1052589360+1051871940+1051300515
2400+1051248738+1051541602+1051870395+1052133040+1052308315+1052341692
2391+1052281990+1052308248+1052524153+1052837567+1053074558+1053120089
2383+1052911975+1052418652+1051773691+1051414612+1051846958+1053079460
2374+1054416255+1055045971+1054808644+1054214856+1053812595+1053776869
2366+1053994452+1054211767+1054133732+1053703468+1053285762+1053270182
2357+1053569426+1053819110+1053896943+1053883444+1053737516+1053394956
2349+1052962744+1052596613+1052309054+1052028479+1051843130+1051883020
2340+1051919351+1051560339+1050900269+1050558851+1050992272+1052063467
2332+1053290530+1054193098+1054382745+1053687686+1052402534+1051257670
2323+1050886099+1051198976+1051538916+1051558727+1051512054+1051627830
2315+1051787055+1051922575+1052227326+1052761480+1053225523+1053314370
2306+1053066365+1052747444+1052488560+1052140158+1051540662+1050888248
2298+1050674963+1051210258+1052320470+1053497234+1054253135+1054383550
2289+1054014397+1053457075+1053023184+1052889612+1053033190+1053288716
2281+1053518119+1053732613+1054084105+1054664663+1055210031+1055236356
2272+1054754248+1054463532+1054828858+1055436345+1055653996+1055399141
2264+1054968071+1054686824+1054826641+1055283902+1055464147+1055036166
2255+1054463331+1054210760+1053958658+1053357013+1052991890+1053632082
2247+1054874725+1055611218+1055755937+1056372357+1057915184+1059382797
2238+1059543769+1058187835+1055964992+1053791777+1052592450+1052801706
2230+1053905538+1055045837+1056003069+1056878641+1057221603+1056566503
2221+1055544331+1055260129+1055788776+1056311178+1056439982+1056558780
2213+1057072653+1057850916+1058282859+1057808071+1056592223+1055461058
2204+1054967668+1054952759+1055230380+1056166928+1058131894+1060617516
2196+1062448910+1062979034+1062693691+1062507872+1062821152+1063292918
2187+1063088296+1061479992+1058914254+1057234363+1057939225+1060340366
2179+1062286797+1062453946+1061170003+1059406369+1057831777+1056774147
2170+1056237710+1055870102+1055534526+1055685223+1056599207+1057937547
2162+1059854161+1063303126+1067875936+1071057690+1071431276+1070208242
2153+1068994207+1068310834+1067977811+1067529347+1066475814+1064859922
2145+1063359335+1062451596+1061833565+1060913805+1059696950+1058891623
2136+1059030634+1059620796+1059530002+1058362237+1057072720+1056923971
2128+1058041570+1059327931+1059818837+1059681101+1059643964+1059958722
2119+1060360848+1060631954+1060673255+1060311354+1059512071+1058642409
2111+1058150966+1058058493+1058028005+1057886576+1057796185+1057848499
2102+1057858438+1057767778+1057881338+1058401456+1059085232+1059626840
2094+1060028227+1060384285+1060593205+1060390128+1059595747+1058433623
2085+1057547978+1057412862+1057809078+1058162114+1058182597+1057895373
2077+1057407691+1056997439+1057066273+1057724060+1058682501+1059597090
2068+1060196049+1060258302+1059894790+1059634025+1059876523+1060553584
2060+1061438759+1062256107+1062488531+1061747875+1060449157+1059593195
2051+1059836969+1061040326+1062509887+1063454293+1063447040+1062696847
2043+1061816306+1061195925+1060676612+1059937433+1058974761+1058063597
2034+1057641257+1058113494+1059226392+1060141720+1060780368+1062086674
2026+1064155932+1065334844+1064133771+1061150595+1058554704+1058170844
2017+1060029369+1062434404+1063570740+1062999919+1061724102+1061244747
2009+1062247376+1063799337+1064401318+1063748702+1062437090+1060655794
2000+1058603661+1057327104+1057755488+1059352510+1060563993+1060237618
1992+1058381242+1056024962+1054378044+1053934415+1054163549+1053786271
1983+1051738166+1048594892+1046822058+1048567560+1052967848+1056849965
1975+1058346926+1058105435+1057358735+1056589604+1055742842+1054814621
1966+1054122517+1053861955+1053718041+1053598370+1054187658+1055836927
1958+1057600360+1058357402+1058165136+1057798938+1057618827+1057488143
1949+1057497545+1058140960+1059599306+1061271273+1062403110+1062780792
1941+1062464423+1061514241+1060422967+1060007812+1060390262+1060694677
1932+1060099949+1058740389+1057510304+1057276133+1058095496+1059005787
1924+1058813185+1057365047+1055746334+1054959811+1054956251+1055068737
1915+1054980293+1054787826+1054476829+1053977328+1053492600+1053269510
1907+1053217935+1053136878+1053103972+1053344321+1053864842+1054455407
1898+1054953095+1055275844+1055317144+1055157919+1055198145+1055632506
1890+1055983863+1055646004+1054753174+1053942675+1053671032+1054093775
1881+1055108358+1056301306+1057180370+1057599554+1057759518+1057795916
1873+1057659389+1057444828+1057557380+1058219599+1058941251+1059143254
1864+1058912374+1058681225+1058707819+1058962808+1059256747+1059448207
1856+1059617169+1059923599+1060253534+1060227410+1059617640+1058636970
1847+1057810354+1057584175+1057933517+1058318116+1058333562+1058089116
1839+1057852326+1057757033+1057675238+1057310987+1056552602+1055635595
1830+1054933956+1054640823+1054668894+1054797765+1054777752+1054457959
1822+1053938780+1053467417+1053226934+1053201012+1053211555+1053148832
1813+1053074894+1053058038+1053052397+1053046487+1053175291+1053533901
1805+1054025814+1054504497+1054967869+1055490002+1056014553+1056426820
1796+1056765215+1057156731+1057615537+1057985630+1058122291+1058088982
1788+1058073536+1058189984+1058334300+1058260362+1057885434+1057363167
1779+1056872530+1056484103+1056208632+1056060957+1056043295+1056093930
1771+1056156385+1056312454+1056592760+1056799129+1056785295+1056717199
1762+1056803763+1056941968+1056981053+1057078159+1057352623+1057576721
1754+1057545023+1057410176+1057480554+1057815727+1058148750+1058290112
1745+1058278427+1058209929+1058158555+1058201669+1058364117+1058550272
1737+1058669406+1058746634+1058834004+1058908747+1058927215+1058842398
1728+1058618905+1058369154+1058323287+1058535095+1058770945+1058860731
1720+1058971941+1059347473+1059788617+1059832470+1059568213+1059349555
1711+1059250165+1059159304+1059099267+1059291399+1059779350+1060193027
1703+1060278180+1060210218+1060171201+1060058380+1059954625+1060086720
1694+1060255750+1060194235+1060046494+1059993239+1059913660+1059657731
1686+1059371314+1059258224+1059164878+1058886721+1058509307+1058139147
1677+1057815928+1057495530+1056993141+1056170085+1055192571+1054489454
1669+1054351853+1054469442+1054459436+1054419546+1054685682+1055362340
1660+1056162160+1056745673+1056952646+1056895631+1057121206+1058169904
1652+1059081941+1059018681+1058632873+1058710371+1059374806+1059885925
1643+1059893984+1059707762+1059545918+1059373463+1059253993+1059532621
1635+1060188594+1060557882+1060401880+1059984039+1059629190+1059542291
1626+1059681706+1059854832+1059887067+1059654172+1059169579+1058636567
1618+1058345717+1058395680+1058443428+1058194752+1057717277+1057088166
1609+1056142887+1054556274+1052061184+1048337553+1042737064+1034525172
1601+1023741430+1011936592+1002030773+997085384+998348308+1004119439+1011101179
1591+1016806699+1020406294+1022248902+1023345281+1024944720+1027962750
1582+1032354039+1037063510+1040982563+1043641110+1044660058+1043722032
1574+1041867133+1040818167+1041779227+1044826805+1048133401+1049907914
1565+1050204069+1049768567+1049136567+1048777689+1049392362+1050881129
1557+1051630449+1051379355+1050710689+1049828268+1048676419+1047203366
1548+1045604531+1044302859+1043619889+1043539839+1043910537+1045054058
1540+1047231974+1049130859+1049865808+1050107835+1050725732+1051892288
1531+1052937024+1053455933+1053685000+1053872632+1054005936+1054073628
1523+1054293697+1054900915+1055740290+1056412112+1056728078+1056710887
1514+1056462680+1056114681+1055787836+1055519752+1055207681+1054527599
1506+1052817487+1049568712+1044452951+1037039939+1027698627+1019020811
1497+1015361314+1018262023+1024113941+1029432310+1033556321+1036570388
1489+1037525271+1034809709+1027549945+1015503549+998426678+977458356+957931792
1479+948179423+953319561+970924206+992932832+1011764540+1024101249+1030177802
1469+1031605391+1029537341+1024613644+1018883344+1015887342+1016767413
1460+1019927476+1024022274+1028550426+1032242830+1033840523+1033908887
1452+1033276888+1032245046+1030916578+1029426401+1027959660+1026608494
1443+1024978029+1021930653+1015338750+1000452084+969310194+922114075+880835754
1434+866528237+880175483+912299184+948162298+975165269+991739280+1002570299
1424+1010696635+1016638676+1020879873+1024407477+1027395421+1029288128
1415+1030289616+1031095480+1032018262+1032882216+1033365197+1033367279
1407+1033026465+1032358471+1031090108+1029084177+1026638379+1024325682
1398+1022744375+1022196253+1022580851+1023571460+1024820819+1026167485
1390+1027606155+1028984720+1029806970+1029631896+1028596696+1027160713
1381+1025666842+1024287605+1023222790+1022915688+1024043562+1026918819
1373+1030767023+1034371655+1037233078+1039408643+1040968998+1042063899
1364+1043018848+1044024970+1044906585+1045458804+1045800558+1046176695
1356+1046655647+1047130771+1047550089+1047993449+1048515716+1049065181
1347+1049569249+1050003140+1050396604+1050811221+1051261968+1051632262
1339+1051723459+1051438922+1050840568+1050032957+1049108698+1048216740
1330+1047604485+1047502006+1047935695+1048684075+1049433461+1050010124
1322+1050442874+1050685439+1050261353+1048477035+1045179236+1041041727
1313+1037057802+1034044272+1032646165+1033309055+1035830336+1039227055
1305+1042464615+1045104694+1047072682+1048281411+1048754923+1048762176
1296+1048584617+1048286918+1047781775+1047028963+1046129552+1045247197
1288+1044463897+1043769779+1043169948+1042754726+1042669842+1042998433
1279+1043611225+1044187620+1044480552+1044507884+1044395063+1044130538
1271+1043649034+1043133952+1043018848+1043607196+1044796988+1046268362
1262+1047846043+1049516532+1051133634+1052370837+1053054008+1053352514
1254+1053569493+1053874580+1054267842+1054672789+1055028376+1055330240
1245+1055599533+1055843575+1056091244+1056373028+1056597193+1056531380
1237+1056007569+1055134213+1054297189+1053918701+1054135949+1054696830
1228+1055230917+1055597048+1055891591+1056166525+1056314334+1056256379
1220+1056089968+1055979498+1056027312+1056253827+1056586582+1056886834
1211+1057078764+1057219656+1057416555+1057707674+1058004635+1058159629
1203+1058079916+1057674230+1056752859+1055037912+1051985231+1046785189
1194+1039365126+1031144571+1023727529+1017495981+1012845002+1011520229
1186+1014631134+1020261238+1024964397+1027052794+1027395488+1027865240
1177+1029829131+1033530064+1038245982+1042994001+1047096992+1050235834
1169+1052315031+1053366012+1053374608+1052080189+1049022135+1044082388
1160+1038242893+1033566260+1031941638+1033717293+1037656492+1042079613
1152+1045878794+1048684746+1050556433+1051735077+1052505685+1053039033
1143+1053332233+1053326323+1052927958+1051773221+1049264498+1045410855
1135+1041657004+1040136204+1041669764+1044957556+1047978272+1049664879
1126+1050098904+1049833573+1049460995+1049410024+1049758963+1050262158
1118+1050621171+1050729560+1050696116+1050649712+1050546494+1050205345
1109+1049451526+1048100897+1045749587+1041425050+1033246869+1018769986
1101+996669760+968726815+939667077+914522698+896735391+889061212+894336333
1091+913083089+940836924+969824671+993808337+1010868687+1022222578+1029728264
1081+1034629128+1037585173+1038966290+1038946412+1037590948+1035104723
1072+1032093140+1029613966+1028858065+1030472010+1034041586+1038336239
1064+1042138978+1044885230+1046714206+1048071685+1049230383+1050168947
1055+1050857692+1051415820+1051894034+1052149493+1052079651+1051788063
1047+1051380228+1050739633+1049650642+1048088675+1046281927+1044482701
1038+1042650031+1040134861+1035697570+1028444992+1019258407+1010999976
1030+1006785305+1007960188+1013519242+1020882962+1027178106+1030521638
1021+1030831761+1029741359+1029629613+1032121077+1036914492+1042139113
1013+1046064948+1048211368+1048759020+1047411816+1043180961+1035426733
1004+1025388013+1016333052+1011213597+1010235412+1011665486+1014556121
996+1019245715+1025476255+1031608950+1035986607+1038252630+1039243911
987+1040067235+1041329958+1042992859+1044737085+1046289851+1047436194
979+1047987741+1047842752+1046998341+1045548658+1043770921+1042166579
970+1041293627+1041525783+1042919122+1045163790+1047614424+1049585971
962+1050798327+1051446510+1051832385+1052143382+1052551216+1053204705
953+1054038036+1054767881+1055171081+1055358713+1055727396+1056537626
945+1057582228+1058434631+1058922380+1059149432+1059213028+1059155073
936+1059074890+1059086575+1059233847+1059502199+1059782304+1059787946
928+1059163132+1057792894+1055960761+1054153409+1052751742+1051912703
919+1051671145+1052088180+1053224046+1054905280+1056679055+1058181119
911+1059398982+1060426660+1061219899+1061738742+1062023816+1061996820
902+1061442989+1060319950+1058999609+1058148952+1058263452+1059248016
894+1060582595+1061865598+1062959962+1063732719+1064035858+1063925052
885+1063639373+1063392107+1063309774+1063468127+1063845137+1064255658
877+1064413674+1064140620+1063543408+1062942099+1062569655+1062408684
868+1062397200+1062652390+1063269347+1063967494+1064197770+1063568725
860+1061970092+1059442431+1056262557+1053090810+1050718681+1049544469
851+1049343742+1049625123+1050214948+1051343628+1053059717+1054815897
843+1055915700+1056263632+1056373632+1056424603+1055276650+1050952784
834+1043005887+1034449823+1030114273+1032359008+1039093684+1046377019
826+1051931305+1055668165+1058176351+1059798086+1060542302+1059972488
817+1057146859+1050991533+1041067716+1028046895+1012930155+996035746+978363745
807+964057637+958895874+965022123+978860358+994899544+1009793060+1022478708
798+1032631928+1040321351+1046194827+1051022089+1055145227+1058600706
789+1061541506+1064188502+1066490655+1068249320+1069491694+1070345978
781+1070774563+1070807671+1070755088+1070912903+1071338198+1071988732
772+1072768406+1073434789+1073741823+1073658550+1073231442+1072184759
764+1069751854+1064770135+1055531101+1039491580+1014128879+979527211+940606715
754+905535430+879829162+861488898+843748197+823692583+806635590+800981108
744+810765041+834539182+868561970+907926631+946342723+978223927+1001401325
734+1017113867+1027898683+1035787290+1041738867+1046106585+1049392564
725+1052201605+1054477366+1055285850+1053666734+1049950625+1046296164
717+1045105365+1046317184+1046735629+1042192971+1029879364+1009195444+982140764
707+952793063+924651675+898082662+870763793+840175800+805501806+768352399
697+733114501+706970649+698355892+712831566+748139305+793366026+835493526
687+868251309+893962949+917385800+939790173+959094654+973465768+983034534
677+989050648+993028260+996315045+999480010+1002475140+1005758634+1010523374
667+1016473205+1021354997+1024680397+1027495617+1030546754+1033749393
659+1036487049+1038412460+1039843272+1041233187+1042553797+1043430510
650+1043517745+1042533718+1040250368+1036468379+1030981786+1024382361
642+1019276472+1019240678+1025146321+1033227126+1037577316+1033980407
633+1022300209+1007524551+997909649+998885215+1008114243+1017990715+1022017619
623+1017658699+1005882871+991331445+981524479+982402670+993695784+1009778621
613+1024977828+1036737807+1044708343+1049244486+1051245582+1052071928
605+1052713665+1053318735+1053711930+1053983506+1054408331+1055060208
596+1055677970+1055960358+1056041952+1056584836+1058145863+1060472326
588+1062731231+1064421867+1065801037+1067318614+1068802277+1069535345
579+1069170289+1068200028+1067427003+1067285439+1067688976+1068257647
571+1068676562+1069016167+1069572684+1070217442+1070312937+1069603844
562+1068761044+1068628681+1069187615+1069710621+1069703569+1068748822
554+1065330211+1057556910+1046573986+1038037129+1037785900+1045825338
545+1056301239+1063625270+1066796615+1067607248+1067042001+1064194278
537+1057446641+1046783443+1035583406+1028747796+1027871082+1029075715
528+1025857832+1013184338+989618111+956273592+913504354+860958505+801832034
518+744539845+699808059+677860612+685428887+719695516+764904105+798886667
509+805328545+782005957+741329080+702241232+678632831+673517540+681578534
499+696484607+715262188+737556963+763689734+793207741+823955966+852684830
489+877294853+898069634+916326492+932511606+946301356+957909832+967887172
479+976219675+982758392+987704116+991131725+993045922+993606468+991503430
469+982817623+964135202+937963614+914114125+903398949+908781318+923178018
459+936701161+945243189+951763572+959871709+969593523+979062496+986628488
449+991201970+991775007+987515543+977845910+962539590+944203422+929799469
439+925826021+932957115+945789363+956940310+962760733+964455197+964660088
429+965298668+967651591+972329231+978869693+986072845+992972454+999000991
419+1003147365+1004262144+1002710855+999467251+994940375+989854363+985974596
409+985179611+987854476+992853656+999158470+1006569266+1014722129+1022578031
399+1028611135+1031851851+1034584537+1040017540+1046175352+1048347492
391+1045075951+1038962194+1033225514+1029739278+1029583074+1032808009
382+1037434208+1040504820+1040188585+1037704105+1038675911+1048836114
374+1062429367
##END=
