##TITLE=X8223
##JCAMP-DX=4.24
##DATA TYPE=INFRARED SPECTRUM
##DATE=31/10/2018
##SAMPLING PROCEDURE=Diamant-ATR
##ORIGIN=ComPlat
##XUNITS=1/CM
##YUNITS=TRANSMITTANCE
##RESOLUTION=4
##FIRSTX=3997.453
##LASTX=373.96442
##DELTAX=-1.4165319
##MAXY=0.89652294
##MINY=0.41508228
##XFACTOR=1
##YFACTOR=8.3495205e-010
##NPOINTS=2559
##FIRSTY=0.80220592
##XYDATA=(X++(Y..Y))
3997+960780823+961803869+962485542+962449635+962058077+961710209+961404459
3988+961112272+961017970+961194724+961474846+961742976+962016173+962240899
3978+962321709+962301578+962279305+962240257+962100838+961818788+961395250
3968+960908534+960581725+960629911+960995697+961406743+961752684+962144955
3958+962484900+962344339+961568292+960773684+960888189+962164872+963798347
3948+964695538+964615156+964162206+963903714+963908283+963875802+963586185
3938+963232606+963204908+963608672+964177912+964585102+964676192+964610802
3928+964787913+965294331+965532978+964909199+963796777+963004882+962642094
3918+962169941+961287456+960421889+960204516+960791674+961913876+963310703
3908+964904131+966573513+967995541+968879953+969256876+969182134+968418437
3898+967001192+965722653+965418759+966055601+966600569+965985214+964774278
3888+964508504+965495214+966634478+966983917+966887901+966689517+966103145
3878+965502353+965742498+966704794+967501757+967715561+967652669+967565506
3869+967805437+968887377+970381934+970679260+968708267+965768912+964002728
3859+964353809+966793385+970771135+974323490+973776524+969571692+966204086
3849+964951032+965135995+966149761+967412238+968306288+968749386+969168927
3839+969586184+969543423+969060633+968453559+967482126+965909972+964468528
3829+964247014+965320102+966846782+968380030+970084464+971363575+970937181
3819+969367954+968196923+967340423+966157114+964993436+964412061+964485161
3809+965010212+965610861+966225716+967412595+969100539+969885223+968998527
3799+968193354+968610039+968938133+967860976+965975220+964655990+964440544
3789+965073318+966129059+967153889+967598344+967357556+967007474+966784604
3779+966103216+964734301+963536929+963358675+964370442+966227430+967984333
3769+968539723+968000752+967422946+967237126+967409811+968149808+969364242
3759+970128439+969692265+968865533+969053423+970675905+972766328+973314722
3750+971915753+971021774+971578664+971568027+968898799+965386278+963823618
3740+964053556+964959384+965991924+966727852+966133627+963998802+961901597
3730+961155675+961700714+962846831+964091605+965234295+965973863+965853791
3720+964828246+963577334+963076840+964009082+966415820+969264586+970309904
3710+968382672+965416617+963543639+963153438+963659428+964173200+963953828
3700+963143587+962581486+962710411+963520438+965241077+968331345+972409108
3690+975107675+973515319+968710124+964527065+962623604+962576846+963615526
3680+965473727+968323706+971770623+973962487+973541732+972457365+972252413
3670+971629491+969441197+967154246+966076946+965658190+965145490+964653134
3660+964775848+965653051+966684591+967204288+967582853+969003095+972101073
3650+975917417+977008066+973198361+968314926+966098648+966416962+967400531
3640+967714133+967427801+967060015+966537320+965700380+965059040+965212308
3631+965744854+965240006+963292857+961626900+961294166+962220840+964353024
3621+967254330+969510228+970185048+970296483+970801189+971277625+971292045
3611+971283550+971516914+971314461+970059051+968240469+966781535+966006273
3601+965504780+964836099+964253082+964229953+964545840+964561259+964334749
3591+964596953+965590873+966476142+966279970+965528695+965249001+965396272
3581+965545899+965705877+965883059+965621926+964780988+964146359+964583104
3571+966187881+968596761+971071460+971990780+970305407+967534096+965665829
3561+965068035+965061753+965173331+965486362+966014911+966349359+966148547
3551+965775907+965999777+967039027+968161015+968225692+966951935+965430895
3541+964910912+965514132+966289679+966312594+965620355+964959884+964879788
3531+965374356+966089938+966630837+966844855+966840715+966774610+966790173
3521+966871768+966580081+965457807+963915636+963093045+963496666+964357164
3512+964645067+964260221+963964251+964370014+965311964+966162682+966438235
3502+966092651+965358365+964495441+963806557+963570338+963727674+963879657
3492+963776646+963586542+963567910+963728531+963996732+964465030+965094805
3482+965398556+964911055+963925630+963291929+963584472+964650564+965746425
3472+966134198+965696454+964835456+963872447+962968118+962498963+962831340
3462+963669565+964228025+964153569+963844392+963818050+964085680+964298270
3452+964409134+964848592+965796253+966573513+966255485+964853589+963353107
3442+962668293+962934209+963541497+963718965+963262660+962677787+962523520
3432+962819633+963218329+963482460+963620737+963734813+963811911+963636656
3422+963053996+962332774+961979837+962182148+962727330+963342828+963826831
3412+964028998+963947332+963743379+963612670+963684342+963961181+964303338
3403+964546554+964604377+964385576+963762725+962798574+961897314+961508755
3393+961652314+961898956+961908522+961797230+961780168+961711994+961352846
3383+960991557+961295165+962378248+963467398+963803773+963517797+963229822
3373+963206336+963305635+963363958+963329050+963295569+963416142+963582545
3363+963575834+963704117+964545483+965793897+966272189+965470728+964239304
3353+963557559+963465470+963547708+963656502+963755301+963698334+963496952
3343+963386659+963528219+963906142+964332964+964381150+963766366+962935208
3333+962751030+963515370+964704890+965627494+966060813+966269405+966554524
3323+966917955+967197149+967289810+967144609+966816157+966607565+966878692
3313+967642532+968408300+968387669+967080004+964915196+963076983+962400163
3303+962618108+962722832+961933507+960330157+958613445+957333692+956599121
3293+956464057+957074557+958286493+959593087+960619346+961386041+961974269
3284+962283446+962358759+962628530+963384732+964216889+964488088+964244658
3274+964097316+964305837+964594454+964785700+964998433+965232439+965339876
3264+965431680+965780762+966276615+966454797+966085298+965388205+964712742
3254+964220244+963840965+963527077+963539070+964192332+965232582+965886272
3244+965774551+965480865+965846509+966843784+967588421+967556226+967220564
3234+967174234+967322219+967294021+966951864+966251487+965317461+964732231
3224+965044120+965949806+966576083+966612633+966633264+967109486+967648029
3214+967619831+967104632+966700511+966728994+967099920+967662164+968278233
3204+968692705+968624245+968094768+967576428+967602698+968228976+969028081
3194+969503732+969383445+968778084+968138100+967793016+967681224+967746186
3184+968176007+968991816+969833611+970333105+970425622+970284133+970052197
3174+969669849+969063060+968433000+968121538+968244253+968624459+968980323
3165+969159504+969288429+969538997+969761153+969640509+969091544+968231474
3155+967311083+966777680+966895397+967317294+967552371+967630397+967821071
3145+968051579+968017028+967588564+966938657+966485922+966635763+967334141
3135+967997040+968071139+967589135+967084287+967048236+967552442+968279589
3125+968797073+968862249+968631312+968571562+968993815+969667565+970098742
3115+970111591+969875301+969464540+968824271+968131390+967784806+967951352
3105+968368252+968677357+968857680+969216971+969898216+970552191+970701247
3095+970327180+969837608+969514083+969269726+968945772+968568349+968176435
3085+967528242+966149975+963696907+960241423+956307219+952639432+949780386
3075+947852297+946804052+946627298+947159130+947990288+948797460+949519538
3065+950190718+950846050+951376097+951178713+949323296+945437207+940249520
3055+935220598+931883546+931258410+933301932+936840367+940378231+943146900
3046+945355540+947496719+949625405+951453053+952962100+954505628+956220841
3036+957796279+958983443+959876636+960505983+960634194+960246992+959877065
3026+960109714+960889616+961586210+961748544+961517821+961181589+960679810
3016+959863787+958949606+958315762+958029357+957886869+957736742+957454122
3006+956717551+955030108+951924349+947137571+940837320+933911148+927948057
2996+924548541+924282196+926314153+929237518+932178159+934939262+937419886
2986+939292222+940101963+939472473+937325584+934022369+930310392+927282302
2976+926183015+927634740+930920679+934496949+937309593+939289866+940732381
2966+941714308+942160619+942090660+941586454+940631940+939145664+937124629
2956+934636153+931771896+928699261+925594002+922468398+919284113+916180996
2946+913327590+910723324+908494839+907156620+907142057+908138975+909157167
2936+909208851+907850215+905322976+902515543+900727301+901085163+903923436
2927+908630046+913997699+918862003+922727104+925838217+928515583+930592228
2917+931729421+932044452+932153459+932693644+933836477+935145499+936024700
2907+936393913+936695737+937228640+937823365+938180585+938225558+938129400
2897+938166379+938505466+939045580+939537935+939882377+940187056+940553414
2887+940982449+941496292+942186532+943114205+944244474+945433423+946419990
2877+946981020+947174050+947277133+947481085+947793403+948148053+948409543
2867+948371423+947935177+947256573+946635650+946257442+945994167+945476255
2857+944446213+943042961+941682826+940671702+939930135+939092338+937926876
2847+936600293+935379791+934136730+932344205+929652705+926444506+923745224
2837+922508874+923002443+924895053+927734681+931099646+934412641+937026972
2827+938724838+939982890+941470307+943297241+944974120+946066625+946591818
2817+946811690+946988444+947335670+947901197+948474577+948799173+948871416
2808+948923172+949161890+949624977+950237119+950891951+951483535+951989311
2798+952540775+953293050+954196666+954981565+955371551+955307089+955014403
2788+954870629+955143399+955807654+956570637+957077556+957174071+956997816
2778+956789581+956670293+956612184+956522451+956347553+956179508+956221769
2768+956616967+957371812+958381937+959393418+960048750+960142053+959839801
2758+959576597+959675468+960021766+960214154+960113427+960054604+960375916
2748+960970212+961486982+961812007+962129464+962569850+963006095+963294142
2738+963539498+963910853+964303124+964431621+964220030+963862810+963522508
2728+963202409+962914720+962742035+962686211+962678215+962766235+963059422
2718+963464899+963730387+963754159+963660785+963610243+963696764+963952258
2708+964327753+964706532+964976731+965095305+965116007+965138922+965177185
2698+965140778+965036553+965042835+965224943+965338163+965169618+964920764
2689+964917123+965090950+965152414+965130641+965305254+965677394+965912256
2679+965794111+965447599+965097660+964832815+964659916+964595739+964614585
2669+964629577+964582247+964453108+964262005+964209607+964596953+965368074
2659+965994566+966077017+965833303+965812600+966307883+967099492+967641604
2649+967572573+967102919+966764473+966806306+967016326+967053162+966752623
2639+966160040+965441960+964786913+964342387+964248799+964626578+965377212
2629+966104144+966499771+966705579+966962715+967127690+966985916+966796669
2619+966951721+967308870+967428514+967299661+967304087+967581354+967895456
2609+968082418+968226192+968369537+968397377+968267311+968084489+967890745
2599+967621759+967333356+967249405+967463137+967747685+967839489+967796585
2589+967838347+967934505+967874111+967725127+967870185+968485612+969211474
2580+969532072+969459615+969559842+970114518+970638213+970661770+970542340
2570+970865366+971519555+972110996+972822224+973987401+975118883+975202834
2560+973964200+972209010+970892921+970331177+970323111+970607802+971074387
2550+971719153+972440589+972929946+972980702+972844782+972936514+973235054
2540+973323859+972946437+972290819+971818167+971902617+972496628+973201502
2530+973750967+974207344+974634166+974949625+975128092+975144440+974812705
2520+974139526+973651525+973856620+974524516+974929280+974692275+974097693
2510+973721770+973943783+974669574+975449619+975953967+976196326+976164416
2500+975627158+974654226+973914086+973990756+974662150+975207831+975227820
2490+974902581+974627884+974650014+975042571+975838106+976928898+977848219
2480+978039750+977549250+977095729+977185249+977482218+977359361+976806470
2470+976440540+976723232+977427322+977899831+977775190+977401694+977440100
2461+978010838+978561160+978712786+978708074+978720924+978451510+977856642
2451+977495211+977622922+977684029+977149270+976207605+975381587+975040643
2441+975317196+975956680+976305619+975935335+975235458+974982034+975374805
2431+975916775+976216385+976382503+976590524+976834810+977158193+977563171
2421+977807528+977752346+977590940+977427036+977146557+976857868+976859010
2411+977180180+977617139+978021189+978306951+978518613+978882472+979428582
2401+979775237+979636889+979204856+978782459+978424811+978139335+978100643
2391+978446512+978976275+979108840+978134195+975703256+972189022+968335128
2381+964376795+959773768+953998995+947304188+940450046+933937133+927725901
2371+921538655+915245399+908854129+902315017+895903117+890733277+887883297
2361+887016874+887082336+888243944+891680652+897605980+904973323+912786977
2351+920174594+925658107+927599760+925221719+919446733+913075523+908874760
2342+907283260+907185460+907844861+909267602+911386723+913528330+914955283
2332+915683643+916268945+916929059+917480095+918072178+919362639+921846832
2322+925377200+929519711+933924926+938041452+941153992+943121915+944579707
2312+946213682+948237715+950591341+953263781+956297011+959522771+962414941
2302+964515572+966063454+967776169+969915135+971948662+973210426+973611049
2292+973660449+973925151+974539364+975310843+976144285+976984509+977481576
2282+977341443+976965520+977054611+977600078+977948089+977826446+977685242
2272+977984496+978610702+979132184+979417517+979794511+980556495+981520647
2262+982241726+982431401+981983020+980881948+979400027+978251483+978147901
2252+978971849+979772096+980082772+980774725+982679899+984864695+985605548
2242+984877545+984402608+985113550+985880245+985263462+983607500+982518207
2232+982777556+983746419+984512972+984767966+984862268+985589558+987382511
2223+989377133+989881339+988008860+984485202+980974037+978977702+979224844
2213+981620232+985237906+988503286+990261974+990858054+991339773+991727475
2203+991124899+989242854+986797139+984798163+984065733+984868050+986524798
2193+987737019+987643787+986518658+985237121+984207650+983457017+983685598
2183+985778733+988954737+991359048+992795781+994535479+996275107+995934092
2173+993045706+989980566+989062459+990200224+991710985+992143875+991107123
2163+989801671+990657671+994383568+997672220+997022385+993786559+991610829
2153+991943564+993847524+995691376+996427661+996156391+995489994+994568532
2143+993348815+992031155+990427163+988204103+986391661+986977105+990277607
2133+994177974+996459142+996621333+995442664+993920267+992564130+991218986
2123+989863849+989319095+990182877+991478335+991747035+991159307+991021530
2113+991540656+991644452+990887680+990152537+990309446+991105910+991630889
2104+991462559+991002256+990735126+990642966+990589283+990795448+991396240
2094+991832843+991362903+990153251+989255704+989312813+989838935+990055451
2084+989756126+989057962+988173193+987735305+988321178+989382487+989752628
2074+989367853+989240284+989838007+990950715+992877162+995999696+999240733
2064+1000663474+999742726+997540440+994968655+992592471+991593268+992829475
2054+994767915+994193893+989923314+984915523+983729572+987722955+993782776
2044+998350253+1001015983+1003035590+1003988248+1002237199+998309206+995323163
2034+995375132+997317284+998958898+999634646+999666628+999216533+998695623
2024+998909855+1000112439+1001670387+1002703569+1002410169+1000432823+998030297
2014+997792436+1000480153+1003360686+1003684782+1002598988+1002913875
2006+1004251523+1003780869+1000833732+997788224+997089132+999011938+1001722071
1996+1003055293+1002660951+1002257187+1003413512+1005478521+1006380495
1987+1004806413+1000993210+996371051+992852676+991700277+992706547+994877351
1977+997627461+1000568101+1002950425+1004443554+1005429907+1005905772
1969+1005317615+1003776086+1002191368+1000926392+999490516+997708199+996271466
1959+995953723+996625046+997187789+996486269+994547187+992980744+993589817
1949+996304090+999008583+999725593+998226254+995235714+991461416+988016498
1939+986325414+986953048+989170182+991727618+993768927+994977293+995419107
1929+995550530+995904466+996563296+997250038+997858897+998531576+999299199
1919+1000015781+1000602153+1001096579+1001495417+1001864274+1002633325
1911+1004268442+1006301684+1007339863+1006718155+1005331678+1004272868
1902+1003584627+1002850769+1002244552+1002294094+1003041658+1004058493
1894+1005139362+1006414832+1007635548+1008003048+1007430097+1007342148
1885+1008966985+1011558830+1013183453+1013066593+1012238362+1011839452
1877+1011923688+1012077099+1012355436+1013240919+1014938571+1016632297
1868+1016567478+1014138467+1011112233+1009352403+1009077778+1009333057
1860+1009218767+1008648314+1008125691+1008081930+1008466063+1008876895
1851+1009096909+1009460412+1010594393+1012803246+1015590262+1017557257
1843+1017552403+1016235315+1014948137+1014004260+1012662543+1010171996
1834+1006985999+1004570194+1004026512+1005212319+1007108998+1009044726
1826+1010750087+1011562827+1010929197+1009277019+1007608707+1006865854
1817+1007544316+1009353759+1011623720+1013924306+1015835191+1016750157
1809+1016617520+1016227890+1016357529+1017235945+1018653118+1020063437
1800+1020878176+1021120249+1021427713+1022289710+1023661195+1024920817
1792+1025043388+1023812606+1022409854+1021806420+1021877093+1022047351
1783+1022332113+1023202177+1024382988+1024999485+1025078796+1025639469
1775+1027344831+1029686750+1031074083+1030491351+1028813402+1027196346
1766+1026048587+1025567796+1025887181+1026650593+1027221331+1027554137
1758+1027878805+1028042067+1028112454+1028680908+1029987931+1031308803
1749+1031532315+1030650830+1029659480+1029120009+1028912416+1028826038
1741+1028781421+1028710034+1028861231+1029853081+1031758112+1033128955
1732+1032388244+1030291611+1027916140+1025527320+1023297050+1021324916
1724+1019724136+1018959225+1019667597+1022343749+1026808001+1030869416
1715+1031920946+1030726500+1029353301+1028870440+1029588593+1031535670
1707+1034763287+1039069274+1043685651+1048273116+1053131566+1057232958
1698+1058033634+1054768754+1048905104+1043760678+1042314023+1044922857
1690+1050187570+1056069994+1061566500+1067084994+1071970357+1073741823
1681+1072522677+1070423046+1068576195+1067136464+1065783468+1064598945
1673+1064086815+1063779923+1061296372+1053428322+1039443270+1017837380
1664+979736046+913635410+825395696+741371878+679915318+643225446+627892752
1655+632029695+653666995+677809833+695266716+712804052+736353664+763309075
1645+785399539+802098293+817188343+832101568+846931270+862588489+879487483
1635+893965390+903188650+909664942+915739039+921420581+925393191+926220494
1625+922030082+910631449+893768719+877542404+866104080+861199157+863860889
1615+871747929+881214546+891494261+902759401+914044314+923600237+930243574
1605+933780795+934221253+931027973+923355951+910639230+892529300+869009598
1595+841725594+814964498+793933201+781578841+776743805+774719487+770713610
1585+764208550+759909845+763585057+776303634+793827977+811103395+824695676
1575+833509460+840282936+848734003+860720508+874562857+884484781+887347182
1565+885928295+884954863+887965749+897147462+914294525+933206845+942524549
1555+945953191+949057308+953013999+957463616+961657168+965079100+968170439
1545+971861427+976406988+981125734+984910311+986292433+985612045+985232338
1536+986129742+987844385+989314955+990236774+991503963+993825894+996994401
1526+1000188966+1003080421+1005918193+1008412452+1010078337+1011275995
1517+1012123500+1012025914+1010975670+1009729968+1008818286+1008360125
1509+1008377758+1008793444+1009411083+1010444409+1012235506+1014838201
1500+1018068173+1021471973+1024248352+1025782885+1026688071+1028203330
1492+1030924741+1034220032+1036378772+1036663749+1036104575+1035554896
1483+1034962884+1033820194+1031571007+1027683276+1021463121+1011620222
1475+994719443+965123074+924590730+886848258+860543254+844994829+838012261
1465+836773770+836126147+832214216+824070541+811179350+796531471+792000972
1455+802672744+820710430+839928357+857285655+871481656+882876220+891768530
1445+896730634+895474153+887655216+877287553+870746228+871317537+874096986
1435+869622027+857469762+845582842+842722298+853360589+873070871+893688552
1425+910297216+921065645+926607482+929554262+932298803+935079252+936150983
1415+933174364+923823821+908004054+890992625+881334619+883801322+896353425
1405+912476372+924835373+929359661+925540819+914553232+900693535+891212426
1395+891327715+900722447+914752401+929385218+943543883+956958982+968063644
1385+974989459+977598293+976579673+971676678+961535668+944260822+916440987
1375+872152336+808689732+735354390+666750002+610788306+571558274+552618685
1366+553338765+569213250+593894916+618531073+635884659+644842716+648051130
1356+649029773+650630767+653270726+654926403+653473965+649053402+644638264
1346+644085087+649189537+659035005+671925838+686571719+701571536+715586856
1336+728291584+740122465+751463917+762320580+772539688+782340539+792314289
1326+802757694+813439745+824023711+834317489+844186158+853466384+862004544
1316+869779934+876852021+883147133+888580747+893318910+897573642+901425679
1306+905146507+909222985+913826798+918670329+923384006+927574775+930250927
1296+929118873+921015531+904511806+882903347+863729965+854097016+856011899
1286+866081878+879018828+890711575+898714262+901638698+898660150+888770208
1276+870526998+844287242+815966485+797023612+797215928+815991113+842824881
1266+866312387+881243173+888002085+888860298+886595834+884953507+887848032
1256+896955574+909891024+920552944+921362258+906227948+873630259+828811559
1247+782558983+746034086+725411907+720394693+726656110+739147819+753644858
1237+766311608+773248774+772025987+764237961+755525189+751743040+754840375
1227+762564938+771430692+779250628+785493270+790510199+794694329+797759254
1217+798445996+794884146+785259478+768697716+746535008+723071131+704285238
1207+694827900+695729231+704741329+718608093+734894444+752219976+769676501
1197+786399884+801382925+813141277+819441956+818293698+810388883+800266933
1187+793610176+792781231+795368649+796876841+794392719+788541705+783183832
1177+783028494+790357931+803236557+816856608+826826718+830953738+828216264
1167+818250866+803830354+792204996+790578302+799943765+815267536+831161973
1157+845410871+857791146+867784885+873805656+874175369+869394588+863436351
1147+861527394+866133420+875663215+886850400+897256541+905184342+908477206
1137+905086828+895281265+882399783+870453755+861061808+853371511+846924417
1128+843724998+846932341+857808279+874278380+892087486+906650344+913398548
1118+906904910+882039351+839230978+789308329+750117417+735135518+744745481
1108+768590064+794713532+815593274+828044436+830671046+821910587+799629663
1098+762983765+715750046+667674962+630973882+613811756+616313296+632455803
1088+655146774+679486426+702893336+724175415+742927113+759122019+772877133
1078+784569452+794953749+804804714+814337721+823200905+831153264+838419809
1068+845193070+851240540+856302657+860542326+864316480+867675948+870139153
1058+870178773+863775867+844427517+808655466+764120102+729154509+719742431
1048+736959311+768814647+802367636+831583370+855887971+875645297+889642271
1038+894514141+885925154+861956929+825935310+784721292+744292745+708748062
1028+683151786+673808240+683591030+708314672+739207570+768505257+792539229
1018+811263158+826388259+839581060+851298864+860694880+866202951+865703100
1009+856207641+834603322+800464961+758990310+720361641+694764794+687076282
999+695446254+713641920+734433928+752510806+766335451+777768136+788955678
989+798559287+801443532+793888656+779587074+768334285+767432882+776012018
979+788591890+801537478+814287750+826837640+838652602+848834802+855582935
969+856899238+853580389+850016612+849822154+850932577+845997529+827779019
959+795546189+758321557+731011853+723876875+734089486+748630356+756304449
949+756629331+757260177+764508946+777974373+793293932+807111296+818480732
939+827611974+834995022+841255297+846893435+851983535+856319862+859945960
929+863275873+866475292+869173217+871181402+872991203+875156368+877602440
919+879854626+881719894+883542045+885795944+888541342+891403528+893964319
909+896022404+897638532+899043070+900436114+901962294+903828634+906163200
899+908805800+911524642+914300236+917161709+919889332+922144801+923973876
890+925918241+928312415+930782545+932880535+934740521+936526693+937655034
880+937211650+935176409+932707565+930552322+927794932+923815112+920727842
870+920880396+921346909+912788119+885060873+836401201+780171019+740217338
860+733826925+758504022+797121341+833211491+858624017+869569557+861428880
850+832337002+792240404+762270538+759090323+781280301+814101288+844508612
840+868254610+886399021+900656842+912087885+921241185+928456260+934392296
830+940134016+946343035+952564618+957931914+962336486+966400757+970660771
820+975274221+980189923+985197073+989845502+993224744+993242663+985176656
810+961203291+914976128+851243110+790389627+757772164+765024574+802915388
800+852250094+898338481+935455389+963672207+985360477+1003003466+1017736296
790+1028206328+1029268779+1014201287+983942805+953864716+944191005+961118340
781+991582560+1016231602+1021335052+999194403+948858424+884229787+833062507
771+813906330+813596440+798030881+747110886+672050480+600867025+557814081
761+554614698+586256552+628694712+649227800+629213053+578890423+527575051
751+498944725+497133068+512838973+535779763+560292206+584285560+606917994
741+627483348+645529244+661263418+675395527+688612885+701185618+712873154
731+723038650+730408991+732969996+729610457+722309004+715511043+713339810
721+717953618+729090974+743736141+756829357+763209704+760363151+751399740
711+744502266+746884875+759245875+776851171+794587106+809626899+820756546
701+826925232+825919462+813770552+787095764+748538196+709653819+685286326
691+683401498+700718819+727394893+754704454+778997918+800496942+820160537
681+838233989+854361862+866731785+869744741+853352593+809665377+744426667
671+676054143+624165142+607222459+629589904+665885935+696694168+721776244
662+743727646+762221281+774154102+773441733+755164114+724410349+698026462
652+693066500+713326247+748972799+787101260+819015991+838119627+835956675
642+805871448+752948051+697373200+662004771+655576737+669972336+690734218
632+706585324+711729322+705733250+693648374+683744369+682333121+689790626
622+701782841+714000782+725227586+736379078+747784136+758326554+766881276
612+773239565+777579460+780310724+782515080+785395542+789197323+793302070
602+797041387+799925704+801294405+799686272+792783230+779545527+763239259
592+750935011+748392424+755697232+768429943+781579911+792041020+799294858
582+804446423+808607137+812353594+815862260+818719378+820320801+821085069
572+822383525+824825457+827543799+829600171+831145412+832517611+833350410
562+833374396+833063221+832661455+831188958+827085781+819794037+810563924
552+801583094+794395717+789650844+788280358+791490770+798852402+807766556
543+815749255+822133671+827224914+831393552+835259082+839297225+843076163
533+845814779+847583104+849401971+852251308+855985914+859157848+860589870
523+860805458+860889552+861102642+861496055+862805862+865523704+868762671
513+871048694+871686465+870867300+868890953+866165758+863873025+863141951
503+863255599+862300443+860251139+859254720+860266987+861410176+860054753
493+855928804+851634453+850115269+851772230+853697963+850875468+839281377
483+820315518+801489077+790993203+791996475+801599299+814561591+827734688
473+840136878+850801440+859235517+866106650+871126149+871346806+861830003
463+838396537+802238783+762116414+730580676+717774722+724569328+743048900
453+765537631+786781590+802823941+813723151+823290639+833966694+843840788
443+849111355+848383494+843802881+837914532+831040687+822183071+810822202
433+796885193+780756678+765918266+759431838+765859800+782283287+801179044
424+816764376+828059784+836740004+844710494+852738166+859228021+862290092
414+861262477+856230557+847574537+836167266+824631856+817240527+816552643
404+821005544+826699792+830102377+829170707+826101284+827915868+835533493
394+842157556+844501545+844338854+841974877+834558848+821409808+806775849
384+794768286+783966019+771474024+757940708+745443074+733255901+718902421
374+707625503
##END=
