##TITLE=X9610
##JCAMP-DX=5.0
##DATA TYPE=LINK
##BLOCKS=1


$$ === CHEMSPECTRA SPECTRUM ORIG ===
##TITLE=X9610
##JCAMP-DX=5.00
##DATA TYPE=INFRARED SPECTRUM
##DATA CLASS=XYDATA
##ORIGIN=Default
##OWNER=
##XUNITS=1/CM
##YUNITS=TRANSMITTANCE
##XFACTOR=1
##YFACTOR=9.4088581e-010
##FIRSTX=3996.5625
##LASTX=399.65625
##MAXX=3996.5625
##MAXY=1.0102684448642316
##MINX=399.65625
##MINY=0.4223988330018372
##NPOINTS=1765
##XYDATA= (X++(Y..Y))
1765A009349211A009868170A010300467A010703877A010847174A010768747A010481394
1758A010068545A010339491A011095124A011196863A010728077A010365021A009698647
1751A008627217A008519776A009965159A011576580A012114860A012241749A012795868
1744A013641710A014151927A014004386A013634742A013394964A013443109A013115592
1737A012416531A012506234A012932449A012975970A013099312A013227721A013443680
1730A014197032A014417805A014132289A014391895A014279449A013096208A011922025
1723A011298222A011658237A014617482A019556399A022782029A022529581A019488742
1716A015442420A013885162A015649256A016851566A016622241A018061351A019629885
1709A020145930A020136871A018138067A017112122A018799183A021439590A023566106
1702A022872619A021836348A022430059A020961048A018049378A018205915A023048034
1695A030038714A028981411A021270193A016640739A016771619A020416242A025056403
1688A028351654A028376867A025349584A022421317A020067376A018467231A018628012
1681A020004914A023372637A027640112A027248359A024852037A022371334A018349655
1674A016287692A018081623A021058859A021915155A023366935A024657238A022871035
1667A020729949A017856986A015029191A014223385A014614252A015345875A015866164
1660A016333177A017954481A018607044A016634277A015125799A016189310A019083179
1653A020663939A020137378A018829591A018312342A019857880A021466007A022757513
1646A026884986A033635509A036169489A033950482A033870662A031885859A025770668
1639A023767050A027341546A031969227A031564424A025762243A020080680A018163090
1632A019126256A020652979A021178527A020018407A018556047A019353998A023298771
1625A026795283A024766325A020235126A018160176A019006272A019373509A017743020
1618A016384553A016892426A020390966A026025904A027945393A023561671A019297300
1611A018017007A019859273A024828978A030765206A031792102A029974161A030505917
1604A027579740A020993229A016986120A016201220A016982002A019105541A021132345
1597A022237223A026731490A034043733A034209962A026438372A019968615A017733961
1590A018257925A018763834A018831618A019978560A023694579A028810367A027625795
1583A021223505A018355610A020506832A024305458A024610169A023480204A023866129
1576A024357468A023829323A021605439A019296286A019281463A020568851A021006596
1569A020547502A019699189A018618827A019129297A021840085A022688715A020070037
1562A018164041A017635579A016948364A016219591A016264126A017057642A018982960
1555A022199024A023874935A022116669A019854269A018664058A017898860A017737762
1548A018539640A018729245A017989069A018056663A018135027A017154947A016550782
1541A016708396A016651381A016282687A016433269A017289247A018434543A019132148
1534A018770549A017778812A016795438A016283574A016497696A017131761A017603524
1527A017458074A016708649A016358707A017565578A019360269A019403917A018281807
1520A017906715A017704313A017139869A016983206A017006709A016655372A016458989
1513A016617426A016379865A015843739A016068629A016851122A016931956A016172206
1506A015382174A015284109A015869395A016344136A016296878A016194758A016242904
1499A015952446A015129853A014397660A014486476A014939044A015218162A015391297
1492A015030838A014020730A013163421A013361008A013983291A013912656A013527681
1485A013493852A013774681A013946675A013715259A012970712A011808566A010837354
1478A010550445A010378514A009373728A007796262A006697528A006820679A007995559
1471A009305817A010732321A012320366A013066243A013016641A013160571A013781459
1464A014565029A014941959A014857260A014759132A014516377A014068242A013969354
1457A014162570A014317459A014695212A015134414A015236154A014979461A014480901
1450A014318663A014730878A015154369A015352210A015501651A015361649A014970212
1443A014795685A014663664A014606903A015093110A015614920A015169447A014339315
1436A014500476A015248317A015299820A014905152A015059472A015748778A016591643
1429A017071262A016825022A016406916A016244678A016460193A016961414A017016655
1422A016418699A015625626A015123645A015412392A016221492A016727718A016525189
1415A016092829A016003823A016077498A016186206A016190831A015784950A015317368
1408A015093364A015077970A015649256A016211229A015982031A016106006A017145381
1401A017464599A016373024A015556449A015672822A016054186A016882480A017710522
1394A017514138A016747229A016278570A015998438A015778362A015851087A016259121
1387A016309928A015587046A015108948A014939425A014363071A014117401A014578079
1380A014970909A015028937A014967615A014561988A014178154A014668859A015325223
1373A015319458A015258453A015324653A015325793A015689483A016436120A016849475
1366A016663038A016832624A017645842A017943521A017238505A016428011A016208125
1359A016008384A015791412A016187283A016543117A016049118A015654894A015920011
1352A016101191A016038538A015560946A015280118A015458574A014937017A014096116
1345A013683394A013361642A013151258A013298673A013000803A011832512A011494796
1338A012496921A013130543A012867009A012067728A011209279A011022398A011195026
1331A011141875A010459791A008745681A006962519A006672252A007745836A009190204
1324A010682592A011910432A012409879A012093258A011631314A011739071A012143114
1317A012578579A012928648A012652508A011974288A011581901A011553837A011497393
1310A010747081A009065659A006636776A003850728A002104309A002658997A004804645
1303A007380562A009773083A011357581A012231740A012690834A012837932A012829633
1296A012262021A010648193A007429975A001608029I92425203I80895847I72003858
1289I71379929I78383976I87368329I94561475I99417784A002380450A004166652
1282A005193864A005386764A004721150A003512189A001839825I98687807I92966144
1275I85365154I77814591I71285602I64920054I56968868I48576897I45368752I50957761
1267I61548784I69931379I72563361I69831604I62364979I50442033I32259840I05069158
1259H75518644H59421790H60672626H63935061H55330362H36882355H23424387H29142123
1251H50966912H73130051H86655613H92937602H94498090H91716477H84373193H72418003
1243H57856297H44322817H33112616H21693616H05648455G83323078G62434657G57829909
1235G75662666H05117839H31890668H51147458H64553733H75041242H84461693H93010264
1227I00497035I06557681I11454471I15680516I18736559I19759590I17666523I11546834
1219I02230974H92523487H84772105H78203142H70216988H62307106H61737404H71542259
1211H84543477H91936490H89845703H78742943H64155961H55423739H58023730H69354358
1203H83701245H96935146I07565508I15704842I21480542I25608206I29549115I34239765
1195I39944577I46250703I52058839I56870740I60772562I63785718I66389382I68898022
1187I71137491I73333057I75575250I77376403I78688751I79993624I81218423I82069270
1179I82919800I84051286I85281153I86310456I86791975I86849560I87061464I87334564
1171I87313848I87510865I88093427I88745230I89350915I89597408I89782958I90374073
1163I91114438I91769155I92328215I93046218I94056262I94969129I95639936I96269757
1155I96676968I96685963I96378845I95597556I94393092I93296828I93212954I94451626
1147I95986902I97117563I98015479I98537352I98448726I98173029I98178858I98470835
1139I98726704I98943169I99683028A000930887A002086952A002810403A003281723
1132A003706165A004020442A004321035A004548966A004552641A004606234A004813261
1125A004708227A004361325A004197440A003991427A003553936A002883952A002055023
1118A001517946A001506163A001781037A002203388A002679459A002983030A003117965
1111A003422866A004067320A004796536A005483055A006112052A006581979A007057100
1104A007810452A008770577A009803997A010874414A011555548A011702582A011557321
1097A011242981A011188944A011370250A011211370A010979764A011009095A010425203
1090A009039432A008061063A007992075A008277084A008203852A007899775A008305592
1083A009290043A009910741A009950018A009753888A009935828A010914831A012203486
1076A012357109A011219795A010459285A010629821A011424034A012359326A012482097
1069A012244093A012566162A012879552A012822158A012466387A012133042A012456758
1062A012837868A013050216A013678960A014452013A015220823A016100811A016500800
1055A016025995A015399405A015291394A015427786A015500954A015663446A015728126
1048A015290317A014482104A013651593A013131557A013317424A013700308A013560813
1041A013202318A012844647A012729477A013386158A014805440A015972275A016098974
1034A015789385A015220316A014100741A013140045A012961590A013412322A014582577
1027A016573462A018249563A018346551A018048111A018607361A018256848A016333430
1020A015124468A015274670A015414609A015534340A016297258A017518066A019049920
1013A020846892A022267695A022820482A022853424A022631131A022438421A022849940
1006A023588278A023730371A023477417A023729231A024349422A024537887A024179139
999A023940311A023699963A022915887A022043627A021359263A020869508A021244854
992A022137828A022632208A023010848A022868945A021977174A021496541A021655612
985A022227848A022931851A023025291A022865524A023128107A023459742A023584224
978A023719538A023929352A024234696A024623536A024575707A023749123A022392556
971A021134245A020658681A020632961A020575123A020679396A020968840A020917843
964A019570273A017994708A018076682A018360044A017176865A016415848A017971015
957A020013086A020278140A019165089A018723037A019020463A019667324A021039031
950A022056234A022010749A020987084A019940931A020251343A020912775A021035927
943A021158065A021646426A022033872A021490396A020898332A021552415A022967326
936A024179392A025013262A025342426A025621860A026861864A028518010A029118689
929A029084607A029932667A031169883A031587736A031378810A030720988A029399454
922A028527132A028227109A027039179A026606185A028452696A030342032A030953544
915A031178562A031977589A033456230A034145979A033713809A033728949A033872499
908A033137708A032788399A034407232A037290775A038821615A038174310A037709388
901A038371391A039260247A039934159A039676834A038621621A038085368A038473130
894A038648481A038286882A038738881A039939354A040814844A041890962A043693889
887A045212630A045508218A045509422A045263753A043618439A042103500A041966031
880A042639626A045207752A047803371A045227073A040355560A039382512A041610387
873A043796325A043755338A041900021A041221991A041954185A040237730A037787942
866A039834194A042868255A043339132A044618918A044820560A040865777A036999304
859A036843717A039396005A043004583A044830189A043670766A043041769A043583471
852A044325990A045833518A046040291A045206865A045278323A045053242A044439512
845A044837411A045770232A046295906A046042888A045312595A044471504A043178984
838A042244262A042750171A043841176A044323963A044896769A046175099A046919519
831A046680881A045433973A043471025A043246895A045395646A047298792A047742682
824A047368096A047127051A047892250A049098108A049281251A047370123A044983431
817A044986662A045890153A045640746A045653479A046564318A047921708A050118858
810A052481605A053776975A054463113A054332804A052445115A051062892A052472799
803A054352759A054478761A053868832A054553513A056383300A054834088A049163991
796A045613062A046343228A048445481A049627900A049198453A049382167A052010348
789A055907609A058389452A057835967A054641126A051795403A053335809A058179322
782A061413124A061635670A062076836A062654584A061267230A061614322A065055466
775A065731276A062633805A061728034A065237024A068558694A067120784A062836080
768A060394590A060715899A060665219A058905434A057201522A057178590A057578008
761A056151884A055128727A057075077A058843921A056741225A053697091A052881213
754A053656674A055607269A058487010A060147021A060379006A061598548A062729970
747A062582619A062596429A061844597A060528511A061012375A061620783A060201311
740A059190887A060513181A062665290A064088880A065177604A066297243A066738786
733A067145493A067910248A067011825A065616993A065977328A066626787A066378961
726A066182074A067027533A068860108A071331501A073741823A073503122A069595852
719A065861906A064058979A062828478A062055868A062540808A063796332A064629124
712A065383867A067703979A071491139A072276676A069385528A067385334A066813922
705A066489192A067441335A070485785A071822460A069436461A066096932A063091125
698A061180694A060901450A061643969A063040572A065201044A066924783A066768310
691A065281878A064234201A064652564A065741035A065601285A065270472A067213911
684A068643709A064174145A057738473A053566021A050382962A047362015A043681472
677A039042262A036213200A036619080A035915014A030533854A024558983A020719940
670A018930633A016607544A011949898A006444193A000763010I96843830I95892257
663I93485483I85735242I75131423I63944788I51062668I32724128I12163098
656H85907708H38001550G86255906G46109175G12709545F82359054F49445061
649F18628571E95004086E77240823E66398240E60485894E57895407E60847430
642E71954687E90309635F12218995F43006788F77238704G06366613G35055954
635G58655353G81757711H05921174H28721609H49830739H57190747H55128658
628H55659210H60570379H66753924H74864560H88781242I03893011I15628886
621I28462037I39526091I44931767I50313243I60866003I75675215I79850897
614I78726824I80802787I74164013I57563974I39331988I18965441H90290353
607H34237070G67397710G19844029F80352332F39349305E95835801E45785263
600D98846103D69240190D52530335D48937404D58955336D77987394E01714505
593E25756337E48730888E70950218E92150444F12129863F32656051F55024885
586F78976571G01925497G19531019G29387504G33963872G35203052G33620074
579G28086369G09341506F90504659F99003121G32856016G70691251G96731189
572H17596804H36944754H60121422H79897045H85024173H91091091I00523451
565I10835609I21553014I34589898I52086839I71188297I80772506I77699612
558I77949209I83133478I86421254I90075633I97490882A006394211A015671111
551A022465092A023190950A021025601A016453541A009922461A002211750I88808073
544I42803794H64054285H07128552G67495079G40224893G39078014G66964210
537H06681178H52216734H95757288I25385216I43224181I50620362I45083679
530I27653508I06134950H83916824H42813958G82269829G26777188F76297140
523F35102672F18062353F13303032E98035993E79245771E85174651F03966013
516F22343956F43288440F74504856G13073805G49534229G71996694G75157897
509G66334833G63724643G67936751G66342751G46397162G02925152F52317644
502F36013004F74391714G37274897G86514879H24044896H54018394H76564291
495H92785880I02441801I05259840I04819624I01850307H89824354H55456048
488G98158517G42931310G12061670G09091275G09626832G00223486F88590871
481F74117474F62066879F73764681G10829395G44807152G47639065G13387638
474F71063078F56534757F76471921G09811749G40878660G67335438G93362516
467H19024448H40881292H58064400H72564340H86323661H99356490I09591932
460I15770852I16856789I09564312H91273918H65809953H48127904H54053870
453H81011045I11696909I33703638I45018872I46174621I33659104H99889576
446H44146642G88790836G66192043G82874817H19821575H59733026H94475095
439I21154736I41466739I57986895I70760118I79652867I86536233I93199144
432A000021124A006325920A010354758A010365717A005926311I97892518I87176950
425I71497252I44462537I04731568H71280879H70725748H98071256I18099326
418I04009131H48872008G60893364F72242392F29068758F50128096G11510656
411G78025032H28106675H49510127H26135429G46582839F45339444E93540649
404F13611671F64531681G11565770G48667734G76972417G95686239H02224668
397G93169870G63487589G06373772F25524544E48204960E09944936E23884581
390E75935190F45226935G16875535G80547419H28604412H57289192H65803935
383H51802112H08779250G36685937F60993042F22278009F34199814F69658303
376F89176663F68879864F12819359E50875142E14178994E08767078E20203627
369E37073186E59379369E89331835F26085821F68165725G13343103G58060374
362G99007210H32926369H54918591H57864469H32466515G70578806F76944952
355E78135001E07806922D79858453D85384842E10485148E43752884E69964500
348E68872671E35249798D96288304D84539791E03161123E35776802E70266043
341F03427542F35701578F67209591F96999820G23258947G42731823G49651869
334G37707891G07618716F71549475F44785072F34197344F37197133F49143328
327F67977704F92453163G19522214G43442034G56245158G47003290G05030192
320F35401554E67420447E32587155E37281543E66444675F03500647F39388138
313F71335291F99416983G23403257G42227688G54896890G59780947G55065273
306G45375841G44821976G61473455G87317834H12467395H34745766H54869368
299H72650939H85518172H88050378H75659850H46937061G97095005G20353612
292F34783453E80589288E75396212F01371154F36780483F71780891G01860627
285G20419179G19542675G04520609F96110266G05023034G21856896G36430448
278G48818063G62961852G78907237G93853221H06181034H15391988H20789872
271H17763919G92883024G45444068G15936759G36019437G79198455H11692820
264H29922906H40746864H48455865H54345404H58716266H62470294H66760702
257H70702942H71090134H60487075H29357258G90094125G75827945G88560497
250H00778145H10705962H31057939H54223393H69298420H75846034H72710677
243H56873049H35061817H25381507H36080097H55628548H71424302H81482302
236H88650235H94266865H98212715I00847231I01674512H98337894H90944247
229H85114889H86661567H94502715I03472624I11391818I18465106I24140398
222I28072945I30615794I31228447I28539450I20076844I07291522H99154089
215I00668712I06629646I08972247H97318093H51553465G53411978F38930375
208E93680271F41118213G21659436G84756993H15405038H17422022H17455217
201H39738340H71118514H80950357H51092471H03249092G92353992H26134986
194H54447334H29331981G31588773F13319250E71245617F21119600G00407896
187G67576546H15901761H48712177H71339097H87362149H98793313I07080061
180I13266773I16370328I13623938I09807130I14876040I26633961I36764369
173I44138061I49696979I53296054I55816858I58191197I59650896I56856740
166I44540203I26852643I21425808I33926692I49607340I57922152I59863370
159I56859464I47161226I26112468H84557731H15131875G37738679G01882736
152G29321874G84511641H22997412H31796404H29084538H40469837H69423345
145I00967911I24619890I39247986I48025566I55445059I61813395I65423999
138I68385272I72222161I75162844I73034935I56828549I07481253H58428913
131H70485716I09014881I43389840I66275163I81017352I90971839I97355251
124A000778024A002211497I96772815I69589609I07070559H39962851H30668466
117H66702358H63607228H14346214G97505700H34916493H82331186I15676778
110I38129931I53171193I61293295I63307809I61768416I59484730I61284236
103I70218289I82914352I94065131A000766114A004220246A007695789A011661785
96A014335387A016230551A018358017A018858098A013617764A004134724A002693966
89A013240264A024287277A029818575A032887161A034635987A031044894A015145310
82I80005977I22437817H55899051H15592679H25734237H70755268I19969467
75I58531637I81635896I82621868I49293696H86266773H39197462H43131719
68H76657605I07513562I29934153I50248944I69995552I84459763I92408035
61I99817709A008365584A014407542A018212693A020438731A020587349A021492487
54A024482203A025876715A026028628A026975893A025384427A022455082A021594163
47A020321471A011738501I89728478I55203761I09316425H55963160H17479417
40H11694784H31617061H63549896H98386419I27146268I47881953I67473799
33I85162119I95499491A004678516A018915049A029182419A029351372A029899282
26A037186311A042218035A037363183A031697584A034304226A037857880A032667338
19A017642294I94437500I67750383I49420142I52545300I76934667A006340174
12A024930654A033262190A029475474A017118204A013775504A027646510A052184875
5A069143029A072552500A071296279A067764291A059919849
##END=


$$ === CHEMSPECTRA PEAK TABLE EDIT ===
##TITLE=X9610
##JCAMP-DX=5.00
##DATA TYPE=INFRAREDPEAKTABLE
##DATA CLASS=PEAKTABLE
##$CSTHRESHOLD=0.93
##MAXX=3996.5625
##MAXY=1.0102684448642316
##MINX=399.65625
##MINY=0.4223988330018372
##$CSSOLVENTNAME=- - -
##$CSSOLVENTVALUE=0
##$CSSOLVENTX=0
##NPOINTS=55
##PEAKTABLE= (XY..XY)
413.9296875, 0.9538469862391983
430.2421875, 0.8932959393359851
479.1796875, 0.7637121043166151
540.3515625, 0.7895889837838143
558.703125, 0.767379578410985
581.1328125, 0.9434205243820225
611.71875, 0.9027655673686813
630.0703125, 0.7503617965241169
638.2265625, 0.7815641724738674
666.7734375, 0.8076835831354245
699.3984375, 0.7800738770946057
709.59375, 0.6603915065863761
732.0234375, 0.8669564677149845
758.53125, 0.8560246184538253
785.0390625, 0.5374768950599947
797.2734375, 0.7455146275696535
821.7421875, 0.5585853426608545
838.0546875, 0.8460013233435771
864.5625, 0.832792039279825
889.03125, 0.7765897477727156
911.4609375, 0.7299655044519604
944.0859375, 0.6736147374004898
972.6328125, 0.6549602714747255
988.9453125, 0.5413821309985517
1019.53125, 0.7007924281945606
1046.0390625, 0.5011036967277706
1070.5078125, 0.5967072817092887
1101.09375, 0.4558966137322657
1117.40625, 0.45149200923625193
1154.109375, 0.47869172428536316
1170.421875, 0.5854925485431522
1196.9296875, 0.47979995416375815
1223.4375, 0.5584539743022907
1241.7890625, 0.591881867916524
1256.0625, 0.8192535006948358
1302.9609375, 0.7208992209936098
1325.390625, 0.7979915099386422
1362.09375, 0.6177242366330982
1376.3671875, 0.622929331722087
1386.5625, 0.6671739186423078
1421.2265625, 0.5984156104390732
1433.4609375, 0.7185776793460158
1455.890625, 0.5450041264364095
1496.671875, 0.6953880158555813
1574.15625, 0.6496860353919888
1614.9375, 0.4223988330018372
1680.1875, 0.804578420036543
1710.7734375, 0.5249158719104746
2856.7265625, 0.8048560575622435
2871.0, 0.8107964953698372
2917.8984375, 0.7130314077716913
2952.5625, 0.7747483213362485
2962.7578125, 0.8086177670157999
2985.1875, 0.8894840439742091
3025.96875, 0.9139575913149075
##END=


$$ === CHEMSPECTRA PEAK TABLE AUTO ===
##TITLE=X9610
##JCAMP-DX=5.00
##DATA TYPE=INFRAREDPEAKTABLE
##DATA CLASS=PEAKTABLE
##$CSTHRESHOLD=0.93
##MAXX=3996.5625
##MAXY=1.0102684448642316
##MINX=399.65625
##MINY=0.4223988330018372
##NPOINTS=58
##PEAKTABLE= (XY..XY)
3025.96875, 0.9139575913149075
2985.1875, 0.8894840439742091
2962.7578125, 0.8086177670157999
2952.5625, 0.7747483213362485
2917.8984375, 0.7130314077716913
2871.0, 0.8107964953698372
2856.7265625, 0.8048560575622435
2785.359375, 0.9289495895996969
2740.5, 0.9344999747267827
2726.2265625, 0.9391668389108185
1710.7734375, 0.5249158719104746
1680.1875, 0.804578420036543
1649.6015625, 0.9208701805679674
1614.9375, 0.4223988330018372
1574.15625, 0.6496860353919888
1537.453125, 0.9199036913733057
1496.671875, 0.6953880158555813
1455.890625, 0.5450041264364095
1433.4609375, 0.7185776793460158
1421.2265625, 0.5984156104390732
1386.5625, 0.6671739186423078
1376.3671875, 0.622929331722087
1362.09375, 0.6177242366330982
1325.390625, 0.7979915099386422
1302.9609375, 0.7208992209936098
1256.0625, 0.8192535006948358
1241.7890625, 0.591881867916524
1223.4375, 0.5584539743022907
1196.9296875, 0.47979995416375815
1170.421875, 0.5854925485431522
1154.109375, 0.47869172428536316
1117.40625, 0.45149200923625193
1101.09375, 0.4558966137322657
1070.5078125, 0.5967072817092887
1046.0390625, 0.5011036967277706
1019.53125, 0.7007924281945606
988.9453125, 0.5413821309985517
972.6328125, 0.6549602714747255
944.0859375, 0.6736147374004898
911.4609375, 0.7299655044519604
889.03125, 0.7765897477727156
864.5625, 0.832792039279825
838.0546875, 0.8460013233435771
821.7421875, 0.5585853426608545
797.2734375, 0.7455146275696535
785.0390625, 0.5374768950599947
758.53125, 0.8560246184538253
732.0234375, 0.8669564677149845
709.59375, 0.6603915065863761
699.3984375, 0.7800738770946057
666.7734375, 0.8076835831354245
638.2265625, 0.7815641724738674
630.0703125, 0.7503617965241169
611.71875, 0.9027655673686813
558.703125, 0.767379578410985
540.3515625, 0.7895889837838143
479.1796875, 0.7637121043166151
430.2421875, 0.8932959393359851
##END=

##END=

