##TITLE=X8619
##JCAMP-DX=5.0
##DATA TYPE=LINK
##BLOCKS=1


$$ === CHEMSPECTRA SPECTRUM ORIG ===
##TITLE=X8619
##JCAMP-DX=5.00
##DATA TYPE=INFRARED SPECTRUM
##DATA CLASS=XYDATA
##ORIGIN=ComPlat
##OWNER=
##XUNITS=1/CM
##YUNITS=TRANSMITTANCE
##XFACTOR=1
##YFACTOR=1.0468989e-009
##FIRSTX=3997.453
##LASTX=373.96442
##MAXX=3997.453
##MAXY=1.1240991333826948
##MINX=373.96442
##MINY=0.3219443252262243
##NPOINTS=2559
##XYDATA= (X++(Y..Y))
2559H72235155H72034062H71974452H72124132H72396450H72709647H73076475H73509177
2551H73880675H73933624H73537417H72926054H72531157H72562585H72873219H73157208
2543H73175655H72914212H72595550H72447292H72507700H72718244H73034515H73347313
2535H73515782H73574197H73660395H73692620H73439262H72975531H72673835H72647588
2527H72601813H72394286H72347259H72728947H73281155H73633978H73764529H73751035
2519H73494887H72976157H72487203H72397076H72823345H73526201H73989818H73795786
2511H73172068H72794194H73009748H73580004H74093325H74397412H74452753H74094862
2503H73316113H72540836H72195414H72262312H72586156H73168197H73952868H74649746
2495H74964878H74859436H74523124H74118889H73645877H73134264H72723254H72468301
2487H72338832H72379825H72703384H73304783H74004507H74636594H74996078H74753025
2479H73969834H73246994H72914724H72938808H73358358H74090820H74618033H74379535
2471H73586779H73092702H73244831H73673376H74098620H74405212H74258891H73606308
2463H73146903H73470291H74478430H75827720H77179003H77755977H76535416H74513786
2455H73430038H73327215H73754793H74379876H74784794H74572315H73961123H73751946
2447H74241412H74620937H74216474H73560703H73380107H73703723H74132154H74417282
2439H74559049H74615016H74641433H74618147H74338713H73759575H73369460H73492439
2431H73950875H74448198H74855792H75160847H75386877H75574760H75624578H75362452
2423H74990214H74837231H74708502H74251888H73893599H74168706H74700873H74655895
2415H73946263H73364393H73577214H74483896H75467325H76099412H76399172H76527445
2407H76514293H76301529H75883858H75451042H75284224H75459980H75820034H76116150
2399H76091156H75609718H74901624H74429182H74474160H74995851H75779269H76578401
2391H77133285H77340811H77433330H77630551H77851342H77855556H77405716H76487819
2383H75460037H74668079H74269993H74359665H74899688H75649117H76324815H76571114
2375H76066560H75037128H74331938H74379933H74853742H75396840H75830909H76010537
2367H75920068H75875204H76279780H77114610H77906227H78190273H77923706H77469255
2359H77247382H77293840H77069632H76293501H75744027H76130327H77219939H78187484
2351H78234455H77278411H76184358H75729793H75925818H76484573H77158279H77652186
2343H77614780H76946426H76185610H76036954H76444491H76932762H77213221H77305569
2335H77397916H77543099H77559269H77453257H77797824H78762180H79521686H79188164
2327H78046115H77491403H77852424H78362386H78533076H78542185H78718056H79099175
2319H79517701H79688220H79432014H79007226H78824865H78887892H78670687H78070540
2311H77720963H77818093H78128670H78472498H78809379H79124568H79324124H79301862
2303H79105780H78939019H78961793H79183495H79490429H79640907H79536261H79383279
2295H79426776H79694767H79874908H79623770H79290874H79578279H80362153H80875190
2287H80776978H80474656H80299468H80150528H80007394H79987524H79996861H79860674
2279H79570707H79282049H79216290H79521629H80058920H80508930H80842395H81270372
2271H81738658H81891812H81612377H81253292H81079926H81102415H81264849H81419597
2263H81415213H81360613H81532214H81961556H82371143H82523215H82390159H82056979
2255H81722090H81659975H81904223H82288019H82733417H83225217H83658489H83873302
2247H83812155H83556918H83251350H83060563H83083621H83216620H83189519H82915209
2239H82723055H82900064H83242013H83386627H83299688H83197035H83145110H83016552
2231H82844553H82917771H83441511H84218952H84788467H84892487H84637591H84234723
2223H83826787H83543026H83514444H83768201H84164238H84471228H84545471H84473620
2215H84476694H84639527H84847508H84984094H84958246H84691394H84402964H84608327
2207H85443271H86373751H86864925H87003446H87147149H87309014H87272120H86997183
2199H86652901H86414744H86346707H86409506H86583725H86928122H87386331H87673167
2191H87575068H87209037H86816473H86477656H86206477H86100181H86241207H86626426
2183H87198618H87806222H88235565H88454194H88640711H88863894H88960512H88811856
2175H88521547H88247920H88028210H87833893H87682447H87625000H87662235H87740976
2167H87814193H87836113H87760162H87593515H87365891H87054232H86693552H86484090
2159H86511589H86448677H85902504H84961036H84027652H83235409H82385206H81358336
2151H80266332H79259902H78422737H77801696H77398543H77150878H76934925H76633229
2143H76297828H76104593H75989642H75582902H74768910H73930891H73347996H72784060
2135H71926171H70772109H69378581H67671059H65694692H63688549H61777429H59834654
2127H57715154H55383345H52735380H49512433H45537495H40812161H35179007H28117252
2119H19082547H07905682G94793159G80199315G64814593G49541578G35398597G23383942
2111G14267365G08414956G05800183G06152323G09103407G14183045G20669249G27605292
2103G34166706G40052478G45533219G51101468G56951771G62705000G67682725G71557002
2095G74746643G78017984G81644767G85209834G88378351G91487202G95075327G99146028
2087H03181202H06736362H09872142H13004279H16342689H19612095H22474533H25024457
2079H27573699H30113489H32334332H34092583H35564681H36975119H38379692H39717709
2071H40946299H42116928H43349674H44704430H46102342H47433356H48679709H49859278
2063H50930272H51833310H52614337H53452356H54512931H55760935H56989695H58033190
2055H58867736H59573325H60288877H61100137H61912819H62568249H63051110H63463772
2047H63904501H64424029H64948338H65297688H65458642H65658368H66033566H66477826
2039H66885306H67270240H67635247H67947647H68225999H68544946H68973834H69488009
2031H69941207H70216486H70350794H70397765H70324433H70182723H70155224H70285433
2023H70377724H70293119H70130970H70039704H70051546H70159266H70369924H70689497
2015H71190350H71972060H72918311H73663982H73961807H73932827H73895763H74099246
2007H74628623H75412099H76273916H77033365H77570769H77853961H77922909H77796173
1999H77464302H77044296H76792247H76858064H77127591H77325097H77219199H76833753
1991H76499490H76527957H76798567H76865864H76490267H75858693H75282402H74894336
1983H74665915H74533030H74482529H74621677H75081138H75729679H76198648H76361652
1975H76545209H77031884H77611591H77859883H77649908H77180256H76668699H76244538
1967H76065706H76286441H76834777H77422854H77886585H78313821H78765995H79170116
1959H79548673H80018781H80483936H80624735H80279997H79656564H79137948H78989747
1951H79205244H79544631H79749880H79749823H79654344H79585908H79575091H79588983
1943H79579019H79514683H79425695H79373714H79339496H79226025H79034896H78902296
1935H78908331H79021858H79267018H79702055H80182069H80389026H80212472H79930248
1927H79877185H80029770H80062222H79774817H79277893H78773738H78385730H78205987
1919H78266680H78434978H78533133H78538029H78532620H78571165H78717316H79064445
1911H79589495H80101052H80402064H80451711H80360957H80244811H80047932H79573554
1903H78765426H77856808H77085631H76351062H75380500H74216076H73319870H73162162
1895H73803301H74855165H75783197H76280008H76395015H76348329H76327320H76449957
1887H76716638H76960944H77087339H77313027H77888464H78663000H79259389H79551805
1879H79641306H79532902H79193459H78818944H78692834H78843938H79103787H79426264
1871H79862439H80279940H80468962H80515990H80711446H81080382H81342109H81348771
1863H81280734H81423355H81921930H82712807H83547466H84128426H84320352H84242864
1855H84154445H84227947H84414294H84529985H84468723H84303727H84204832H84292910
1847H84544218H84812607H84972252H85006754H84913837H84611173H84014215H83093414
1839H81750330H79780112H77071397H73671327H69534695H64376374H57863241H49825231
1831H40307551H29658412H18611244H08085766G98821501G91317138G86127902G83978683
1823G85344598G89970980G96944599H05142026H13537243H21375583H28349317H34512873
1815H39922389H44484321H48139401H50940008H52897017H53948824H54140124H53704405
1807H52945867H52168369H51724679H51897361H52615248H53505817H54366097H55345484
1799H56559669H57857832H59104412H60340289H61514961H62361008H62684680H62582141
1791H62279022H61870460H61243782H60152861H58374797H55886931H52924345H49907216
1783H47385531H45977826H46146922H47915421H50823691H54172862H57318890H59866025
1775H61764391H63264615H64660990H65996217H67093402H67893957H68588843H69353701
1767H70157217H70921961H71670137H72422640H73121681H73719607H74209016H74532233
1759H74591046H74390182H74059164H73664381H73087236H72186646H71046135H69972578
1751H69264199H69009873H69103246H69409781H69875676H70499962H71303194H72292203
1743H73302619H73970859H74101068H73968696H74036049H74462431H75040089H75497045
1735H75761676H75997100H76392396H76927239H77421829H77791390H78112786H78456499
1727H78758138H78863524H78709801H78452343H78337449H78451147H78688165H78914765
1719H79056076H79097354H79078451H79005803H78793323H78412546H78026985H77828341
1711H77816100H77891652H78070199H78426722H78888347H79264513H79478188H79621492
1703H79786659H80005402H80336817H80823038H81365680H81843019H82271166H82668170
1695H82904676H82919650H82909516H83072348H83318761H83441397H83438665H83498161
1687H83721174H84011369H84250892H84456425H84679722H84878310H85004875H85096995
1679H85180917H85248669H85383433H85703461H86144476H86513468H86742060H86887812
1671H86955849H86935694H86935637H87092378H87400564H87738015H87992284H88094254
1663H88005095H87752249H87457271H87272405H87248834H87303491H87356668H87401874
1655H87358774H87052524H86511589H86078660H86050363H86384455H86864241H87327802
1647H87673337H87846817H87896350H87940075H88068235H88292443H88544549H88732603
1639H88831556H88885586H88913086H88865090H88706129H88498546H88364579H88360764
1631H88444800H88559693H88661549H88651927H88412176H87953000H87435636H87015630
1623H86722645H86503334H86324730H86202663H86160702H86202492H86305828H86427440
1615H86561919H86799906H87239895H87816698H88318576H88619759H88814931H89073812
1607H89386724H89541813H89398054H89094137H88890540H88928515H89230040H89753268
1599H90328477H90747685H91012089H91290100H91575968H91631992H91362578H91036571
1591H90967168H91093050H91083997H90805588H90445193H90210110H90148621H90244442
1583H90441663H90603584H90616622H90499622H90346753H90228898H90145091H90039079
1575H89945934H90064016H90505372H91087243H91584679H92013054H92466082H92924518
1567H93398213H93956570H94511909H94863650H95033372H95272895H95702579H96164944
1559H96462313H96622299H96890745H97457471H98193406H98769298H99045430
1552H99139486H99122918H98974148H98872008H99125423H99708888I00202852
1545I00271799H99954048H99451430H98859995H98175358H97504613H97130325
1538H97205650H97461627H97472900H97167788H96820488H96659705H96747840
1531H97093204H97619734H98107606H98334945H98280402H98178261H98359199
1524H98939248H99659241I00132367I00190724H99884189H99324466H98751705
1517H98523854H98765142H99190044H99479556H99605780H99656280H99659013
1510H99703365H99911518I00237866I00561994I00949547I01567116I02365849
1503I02997367I03086071I02643747I02156103I02111580I02531016I03128430
1496I03721061I04254423I04656665I04868746I04854626I04566310I04099504
1489I03779476I03839826I04086239I04075649I03568989I02679672I01665612
1482I00743387I00082207H99798787H99892559I00236898I00555504I00425978
1475H99608626H98476484H97766625H97781200H98137041H98303631H98102994
1468H97735653H97527785H97568778H97576806H97275964H96792362H96493855
1461H96632490H97264691H98271292H99338017I00097295I00381569I00324065
1454I00226764I00296736I00500334I00730463I01019235I01424096I01831747
1447I02125586I02454838I03050316I03777654I04190144I04132925I03973394
1440I04053900I04277766I04437183I04550995I04638332I04561869I04336409
1433I04232845I04388162I04592215I04639243I04670443I04959727I05450275
1426I05754419I05672035I05465533I05490755I05756013I06020872I06165884
1419I06277248I06442814I06640490I06820859I06952776I06953573I06745079
1412I06472704I06472590I06865894I07329625I07435409I07151079I06881722
1405I07013980I07496899I07913033I07867656I07268762I06435298I05913608
1398I05944523I06232611I06428409I06516202I06637017I06813172I06910929
1391I06793131I06435868I05947142I05522809I05315055I05344149I05519166
1384I05663722I05617150I05424483I05287158I05282774I05345572I05494000
1377I05863790I06491493I07195829I07757715I08149026I08450722I08600061
1370I08424361I07981126I07661098I07835545I08552976I09600286I10703221
1363I11642640I12295792I12631307I12667916I12437274I12022336I11622940
1356I11431185I11403515I11369639I11381652I11649187I12168942I12760264
1349I13335985I13815032I14006844I13870657I13633809I13527456I13650491
1342I13983045I14284229I14205374I13769940I13522104I13985721I15105224
1335I16350609I17249035I17620362I17448419I16928038I16577720I16816674
1328I17429232I17868881I17969427I17942725I17885392I17707585I17403213
1321I17050675I16684643I16485828I16958214I18492028I20678882I22371032
1314I22611921I21499308I20073497I19325948I19418409I19960653I20658670
1307I21310627I21619098I21499820I21224200I21068826I21267527I22136575
1300I23653481I25142602I25854169I25655012I24938435I24104174I23356624
1293I23000670I23519628I24885998I26169586I26573821I26450558I26570063
1286I27044726I27623750I28261587I28803204I28829337I28258512I27547514
1279I27083498I26925391I27284990I28464615I30055934I31082747I31150499
1272I30537770I29070113I25966387I20777834I13559396I04384746H93407607
1265H80766274H65631666H46068978H21341252G94648318G71399180G53911982
1258G40416859G28361609G16389427G04443377F93641255F85565156F80755160
1251F78001980F75266620F71027392F65135072F59305607F56920850F61635139
1244F75371891F97091542G23245477G49524042G72615016G91133297H05549677
1237H17213217H27084916H35247157H41527713H46226573H49907387H52727694
1230H54463341H55224157H55728482H56661809H58071222H59712473H61702959
1223H64266832H66979988H68944399H69821759H70207945H70961189H72505081
1216H74693244H77117685H79566494H82059427H84351894H85846196H86338508
1209H86470426H87090214H88405686H89985902H91435909H92815090H94328010
1202H95854481H97089503H97993338H98790763H99622234I00372459I00763599
1195I00742647I00779142I01299922I01915611I02010692I01941061I02578557
1188I03719524I04112884I03213945I01895172I01250617I01579584I02777543
1181I04839368I07413660I09685972I11200714I12148332I12746258I12941258
1174I12606427I11674694I10362069I09315386I09155855I09949864I11163194
1167I11860300I11290101I09734538I08355471I08051042I08911607I10331609
1160I11205668I10865199I09999112I09839809I10708174I12032072I13263678
1153I13994034I13861718I13088889I12378973I12002067I11794313I12054618
1146I13375042I15493119I17230645I17592634I16621674I15470288I15669729
1139I17467265I18875881I17705763I14491470I11976788I11913022I13519599
1132I14944726I15323112I14993348I14406410I13651231I13003886I13183571
1125I14465565I16019876I16750175I16349641I15351238I14466931I13998190
1118I13949511I14380619I15172521I15739645I15570606I14858128I14166374
1111I13736234I13491758I13395140I13376352I13192225I12803648I12620603
1104I13084562I14162901I15408400I16392740I16925135I17020044I16818952
1097I16505869I16339507I16722391I17858746I19266679I20055563I19777040
1090I18983316I18708436I19342573I20403717I21158896I21277434I20981602
1083I20745040I20908783I21358395I21575031I21265136I20736727I20365856
1076I20064559I19594394I19112045I19048278I19564902I20333346I20872971
1069I21067232I21013998I20527379I19271405I17362904I15516519I14423434
1062I14027056I13658063I13009750I12591567I12959876I13785255I13933968
1055I12884324I11563672I11178965I12097205I13748077I15312636I16580055
1048I17891484I19401557I20811368I21755399I22187930I22368071I22599168
1041I23072692I23847570I24723906I25243205I25263872I25122106I25113736
1034I25248671I25411333I25589082I25813290I25988648I25967526I25791598
1027I25578891I25249753I24774748I24468099I24650233I25267232I26015749
1020I26591528I26876542I26976632I26996275I26859689I26523092I26247416
1013I26339251I26755840I27186948I27379729I27333782I27265006I27349439
1006I27546433I27734032I27832130I27786070I27625799I27519503I27573590
999I27737049I27919695I28047912I28114810I28206076I28383996I28567666
992I28632287I28605813I28641624I28780431I28766652I28379669I27845623
985I27454085I27224525I27055373I26885822I26692017I26468720I26174198
978I25650970I24780613I23704722I22657583I21747428I21107769I20925807
971I21127526I21461332I21833342I22228354I22481484I22301742I21687761
964I21218336I21581350I23115393I25437295I27322509I28303149I28866800
957I29349889I29857973I30364462I30711705I30838726I30937564I31193712
950I31518068I31641844I31600566I31718591I32115937I32712098I33356710
943I33850560I33981794I33773869I33645596I33898954I34256617I34133069
936I33571296I33189949I33185679I33429074I33847542I34428388I35120427
929I35832734I36493345I36998240I37166196I37090132I37065365I37066106
922I36996247I36915514I36994425I37329029I37770214I38091211I38261957
915I38489581I38908107I39403209I39863012I40253127I40557043I40807270
908I41120125I41617846I42291154I42756650I42287794I41395745I41132822
901I41210936I41092569I40757908I40680079I40932241I41185258I41107144
894I40041046I35698368I24200906I07566302H94904130H88655856H85782088
887H83804583H82258868H82286823H85009999H90177430H95865241I00197955
880I02664015I03059425I01506196H99461451H97484686H93375838H83002091
873H62653879H33707250H04474811G85050189G80833223G90270284H07250537
866H25974523H43706710H59871035H74324821H86745704H96949217I05162756
859I11784862I17076125I21126785I23949084I25586179I26221966I26195947
852I25899147I25577752I24953409I23184568I20072643I16270730I12814522
845I11607853I13989023I18761955I24005620I28395895I31305646I33008157
838I34263506I35480082I36480079I37434415I38523400I39627702I40569853
831I41317005I41984504I42683375I43377236I43945613I44390442I44843811
824I45364021I45939060I46566933I47190821I47643222I47710348I47479707
817I47314938I47438771I47867260I48490294I49107236I49458749I49439164
810I49254525I48971845I48478907I47928578I47438315I46712287I45419419
803I43450112I40693401I37278813I34440914I32649299I30973831I28978050
796I26791026I24408432I20750847I14432828I05659908H94359324H77693235
789H51245347H14141374G71408119G28009356F87178053F53155488F31524940
782F26406986F37135833F59021391F85985390G12651678G37144664G60598140
775G82726409H02645335H21114539H39130316H55815194H68532762H76251711
768H79530967H75373041H53596457H14506154G83082989G72478373G79466967
761G97874510H20982052H42600473H58697160H68399820H73269426H75616323
754H77423138H79984108H84048718H89454077H94741582H99025048I02656671
747I05838112I08153581I09120214I08617426I06885479I04681887I03024467
740I02444761I02793086I03364366I03384407I02577532I00833059H98059553
733H94616896H91516870H89899988H90410178H92889788H96161471H98382599
726H97570941H91866619H81187646H68836394H59873142H57809893H61981425
719H69219164H77730357H87344427H97263267I05602802I11553537I15779271
712I19010815I21487465I23233304I24410538I25450902I26779411I28327118
705I29700606I30767899I31669799I32573463I33595949I34758380I35916257
698I36873610I37603339I38215613I38818890I39480868I40200576I40880886
691I41344276I41478528I41463839I41694082I42341199I43181837I43891012
684I44303958I44460300I44589143I44934621I45521047I46226750I46971965
677I47729991I48449073I49056849I49459717I49303489I47761361I44142948
670I39105726I34816966I33268177I34414439I36504276I37987362I38380950
663I37789344I36405324I34462207I32257021I30077341I28216381I27045011
656I26820120I27311977I27778384I27368740I25396473I21148762I13602040
649I01525155H83850016H59961504H30339120G98027550G69576821G53195234
642G54241291G71498986G98084200H26332413H51675260H72738228H89560602
635I02394089I11438757I16831193I18519585I16280295I10408414I02606682
628H95430433H90003381H84341076H74254962H55563031H25305315G82153249
621G27403231F66251500F07277456E59117263E26927589E12326172E15948458
614E38022696E75892324F22735224F70142972G11861428G45174020G69995290
607G87764085H00765757H11131989H19615226H25386618H27470192H26517735
600H24942984H25299792H28769835H34872927H41985524H48321762H53131871
593H57101457H61308745H65684672H68476511H67570114H63161051H59119215
586H60443454H68801835H81282670H93506560I02909346I09081271I12553250
579I14236005I15408002I17269987I20214183I23691741I26866180I29288856
572I30911090I31678054I31415131I30135870I28276674I26506354I25304410
565I24726923I24575819I24729941I25176193I25718323I25875349I25069384
558I22634126I17490323I07907055H91940178H68999967H41885490H17066156
551H01873588H00459506H11800456H31055584H52644968H72541120H88894183
544I01597348I11328760I18539512I22644716I20734791I07199530H78744303
537H42749983H16526018H13220630H30254288H54453207H75249038H89854099
530H99677119I06625232I12065663I16602031I20268954I23097515I25282889
523I26958812I28123521I28804172I29188366I29489720I29743933I29895151
516I29916615I29703395I29153693I28451235I27947251I27775423I27845282
509I28078941I28454595I28955675I29587306I30335881I31076200I31641047
502I32070446I32656131I33558714I34562639I35436584I36319068I37490666
495I38974492I40563648I42091314I43546616I44984610I46390550I47702377
488I48943378I50178401I51301434I51958116I51728499I50558211I49119932
481I48501737I49296771I51146401I53253318I55086381I56536274I57678494
474I58565078I59193634I59600146I59909073I60258878I60677119I61073155
467I61371150I61546736I61487752I60921026I59277897I55284398I47415997
460I36246078I26180631I22864255I28034987I38048054I47739499I54515670
453I58639433I61289506I63322409I65136114I66828092I68384340I69838332
446I71268299I72681412I73980999I75082909I76036220I76943756I77788208
439I78477457I79034276I79585060I80177862I80735478I81159754I81447615
432I81731831I82160890I82717252I83261889I83743212I84190832I84527769
425I84596205I84397845I84137883I84013423I84081517I84306750I84597913
418I84814378I84854802I84723397I84475845I84144942I83680585I82889196
411I81473463I79079139I75209530I69209775I60449039I48724522I34993064
404I21504147I09963927H99666016H89427261H81442086H80631738H89568743
397I06098474I25912356I45192478I60983313I71614233I77515719I80505349
390I82042124I82525840I81740712I79381348I75513447I71060033I67714335
383I66919529I68759766I71947072I74892520I76695635I77309958I77150314
376I76606589I75748131I74445471I72690294I70599091I68211714I65491613
369I62366137I58611536I53842818I47510110I38771293I27011249I13210558
362I00252726H90264426H80642214H64090279H35774769H01190659G73209753
355G58716854G50964029G37397851G11781719F76363690F36309031E96178933
348E60202092E32614148E16733581E13112776E17556402E21625509E17341531
341E02910234D83767780D67557680D58071029D53574372D49398399D41128381
334D26468464D05921579C82206546C58656566C37963217C21956144C11707568
327C07521887C09121860C15968374C27278323C41883640C58461508C76086972
320C94593240D14516550D36627539D61231376D87649516E13750727E35524468
313E48265494E49283027E37999182E13110103D74292488D29854927C97892650
306C93796897D17548482D56124040D96021902E30803290E59672260E83959769
299F05702421F26758613F47668143F67720296F86162968G02808959G17718391
292G31002800G42950444G53936407G64132974G73437947G81664296G88681300
285G94353682G98462416H00690376H00425175G96419720G86752018G69070218
278G40877061G00625465F50078293E95534720E45354889E06193073D82114915
271D75614848D87090818E13397281E48472451E86078130F21945259F53968740
264F81387475G03601829G18151663G19331459G02073024F70993516F43360992
257F37285172F56273903F88406642G19528452G43516828G61285453G75353963
250G87144297G97105895H05473385H12592415H18691692H23620567H27089528
243H29114516H30036741H30209537H29815722H28775642H26543925H22170787
236H14795609H03947825G89594700G72545499G54807505G39183032G28672585
229G26108883G33180373G48961700G69958567G92110407H12643599H30402317
222H45117660H56655262H64814884H69573240H71506507H71989653H72595607
215H73936357H75158171H74871164H72582056H68400503H60406902H43308681
208H15806480G85268590G55188168G26607458G06498484G04343400G22182852
201G52152934G82074224H03146358H15011618H23326956H32307231H41180755
194H47515228H50276949H47702486H34898718H06972925G65910924G23971676
187F98161454F98993893G23219970G57235362G88377099H12919845H33987311
180H54276824H72422583H85407288H91793230H91545394H84663439H71250700
173H52310535H30487776H09720981G92463571G76947673G58874847G36537173
166G12685554F90446832F69431405F47592932F25912055F09909765F06695529
159F20518480F50229113F89729572G30440572G64836058G89656474H06413544
152H18526354H28242394H36142338H42496852H48278549H54879077H63164068
145H72663871H81413050H87046830H89067037H89850512H92563098H97968970
138I03594097I06433135I05653986I01940321H95738050H87337424H77875653
131H69296197H63073429H58863124H54670184H48864348H41849109H35444891
124H31129997H29397879H30375331H33862624H38259845H40496061H38528063
117H34152079H32096745H35733605H44294445H54259174H62616074H68696335
110H73623445H78667555H84231876H89960339H95304949H99904173I03842047
103I07624375I11563785I15497958I19369673I23307490I27037268I30003212
96I32124136I33786338I35064061I35527907I35096799I34881188I36471254
89I40121722I44465823I48149939I51217341I54521534I58176100I61431614
82I63884125I65501519I64302023I54480940I30768184H97294354H67710059
75H53528989H53858811H57611875H54914604H44534537H32781154H26858032
68H29452992H39330327H53374811H68486531H83200337H96852200I08411608
61I17552894I25464111I33077504I40124113I46764154I53360127I58827317
54I61749422I62789388I64073261I66595117I69641110I72480547I75358814
47I78741177I82182980I84128773I83106001I79276475I74565033I71880345
40I73631308I79588590I86766774I92096526I95153452I97412612I98162553
33I92403517I76045443I50839581I18332099H83147160H60806582H67817665
26I02114654I44185307I76059904I92833372I98750800I99631120A000328568
19A004228579A011383650A018240498A023081523A027280668A031312996A034537536
12A036962035A039529666A042611074A044819676A044894830A044991276A048550935
5A056075851A065260863A072476625A073741823A070479819
##END=


$$ === CHEMSPECTRA PEAK TABLE EDIT ===
##TITLE=X8619
##JCAMP-DX=5.00
##DATA TYPE=INFRAREDPEAKTABLE
##DATA CLASS=PEAKTABLE
##$CSTHRESHOLD=0.93
##MAXX=3997.453
##MAXY=1.1240991333826948
##MINX=373.96442
##MINY=0.3219443252262243
##$CSSOLVENTNAME=- - -
##$CSSOLVENTVALUE=0
##$CSSOLVENTX=0
##NPOINTS=31
##PEAKTABLE= (XY..XY)
412.2107810867865, 0.9011774638085598
470.2885886630179, 0.8656367641569648
478.78778001563705, 0.8935585597022121
536.8655875918685, 0.8711211670340805
546.7813108365908, 0.8682957271874331
599.1929908444095, 0.6351488819450182
637.4393519311961, 0.7309044582150006
660.1038622048472, 0.73737633068226
696.9336913995307, 0.7601625908929287
736.5965843784202, 0.6671731455531108
756.4280308678653, 0.4979206611948672
806.0066470914776, 0.41226553829271334
835.7538168256447, 0.3219443252262243
861.2513908835026, 0.5371772039110431
937.744113057101, 0.9219323978172882
1019.9029627990863, 0.9715588070518143
1130.3924503831117, 0.851359783004307
1151.6404287646596, 0.8380001763259435
1204.0521087724783, 0.8994109611523635
1222.4670233698198, 0.8636319025123176
1245.1315336434714, 0.5363537059080108
1283.3778947302576, 0.7885192619598427
1393.8673823143076, 0.8980402333908177
1453.3617217826427, 0.8087067589674898
1480.2758277326034, 0.6557847845957154
1603.5141023455822, 0.8174534422421548
1626.1786126192533, 0.9236651044831947
2137.546625668491, 0.687729715252065
2896.807719835809, 0.8856532554637915
2956.3020593041438, 0.8207464208561487
3360.0136485535572, 0.7389014352024987
##END=


$$ === CHEMSPECTRA PEAK TABLE AUTO ===
##TITLE=X8619
##JCAMP-DX=5.00
##DATA TYPE=INFRAREDPEAKTABLE
##DATA CLASS=PEAKTABLE
##$CSTHRESHOLD=0.93
##MAXX=3997.453
##MAXY=1.1240991333826948
##MINX=373.96442
##MINY=0.3219443252262243
##NPOINTS=192
##PEAKTABLE= (XY..XY)
3994.6199362157936, 0.9128690946269028
3980.4546172947616, 0.9134519084790274
3970.5388940500393, 0.9133641103027789
3949.290915668491, 0.9132593858651151
3936.542128639562, 0.9133115392276164
3928.042937286943, 0.9137272816249866
3915.2941502580143, 0.9131004195016447
3895.462703768569, 0.9132505636480849
3881.297384847537, 0.9138534643494036
3871.381661602815, 0.9140397893218278
3861.465938358092, 0.9140965322891067
3848.7171513291632, 0.9142853007235635
3840.217959976544, 0.9147299511402595
3833.135300516028, 0.9143406733001823
3818.969981594996, 0.9143295269675941
3799.138535105551, 0.9148782475101411
3792.055875645035, 0.9143242223308677
3776.4740248319, 0.9163340912929536
3766.5583015871775, 0.9154389487636998
3745.310323205629, 0.9152722939747078
3733.9780680688036, 0.9153371441270682
3724.0623448240813, 0.9169527876048756
3714.146621579359, 0.9183893192436798
3708.480494010946, 0.9168154585478703
3698.564770766224, 0.9168005569889277
3687.2325156293978, 0.9171221235019507
3675.900260492572, 0.9186048495547173
3667.401069139953, 0.9186447845601567
3651.819218326818, 0.9200407844611486
3646.153090758405, 0.9188851106716407
3633.404303729476, 0.9201602921581792
3624.905112376857, 0.9206253874634931
3617.822452916341, 0.9205286487706387
3605.073665887412, 0.9212579708893236
3597.991006426896, 0.920450566863081
3583.825687505864, 0.9224016053414814
3576.7430280453477, 0.9226954562530257
3565.410772908522, 0.9230088580015275
3551.2454539874902, 0.9244751320380807
3544.1627945269743, 0.9241217952841395
3532.8305393901483, 0.9242489914066917
3518.6652204691163, 0.9249502995577117
3511.5825610086004, 0.9259544598570181
3501.666837763878, 0.9258804901683396
3484.6684550586397, 0.9279153925769223
3469.086604245504, 0.9276573047787009
3446.422093971853, 0.9292536361125
3432.256775050821, 0.928059218688501
3360.0136485535572, 0.7389014352024987
3241.024969616888, 0.9109645468348536
3233.942310156372, 0.9108436090739256
3218.360459343237, 0.9148805129993607
3201.362076637998, 0.9179128389128284
3192.862885285379, 0.917606351931561
3178.697566364347, 0.9154947976793182
3158.8661198749023, 0.9171522239391234
3137.618141493354, 0.9202133992455783
3127.7024182486316, 0.9208261952353
3114.953631219703, 0.9201218468898744
3102.204844190774, 0.9211424571115965
3092.2891209460513, 0.9193928817637144
3085.2064614855353, 0.919734833492118
3058.2923555355746, 0.9141125069194218
3048.3766322908523, 0.917426107347948
3028.545185801407, 0.9199025613524826
3011.546803096169, 0.9226118310157926
3000.2145479593432, 0.9256203159006106
2991.715356606724, 0.9256730659954848
2956.3020593041438, 0.8207464208561487
2929.387953354183, 0.8916696295479531
2896.807719835809, 0.8856532554637915
2851.4786992885065, 0.9097654801328398
2837.3133803674746, 0.9149568664768344
2813.2323382017203, 0.9195305091869062
2796.2339554964815, 0.91898470949229
2770.7363814386235, 0.9243170010999324
2765.0702538702108, 0.9248709666059686
2736.739616028147, 0.9285319427460993
2722.574297107115, 0.9288598283408827
2711.2420419702894, 0.9276051503693007
2684.3279360203283, 0.9300239066347596
2665.9130214229863, 0.9277206641470278
2643.248511149335, 0.930578528546406
2626.250128444097, 0.9327525481153153
2617.7509370914777, 0.9318956121614169
2603.5856181704457, 0.9316834193640726
2566.7557889757622, 0.9410281164159913
2552.59047005473, 0.9392047503991425
2544.0912787021107, 0.9387120588388246
2534.1755554573883, 0.9403018334448129
2521.4267684284596, 0.9406636343763606
2495.929194370602, 0.944419620779262
2481.76387544957, 0.9461657392669764
2469.015088420641, 0.9419983603316343
2459.0993651759186, 0.9398708921692125
2450.600173823299, 0.9396208508359365
2443.517514362783, 0.9385384306562595
2432.1852592259575, 0.9424464089821596
2413.770344628616, 0.9463687518078666
2402.4380894917904, 0.9466403707743706
2389.6893024628616, 0.9479308704856138
2371.27438786552, 0.9489851573511511
2364.1917284050037, 0.9494134771919058
2354.2760051602813, 0.9483999597102313
2337.2776224550425, 0.9477733352329395
2327.36189921032, 0.9477395402895487
2310.363516505082, 0.9502294050689922
2290.532070015637, 0.9541118725624972
2276.366751094605, 0.9563708888061985
2267.867559741986, 0.9563652858032856
2256.53530460516, 0.959564206832508
2240.953453792025, 0.9594680051987893
2229.621198655199, 0.9624413237026572
2218.2889435183733, 0.9642659407636914
2204.1236245973414, 0.9662883861222631
2197.0409651368254, 0.9699000700745862
2182.8756462157935, 0.9703971722199699
2137.546625668491, 0.687729715252065
2065.3034991712275, 0.9429864863273884
2058.2208397107115, 0.944241104625733
2049.7216483580924, 0.9435182795616214
2029.8902018686472, 0.9517942645280595
2019.9744786239248, 0.9506376370136538
2011.4752872713054, 0.9525102952183101
1998.7265002423767, 0.9545564633059558
1988.8107769976543, 0.9584048374898833
1978.8950537529317, 0.9546807396274758
1968.9793305082094, 0.9558227639491255
1956.2305434792804, 0.9568127377214379
1937.8156288819387, 0.9554215053980367
1925.06684185301, 0.9593148219048423
1915.1511186082876, 0.9617948510691204
1906.6519272556684, 0.9639269695564561
1892.4866083346365, 0.9621506312850943
1872.6551618451913, 0.9553911076415763
1864.1559704925721, 0.9539122561616385
1838.6583964347146, 0.9685005525932905
1823.076545621579, 0.9678246359281911
1808.911226700547, 0.9696874009382425
1800.412035347928, 0.9707527147898934
1790.4963121032056, 0.9710191474192468
1776.3309931821732, 0.9721564041633057
1749.4168872322125, 0.9641162143299123
1738.084632095387, 0.9644224626182304
1715.4201218217354, 0.9752916077847774
1704.0878666849098, 0.9774325474422444
1695.5886753322907, 0.9769510608408531
1681.4233564112587, 0.9810126998465986
1677.1737607349492, 0.9808558209995346
1650.259654784988, 0.9852709161056958
1644.5935272165752, 0.9847969399570131
1627.595144511337, 0.9236358384244452
1603.5141023455822, 0.8174534422421548
1569.5173369351055, 0.9543612585370618
1529.8544439562156, 0.9917429665457682
1480.2758277326034, 0.6557847845957154
1453.3617217826427, 0.8087067589674898
1420.7814882642688, 0.9447684276016629
1408.03270123534, 0.9316353185472133
1393.8673823143076, 0.8980402333908177
1348.5383617670054, 0.9856174574388772
1318.791192032838, 0.9770374279063053
1301.7928093275996, 0.970286964125868
1283.3778947302576, 0.7885192619598427
1245.1315336434714, 0.5363537059080108
1222.4670233698198, 0.8636319025123176
1204.0521087724783, 0.8994109611523635
1171.4718752541044, 0.9679374078776991
1151.6404287646596, 0.8380001763259435
1130.3924503831117, 0.851359783004307
1096.3956849726346, 0.9712870697857348
1053.8997282095384, 0.9929854251133894
1021.3194946911649, 0.9661455734088196
970.3243465754495, 1.0301625701239348
937.7441130570755, 0.9219323978172882
915.0796027834244, 1.0122669912986182
861.2513908835026, 0.5371772018172453
835.7538168256447, 0.3219443252262243
806.0066470914776, 0.41226553829271334
756.4280308678653, 0.4979206611948672
736.5965843784202, 0.6671731455531108
696.9336913995307, 0.7601625908929287
660.1038622048472, 0.73737633068226
637.4393519311961, 0.7309044582150006
599.1929908444095, 0.6351488819450182
546.7813108365908, 0.8682957271874331
536.8655875918685, 0.8711211670340805
501.45229028928816, 0.9787260873478932
478.78778001563705, 0.8935585597022121
470.2885886630179, 0.8656367641569648
430.625695684128, 1.0174604641121205
412.2107810867865, 0.9011774638085598
##END=

##END=

