##TITLE=X8246
##JCAMP-DX=4.24
##DATA TYPE=INFRARED SPECTRUM
##DATE=31/10/2018
##SAMPLING PROCEDURE=Diamant-ATR
##ORIGIN=ComPlat
##XUNITS=1/CM
##YUNITS=TRANSMITTANCE
##RESOLUTION=4
##FIRSTX=3997.453
##LASTX=373.96442
##DELTAX=-1.4165319
##MAXY=0.95740902
##MINY=0.29708397
##XFACTOR=1
##YFACTOR=8.9165664e-010
##NPOINTS=2559
##FIRSTY=0.95182669
##XYDATA=(X++(Y..Y))
3997+1067481193+1068103673+1068439379+1068056011+1067263071+1066494931
3989+1065865031+1065457731+1065518362+1066081281+1066804433+1067355654
3980+1067647508+1067670036+1067450042+1067164337+1067003102+1066995482
3972+1067086661+1067210061+1067216411+1066984185+1066614520+1066305486
3963+1066142112+1066205683+1066681367+1067552452+1068369256+1068585239
3955+1068072455+1067266212+1066858980+1067257723+1068165439+1068806837
3946+1068818268+1068642260+1068874018+1069481391+1069835948+1069609002
3938+1069123425+1068709374+1068370393+1068231752+1068595534+1069195753
3929+1069328445+1068994210+1068777358+1068813722+1068678491+1068147458
3921+1067468425+1066970548+1066753696+1066597675+1066243653+1065874590
3912+1066011292+1066943675+1068326273+1069403113+1069793433+1069965631
3904+1070731097+1072114163+1073211859+1073288065+1072367180+1071166539
3895+1070543524+1070739854+1071142808+1070906571+1070156680+1069759542
3887+1069911619+1069914961+1069192211+1068221390+1067726789+1067779063
3878+1068087629+1068590587+1069220487+1069584870+1069472968+1069383661
3870+1069954000+1071138196+1072437636+1073423363+1073463138+1071953730
3861+1069502047+1067651318+1067427113+1068857039+1071279444+1073450570
3853+1073741823+1072322927+1070879631+1069963559+1069548572+1069621703
3844+1069951059+1070160691+1070268048+1070561774+1070876757+1070825953
3836+1070625145+1070552616+1070195853+1069165338+1067969577+1067519830
3827+1068040970+1068998220+1069972918+1071157849+1072549071+1073107177
3819+1072164833+1070629089+1069446096+1068773213+1068294187+1067746709
3810+1067114737+1066637783+1066755367+1067616759+1068591456+1068898618
3802+1068329616+1067617360+1067959149+1069425306+1070796139+1070762716
3793+1069331587+1067580461+1066303080+1065729866+1065904537+1066639855
3785+1067325573+1067440082+1067101234+1066628023+1066065906+1065418760
3776+1064871950+1064697212+1065203245+1066521937+1068114836+1068859579
3768+1068357291+1067476580+1067082182+1067339811+1068139770+1069277240
3759+1070077400+1069748311+1068690456+1068173929+1068887923+1070484498
3751+1071628051+1071201968+1070078670+1069516152+1069402979+1068599544
3742+1066765260+1064818205+1063282059+1062382298+1062481031+1063156588
3734+1062703030+1060823023+1059490760+1059932686+1061645242+1063508270
3725+1064677693+1065046822+1065090006+1064973892+1064322802+1063188273
3717+1062475282+1062958453+1064492727+1066213638+1066957646+1066130948
3708+1064476550+1062961193+1061898659+1061296367+1061216551+1061558006
3700+1061863498+1061858952+1061677128+1061666232+1062551220+1065180450
3691+1069293751+1072460632+1071758069+1068009017+1064397269+1062249606
3683+1061407066+1061470637+1062188174+1063678864+1066200269+1069012125
3674+1070028200+1068836317+1066899489+1064971018+1063586548+1063325243
3666+1063648515+1063429257+1062265382+1060840470+1059974132+1059798992
3657+1060246066+1061379190+1062803301+1063958485+1065060326+1066690258
3649+1068065236+1067165407+1064619469+1062622145+1061828002+1061598649
3640+1061262074+1060849160+1060715399+1060810589+1060762927+1060470805
3632+1060174205+1059886829+1059129920+1057791574+1056755712+1056624692
3623+1057426857+1059154252+1061567432+1063752997+1064731104+1064671543
3615+1064269057+1063776795+1063273570+1062918679+1062763861+1062615460
3606+1062085898+1061010195+1059784754+1058946892+1058516999+1058097266
3598+1057618039+1057274713+1056915476+1056350084+1055965780+1056305430
3589+1057343766+1058325683+1058348009+1057569642+1056789336+1056233101
3581+1055917182+1056156963+1056963005+1057565564+1057426656+1057136406
3572+1057520108+1058602496+1060049669+1061647047+1062666264+1062074400
3564+1060279690+1058646214+1057779943+1057386481+1057153586+1057236877
3555+1057713430+1058101678+1057886564+1057355130+1057347242+1058182429
3547+1059167622+1059125842+1057779809+1056368801+1056217593+1057267761
3538+1058331699+1058481102+1057919520+1057420239+1057346573+1057557275
3530+1057787697+1057770116+1057288483+1056455435+1055840107+1056008629
3521+1056784122+1057267159+1056862868+1056050141+1055811764+1056355632
3513+1056819150+1056358975+1055182934+1054292397+1054346476+1055110204
3504+1055904882+1056172939+1055773260+1054984532+1054155227+1053436621
3496+1052907793+1052757254+1053104792+1053741176+1054302290+1054642074
3488+1054868285+1055112811+1055406404+1055647855+1055601263+1055076513
3479+1054170869+1053262417+1052827309+1053123910+1053836500+1054305365
3471+1054290325+1054062176+1053754545+1053239823+1052604976+1052108971
3462+1051754681+1051426462+1051275120+1051552201+1052218533+1052915949
3454+1053276455+1053320507+1053528067+1054278426+1055202921+1055404465
3445+1054466734+1052958463+1051842318+1051602203+1051873067+1051947602
3437+1051674398+1051579408+1052047003+1052767816+1053139552+1052921631
3428+1052398686+1052080226+1052199081+1052409047+1052163184+1051416903
3420+1050684259+1050454439+1050835200+1051610492+1052356372+1052686396
3411+1052569213+1052296811+1052156298+1052228159+1052434249+1052703308
3403+1053033533+1053332941+1053318903+1052798632+1051960838+1051173245
3394+1050599898+1050236918+1050176956+1050531112+1051125984+1051534353
3386+1051483951+1051135811+1050958131+1051366166+1052335515+1053290560
3377+1053595048+1053208672+1052616808+1052208439+1051984100+1051767182
3369+1051509954+1051382142+1051439230+1051321646+1050781187+1050426831
3360+1051140824+1052705046+1053821727+1053657417+1052695487+1051869190
3352+1051505676+1051397985+1051371179+1051417638+1051526532+1051603740
3343+1051534153+1051376661+1051416636+1051712969+1051762435+1051161079
3335+1050399691+1050384650+1051360618+1052748096+1053766912+1053992655
3326+1053605944+1053232002+1053347781+1053798598+1053959766+1053424053
3318+1052531377+1052078221+1052475159+1053401058+1054184105+1054217461
3309+1053240826+1051675467+1050512395+1050494480+1051448522+1052494411
3301+1052857992+1052439128+1051595652+1050614003+1049702342+1049263625
3292+1049652407+1050698096+1051798800+1052450225+1052505441+1052017992
3284+1051092360+1050038382+1049418576+1049497857+1049766047+1049513499
3275+1048728915+1047949411+1047525400+1047542179+1048083774+1049003723
3267+1049708291+1049720725+1049387827+1049511026+1050205300+1050659191
3258+1050259379+1049414432+1048897303+1048812674+1048614673+1047909704
3250+1046980864+1046538804+1046972508+1047871534+1048480912+1048665410
3241+1049010408+1049798134+1050415600+1050204965+1049471720+1049070437
3233+1049309214+1049769657+1049909835+1049496921+1048741482+1048209179
3224+1048314530+1048814546+1049103392+1049004860+1048918761+1049110211
3216+1049310083+1049260015+1049178060+1049293906+1049353467+1049042428
3207+1048556383+1048326763+1048396284+1048366203+1047946269+1047408217
3199+1047320781+1047877550+1048727845+1049382211+1049468912+1048828183
3190+1047721195+1046695560+1046049684+1045715448+1045590511+1045613707
3182+1045687172+1045803219+1046033507+1046261790+1046215932+1045877619
3173+1045567516+1045505950+1045548865+1045546392+1045640914+1045941859
3165+1046275293+1046510862+1046688073+1046705922+1046375430+1045708630
3156+1044777985+1043673738+1042818162+1042669361+1043004732+1043164430
3148+1042889087+1042354177+1041714784+1041041768+1040345221+1039528684
3139+1038687948+1038291746+1038606462+1039144046+1039104874+1038251838
3131+1037040101+1035964866+1035076334+1034077973+1032640293+1030576924
3122+1027923830+1024953948+1021994561+1019090122+1015876047+1011917229
3114+1007205112+1002196460+997375716+993003115+989346914+986816751+985637769
3104+985654481+986672161+988665809+991406004+994302689+997002175+999778869
3094+1002957715+1006302074+1009342146+1012010748+1014630619+1017408517
3085+1020074378+1021991619+1022651400+1022106463+1020905755+1019618682
3077+1018428202+1017189793+1015876716+1014769193+1014043568+1013482186
3068+1012886111+1012457153+1012475068+1012806496+1012846738+1011820836
3060+1009283187+1005486473+1001126238+996829375+993192225+990994026+990760529
3050+992079890+993700597+994529702+994498083+994301419+994486117+995167022
3040+996421073+998280358+1000364115+1002180885+1003786752+1005581062+1007593293
3030+1009426106+1010714784+1011326368+1011339871+1011012989+1010643391
3021+1010472931+1010651012+1010977226+1010875885+1010144979+1009485934
3013+1009754459+1010966664+1012474266+1013708932+1014402002+1014493248
3004+1014136686+1013575639+1012970205+1012455883+1012168307+1012076192
2996+1011982205+1011736943+1011330914+1010816325+1010194045+1009347895
2987+1008131813+1006492054+1004345393+1001450179+997577928+992639467+986540205
2978+979261828+971153745+962648924+953569553+943167679+930972231+917216906
2968+902408673+886921341+871204121+856037053+842224707+830193235+820200599
2958+812779102+808600224+807955149+810571076+815750990+822441581+829366003
2948+835403497+839815873+842053178+841622415+838370572+832697661+825270215
2938+816689590+807570712+798604112+790279377+782873456+776957021+773526228
2928+773320607+776212278+781363113+787845274+795141566+803149112+811696848
2918+820226402+828169039+835505974+842723855+850293217+858254972+866188517
2908+873585882+880334697+886716521+892897938+898651265+903621212+907684111
2898+911037295+914083316+917183817+920394282+923490572+926281638+928752106
2888+930840943+932278155+932750230+932083096+930205361+927025847+922316403
2878+915666054+906803936+896261349+885662543+877151172+872326015+871366492
2868+872872357+874584645+874608843+872353824+868657113+865110140+863093765
2859+863254666+865683287+870280562+876841536+884980101+894151454+903810456
2849+913623809+923485625+933220833+942369124+950403341+957071204+962460282
2839+966854809+970569635+973822080+976706665+979259956+981523265+983574534
2829+985516776+987410888+989237552+990915146+992328895+993425923+994314187
2819+995145029+995945122+996722620+997584947+998574351+999577191+1000530430
2809+1001506398+1002532033+1003503789+1004283025+1004758107+1004865063
2800+1004655564+1004371932+1004401545+1005008049+1006012493+1006853429
2792+1007072420+1006750752+1006473337+1006823281+1007838621+1009019609
2783+1009888019+1010366578+1010585301+1010591585+1010401940+1010183751
2775+1010208284+1010573336+1011074421+1011463137+1011743828+1012113091
2766+1012731761+1013607926+1014525870+1015118068+1015205370+1014987115
2758+1014774340+1014697266+1014717186+1014709231+1014511230+1014065761
2749+1013506853+1013036717+1012781763+1012780091+1012971541+1013128699
2741+1012944669+1012381950+1011864420+1011856398+1012258617+1012516714
2732+1012327336+1011878124+1011390341+1010891260+1010500539+1010474201
2724+1010821071+1011252368+1011601243+1011965493+1012389036+1012732429
2715+1012900282+1012946875+1012949950+1012963854+1013064058+1013300763
2707+1013614744+1013851383+1013859271+1013594088+1013138659+1012603615
2698+1012041899+1011523834+1011231445+1011299429+1011579718+1011784805
2690+1011864754+1011943901+1011905865+1011456051+1010653753+1009976592
2681+1009747574+1009827991+1009946912+1010022582+1010056207+1009983343
2673+1009830063+1009838084+1010208417+1010819333+1011349898+1011588609
2664+1011549036+1011415809+1011382921+1011457321+1011520158+1011613944
2656+1011952123+1012622265+1013499099+1014368712+1014973612+1015136451
2647+1015000150+1014926885+1015086383+1015332981+1015452370+1015346351
2639+1015039122+1014624804+1014166968+1013691017+1013363265+1013499968
2630+1014172583+1014981032+1015505514+1015807529+1016094370+1016098715
2622+1015400831+1014324526+1013795632+1014163492+1014793659+1014992663
2614+1014723470+1014260821+1013788613+1013536734+1013750845+1014322855
2605+1014838781+1015047210+1014991059+1014752816+1014359020+1013924848
2597+1013712341+1013923110+1014416174+1014768124+1014699071+1014297854
2588+1013795900+1013319882+1012904160+1012617854+1012645127+1013106506
2580+1013722034+1013988820+1013850514+1013738745+1013891558+1014192570
2571+1014579147+1014978425+1015118269+1015064925+1015506717+1016805222
2563+1018170239+1018422921+1017323487+1015659797+1014314232+1013672433
2554+1013653850+1013902187+1014081002+1014136419+1014108276+1013811676
2546+1013141534+1012537971+1012585834+1013242406+1013905596+1014111552
2537+1013850781+1013397357+1013084513+1013117803+1013525303+1014274257
2529+1015213526+1015884269+1015806526+1015069604+1014192503+1013387598
2520+1012550271+1011968969+1012237360+1013243609+1013961547+1013610265
2512+1012583227+1011979598+1012501205+1013912548+1015350161+1016035945
2503+1015740348+1014693589+1013300229+1012035214+1011327170+1011310592
2495+1011779123+1012407887+1012882301+1012925684+1012527142+1012110618
2486+1012198321+1012956701+1014147248+1015258915+1015656187+1015109177
2478+1014252532+1013937014+1014131338+1014084813+1013507989+1012922342
2469+1012856030+1013211656+1013488470+1013418147+1013332248+1013751914
2461+1014557221+1014948678+1014453140+1013510596+1012811911+1012575339
2452+1012718659+1013181776+1013741085+1013962282+1013688944+1013301231
2444+1013254773+1013540678+1013761206+1013645093+1013285455+1012879493
2435+1012509361+1012285423+1012399598+1012857968+1013377036+1013622766
2427+1013463469+1013087655+1012875750+1012934308+1012926821+1012647868
2418+1012368313+1012306079+1012244513+1011944102+1011452976+1010927224
2410+1010527813+1010430884+1010658833+1011040196+1011373963+1011456118
2401+1011078566+1010265638+1009371960+1008782435+1008623339+1008794468
2393+1009115334+1009426440+1009623438+1009496496+1008499137+1005997720
2384+1001939099+996944084+991524858+985577005+978881000+971713389+964628333
2374+957871764+951234317+944399203+937366823+930351422+923269107+916011988
2364+909467725+905180621+903588457+903780776+905348942+909124933+915617055
2354+924067930+933243695+941762152+947820503+949779123+947132914+941255384
2344+935265351+931783086+930892014+931298779+932138512+933219697+934382903
2334+935115948+935175174+935336877+936653966+938985525+941207522+942762519
2325+944126132+945991099+948698473+952385624+956950010+961638196+965328022
2315+967564324+968956281+970415686+972362942+974794371+977667124+980865890
2305+983977355+986507985+988415132+990194334+992302958+994626429+996544606
2295+997463419+997415891+997209868+997711823+998958120+1000334101+1001491825
2285+1002507700+1003262872+1003418291+1003022623+1002556565+1002352749
2276+1002338644+1002251743+1001905876+1001395031+1001058456+1001105984
2268+1001447506+1002044651+1003096289+1004559973+1005740559+1005806671
2259+1004726890+1003277444+1002006213+1000786254+999598448+998852168+998619673
2249+998687924+999510611+1001618701+1004048191+1005093880+1004735112+1004601485
2240+1005400909+1005896780+1004759043+1002430960+1000636918+1000547075
2231+1001919780+1003737152+1005098359+1005624579+1005564216+1005644901
2223+1006581829+1008423600+1010130741+1010164632+1008136425+1005653390
2214+1004864528+1006317583+1008609903+1010078333+1010517318+1010807501
2206+1010996544+1009950521+1007365678+1004583570+1002762922+1001795979
2197+1001361206+1001511946+1001953204+1001879204+1000808314+999207393+998062503
2187+997801532+998026406+998541061+999772852+1001676189+1003489617+1005051767
2177+1006830233+1008203272+1007452847+1004468726+1001842639+1001790498
2169+1003228713+1003419160+1001722381+1000162771+1001017812+1004848351
2160+1009589480+1011585668+1009862350+1007533665+1007071885+1007993172
2152+1009014328+1009528382+1009419555+1008873347+1007929400+1006060088
2143+1003001099+999427855+996116050+993500056+992466600+994119060+998098266
2133+1002301009+1004803296+1005253845+1004379820+1003037998+1001760283
2125+1000698150+999996991+1000086298+1001028508+1001861088+1001569167
2116+1000509173+999791837+999561816+999017948+997929945+997071294+997049636
2106+997431132+997392361+996997562+997191753+998282764+999165146+998727431
2096+997450518+996708983+996860258+997056722+996738329+996267258+996086570
2087+996168993+996423880+996848025+997199307+997248707+997326918+997916709
2077+998795348+999287342+999282128+999235268+999318025+999420435+999832614
2067+1000980579+1002523075+1003459603+1003050164+1001115142+997944317+994636456
2057+992975707+993950806+996221133+996844549+994352891+990793618+989860700
2047+992933260+998060030+1002877766+1006797612+1009791626+1010536169+1007447432
2037+1001498176+996099338+993410080+992701568+993182198+995519573+999260002
2027+1001926933+1002324406+1002203078+1003187401+1004082684+1002793605
2019+999574250+996755843+996064845+997503060+999874460+1001409336+1001213407
2009+1000470268+1000642399+1001101438+1000398541+998701160+997372240+997442897
1999+999077442+1001384469+1002957715+1003373972+1003453453+1003727258
1990+1003690158+1002738055+1000727964+997758215+994360512+991645918+990705781
1980+992106161+995968384+1001578660+1006648008+1008585370+1007049893+1003876996
1970+1000748486+998380962+997421506+998173803+999536147+999936227+999169624
1960+998305492+998087504+998074402+997262878+995153719+992294937+990041522
1951+989651603+991274315+993736160+995577730+996136237+995314954+993260543
1941+991055659+990217263+990775302+991156264+990275219+988668549+987264226
1931+986436726+986497222+987610627+989071771+989871062+989974207+990177221
1921+990717546+990960803+990495413+989739640+989163017+988641610+988088785
1911+987926346+988315396+988453636+987568113+986138722+985200790+984925648
1901+984692084+984254169+984054764+984488066+985431880+986483719+987361087
1891+987910637+987970265+987750739+988126620+989654477+991526463+992286581
1881+991601131+990444944+989670921+989366232+989398118+989838708+990892418
1871+992545012+993992719+993831283+991942185+990006093+989242231+989440032
1861+989824536+989957695+989907894+989924740+990157835+990558784+990963009
1851+991316964+991755481+992428363+993381803+994464325+995136472+994926573
1841+994282568+993920257+993860094+993566235+992640135+991357139+990451361
1832+990370743+990769887+990969092+990917954+990840545+990493341+989632885
1822+988528705+987557150+986891687+986567746+986533721+986786537+987328800
1812+987794992+987578675+986699569+985906027+985742586+986157840+986819225
1802+987364898+987505210+987201991+986693953+986245476+985895131+985341035
1792+984152494+982454912+980960212+980097617+979735172+979513841+979383289
1782+979585368+980012989+980291808+980561335+981365974+982910275+984802849
1772+986203764+986605983+986427635+986097143+985596993+985074716+984932867
1762+985190629+985362694+985212956+984837543+984222416+983569521+983405411
1752+983932166+984647764+984752246+984094538+983115696+982092802+981166502
1742+980525305+980069608+979353809+978430451+977987321+978301703+978606726
1732+978042871+977018106+976115068+975520196+975378681+975752356+976539013
1723+977591988+978933074+980806263+983203533+984997776+984929725+983677679
1713+982589075+982367075+983072446+984297887+985484890+986284381+986798302
1703+987490236+988730249+990073809+990412122+989433213+987483618+985384887
1693+984205838+984229435+984926918+985724270+986753648+988411522+989947000
1683+989694184+987971267+986116662+984683862+983601674+982423561+980847240
1673+979011151+976718430+972770241+965892010+956638168+945518691+930123607
1663+906507068+874361776+838099774+801282407+765788478+730810140+685846587
1653+618383442+555362018+519307242+493662662+463792979+430730512+405449915
1643+389733832+379466788+372972561+370672152+374721013+389395352+414391615
1633+441679697+468954710+500273738+538354783+580129397+619748392+655914736
1623+689481798+716559612+732919701+738868623+733996473+717759785+698522331
1613+686825429+685815436+695224096+712851204+733788512+753287806+769785399
1604+783950028+796535596+807889773+818339710+828278601+838056524+847664923
1594+856567350+864350624+871207998+877482532+883323229+888738779+893430441
1584+896585891+896943523+893289127+884938188+871507941+854805662+842665029
1574+841126744+847758175+859350061+873365488+885455852+893309448+898415897
1564+902329660+905538788+908914966+914101832+919531420+920895033+919705423
1554+918158848+916628050+914889826+912466819+909148798+905328420+901010834
1544+895286919+886532023+870046931+840837296+807784221+778251582+743660690
1534+691466822+622522880+555963842+501800793+455716114+417160020+392819861
1524+386844768+399952678+430723159+468101775+502330322+535039469+566954973
1514+594807278+618933927+641756123+663986789+688066110+719088036+750049265
1504+769002753+780269962+789980504+800122476+810844481+821245285+829441673
1494+834456341+836682683+835462924+826996006+806377491+776075308+746484979
1485+727359427+724348568+737534823+759855799+781265449+795634764+800741681
1475+793126996+766349993+720804536+669967530+623813363+583487059+551134575
1465+533286471+531851799+539472333+549651271+561694709+577277165+593056085
1455+603143109+609015759+614648896+622806713+635331584+652122501+669915590
1445+685225912+697533796+707750504+716378457+724157184+732520022+741760160
1435+749793107+755606865+760502211+765537734+770356072+774262081+777768077
1425+782032185+787396129+793487636+800616276+809288214+817760480+823400703
1415+826297788+827685534+828031267+827183646+824904094+821029837+814880775
1405+805048438+790824248+772274249+747746116+714580939+673040223+625489955
1395+572747607+517962679+468363381+427545784+394243603+368712430+355232448
1385+356697268+370366227+391441608+415978999+440889063+464303457+485926449
1375+506077435+524176651+539043208+551268904+563279386+576583426+590373846
1366+603282886+614945830+624978374+632526546+637849980+642396652+647398217
1356+653395270+660297164+667492918+674024212+678540000+679387220+675326594
1346+666338135+653772956+639689612+626276143+616436721+613885769+620468736
1336+634317513+651862867+670061918+686978575+701709132+714091351+724273298
1326+732462266+739007130+744484513+749484006+754272664+758713784+762606423
1316+766104731+769628308+773366263+777007023+779985528+781945819+783018915
1306+783786520+784951665+786949991+789780832+793106407+796498562+799647661
1296+802444878+805023437+807748458+811021158+814969815+819301573+823452576
1286+826904626+829405777+830949543+831616410+831447153+830454073+828808431
1276+826999883+825699440+825485529+826710435+829405777+833129092+837041986
1266+840321638+842526990+843627493+843856578+843712255+844030046+845677493
1256+848923788+853137627+857083677+859483488+859476402+856787478+851475073
1247+843473010+832523190+818625348+802405505+785015838+767849708+752240112
1237+738902715+727251803+715314719+700634833+681587893+658199569+632126466
1227+606075423+582945932+564880040+552786032+546874511+547565308+555410916
1217+569952864+588986434+609217035+627699184+642980962+655326147+665855967
1207+675151388+682373747+685462149+682033763+670436396+650744515+625295764
1197+598142613+573472162+553992054+540267947+531189578+525112142+521002851
1187+519015889+520327027+526342095+537503786+552390999+568073859+581719555
1177+592144090+600250502+608469217+619577531+635194547+654762025+675843990
1167+695549307+711899702+724168482+732337396+736419613+736007033+730107577
1157+717599085+698601679+676135176+656425381+646650065+651027412+668155373
1147+691907612+714985431+731940992+739656683+736176691+720166681+692136764
1137+656382532+621312881+596531531+587924101+594711152+611168435+631133720
1128+651041450+669702214+686665397+701303638+712757417+719991742+721745876
1118+716627930+703706389+683677332+659902165+638190366+624897155+624114576
1108+635703721+655668605+678581713+700119107+718094154+732051557+742456172
1098+750085697+755642027+759537941+761875985+762544389+761305044+757901926
1088+752326077+745176915+737808027+732013521+729328809+730351970+734586332
1078+740884397+747998130+754819139+760518989+764828821+768119168+770961105
1068+773551095+775639264+777012437+777902907+778798324+779986263+781503224
1058+783377215+785592060+787880035+789881971+791526744+793041900+794580519
1048+795971206+796849309+796988551+796505581+795728751+794856263+793797338
1038+792365942+790523636+788421697+786325105+784458601+782778867+780903071
1028+778270834+774326521+768766649+761872910+754331556+746263047+736275023
1018+721542260+699679788+672300159+647047537+633707266+636210623+649116789
1009+662743366+670684198+672262792+670216201+667909643+667855764+671079064
999+677158271+684911998+693180781+701260388+708947535+716289684+723269656
989+729772406+735800342+741502264+746921490+751907614+756358360+760362233
979+764027926+767322618+770122308+772344907+774082463+775673290+777567067
969+780055784+783177810+786806939+790663614+794264199+797062016+798728648
959+799245309+798783128+797650404+796344212+795478877+795508290+796402971
949+797516844+797758830+795883502+790600711+780682476+765435458+745161474
939+720933217+694038028+665869804+638092502+612518947+590950669+575269213
929+567243084+567605997+575096012+586661961+599072456+610744157+622325882
919+635642623+651887734+670484860+689433735+706613101+720815967+731909240
909+740474357+747341223+753125167+758006475+761949650+765007838+767346149
899+769133439+770551266+771855519+773329631+775057026+776724727+777860058
890+778336410+778449315+778512954+778590162+778510413+778003245+777000672
880+775808120+774747324+773819754+772993992+772448987+772199715+771885467
870+771210578+770268302+769289727+768362492+767411391+766203398+764427538
860+761967231+758992202+755649246+751897320+747881281+744214117+741535153
850+739957161+739255801+739337689+740122273+741219234+742196538+743050643
840+744063310+745358472+746873561+748539658+750237574+751853936+753613619
830+756062294+759485132+763585332+767894361+772288220+776957823+782018147
820+787292315+792434393+797132005+801130865+804222408+806418268+808069592
810+809605804+811151242+812488986+813277915+813197632+812108359+810345200
800+808711658+807913972+808111906+809190016+811148368+813881411+816836587
790+819294687+820947348+822015898+822815924+823291541+823089329+822108482
781+820603019+818479554+814730837+807530737+794464272+773537592+746092520
771+718958955+701089125+696210692+699787813+704020437+704124785+698776484
761+687072161+667827621+641174085+608913082+573221620+535708207+497486382
751+459665305+423664208+391079998+363586896+343332698+333182036+336051781
741+353480319+384179641+423817020+466424949+506179812+538868670+563105985
731+580429473+593899227+606478645+620097067+635133181+650532276+664864223
721+677358478+687980279+696972080+704579613+711038645+716653132+721787856
711+726581661+730733667+733950616+736597761+739398386+742412120+744871224
701+746177014+746603432+746939873+747752533+748938601+749897456+750299942
691+750507569+750954041+751519901+751933885+752329419+752962394+753784881
681+754652556+755638484+756848951+758175598+759465613+760446193+760098120
671+756998488+751460274+748176411+752446937+760005938+764205338+764276798
662+762050991+758652752+753518228+745496177+734372756+721280420+708289492
652+697860745+692039702+691145354+692741663+692658505+687880276+678376960
642+666190603+653352421+640999147+630152004+622860391+622117386+630172860
632+646649396+668116869+689673449+707545751+720517428+729184820+734247150
622+735603945+732862680+726145484+715965342+702849476+687877735+673211352
612+661273064+653573216+650619511+652420372+658533404+667840322+678676301
602+689426449+699261125+708317902+717030015+725408629+733013420+739240961
592+743577465+746099138+747719177+749214880+749966375+748206091+742635389
582+733563371+722847249+713069660+706069567+701988553+700098050+700138159
572+702028995+704538234+705249755+702063622+694065369+680780246+661842468
562+638684566+616344271+601950022+600086459+609740849+626147062+644974075
552+663840728+680817146+693852327+702452739+708445780+714109600+720393359
543+727156279+733853554+739595719+743676131+746334105+748253419+749690297
533+750833850+752294726+754480893+757044612+759358791+761159117+762519254
523+763346153+763243676+762170580+761081908+761343281+763297622+765904257
513+767814078+768543046+768550265+768171042+767291000+766454408+766519384
503+766517713+764381815+760761978+758761646+759589213+761525506+762716453
493+763096145+763567149+764724941+766348322+767212521+765814816+762144376
483+758262165+756293117+756527282+757812886+759001026+759965963+761336395
473+763125557+764242773+764142368+763746834+763948913+764636569+765278234
463+765452103+765092332+765307446+768337290+774742110+781163374+784337273
453+784663821+783645272+781523947+778420838+775952376+775986736+778107994
443+779763796+778946791+775332771+768437761+756309294+737184812+711964410
433+683636555+655173803+630455022+615192362+613925343+627200572+651226416
424+678355302+701335791+718055115+730081106+738887073+745054919+749033725
414+750761187+749941107+746996627+743134135+739861904+738908598+741500526
404+747096630+753283929+757012459+756492789+754715325+758509165+767271280
394+773394940+773936402+772405336+771869156+770730750+766611967+762206343
384+763321219+770011743+776756413+780517564+781802432+780687088+775797491
374+769313926
##END=
