##TITLE=LL- 180
##JCAMP-DX=4.24
##DATA TYPE=INFRARED SPECTRUM
##DATE=26/7/2019
##SAMPLING PROCEDURE=Diamant-ATR
##ORIGIN=Rieke
##XUNITS=1/CM
##YUNITS=TRANSMITTANCE
##RESOLUTION=4
##FIRSTX=3997.453
##LASTX=373.96442
##DELTAX=-1.4165319
##MAXY=1
##MINY=0.63832653
##XFACTOR=1
##YFACTOR=9.3132258e-010
##NPOINTS=2559
##FIRSTY=0.99836165
##XYDATA=(X++(Y..Y))
3997+1071982655+1071903359+1072185919+1072774847+1073341887+1073527103
3989+1073276991+1072882047+1072534975+1072121471+1071567423+1071042623
3980+1070782783+1071007999+1071839551+1072980095+1073741823+1073682623
3972+1073015295+1072310591+1072073919+1072470847+1073146047+1073472255
3963+1073162431+1072582207+1072324415+1072501503+1072683583+1072496191
3955+1072029055+1071649471+1071567935+1071687935+1071823999+1071976127
3946+1072262527+1072662463+1073002815+1073103935+1072908479+1072520319
3938+1072076991+1071611775+1071125247+1070727615+1070530879+1070481535
3929+1070560575+1070894207+1071413631+1071801151+1071899711+1071873663
3921+1071869503+1071906879+1071969919+1071894271+1071461567+1070776255
3912+1070189887+1069943935+1070008447+1070190143+1070342143+1070410431
3904+1070328575+1070096319+1070004479+1070310911+1070794175+1071129535
3895+1071364159+1071700543+1072090751+1072157247+1071775743+1071441791
3887+1071657471+1072242431+1072190207+1070973759+1069358847+1068382975
3878+1068109055+1067828095+1067295999+1066865407+1066938623+1067621439
3870+1068754495+1069773247+1070082431+1069739455+1069248703+1069100863
3861+1069347007+1069713407+1069980159+1069935679+1069299327+1068174143
3853+1067941759+1069346239+1070692863+1071289663+1071527871+1071696767
3844+1071665663+1071174207+1070379967+1069837567+1069796223+1069821823
3836+1069567551+1069499391+1070152639+1071276479+1072013951+1071959359
3827+1071520575+1071134911+1070633663+1069670655+1068524479+1068177151
3819+1068946367+1070104191+1071124223+1071752127+1071920703+1071721215
3810+1071236287+1070716351+1070696703+1071272447+1071622975+1071325887
3802+1070935999+1070985087+1071105663+1070935807+1070747455+1070823359
3793+1071023871+1071062847+1070919231+1070874559+1071160319+1071582591
3785+1071662015+1071277823+1070960895+1071290495+1072094783+1072427775
3776+1071843903+1070920511+1070200575+1069706559+1069456255+1069804543
3768+1070745023+1071556031+1071670079+1071161471+1070402623+1069764543
3759+1069710271+1070498879+1071620095+1072414207+1072820671+1073121855
3751+1073436735+1073477375+1073054655+1072312447+1071521727+1071249023
3742+1071762303+1072508351+1072974783+1072916671+1072182719+1071037759
3734+1070345919+1070350591+1070319231+1069779007+1068803199+1067791743
3725+1067298559+1067596031+1068391231+1069291455+1070167295+1070981375
3717+1071588415+1071749823+1071262015+1070225343+1069456063+1069811519
3708+1070663359+1071068159+1071000191+1070866559+1070888639+1070920447
3700+1070789631+1070672959+1070771263+1070923839+1070814911+1070504319
3691+1070485439+1070983999+1071305599+1071013567+1070751679+1070866751
3683+1071123967+1071240319+1070990335+1070149439+1068886655+1068273535
3674+1069143999+1070410751+1071336447+1072238207+1072869503+1072650303
3666+1071873919+1071110335+1070686207+1070699583+1071003711+1071421439
3657+1071978495+1072515135+1072441215+1071661631+1070828543+1070619583
3649+1071196031+1072080831+1072758079+1073011327+1072876479+1072591807
3640+1072329279+1072012863+1071553791+1071100799+1070898367+1070949695
3632+1070931327+1070487935+1069671487+1069182527+1069442943+1070035391
3623+1070482879+1070503487+1070185151+1070108415+1070669823+1071474943
3615+1072062015+1072276863+1072088447+1071671743+1071359871+1071337407
3606+1071507647+1071666367+1071680255+1071459839+1070946879+1070201791
3598+1069421311+1068845759+1068670975+1068908351+1069261823+1069393471
3589+1069303743+1069409663+1069988927+1070475839+1070391999+1070046463
3581+1069886527+1069937087+1069974847+1070075071+1070521343+1071240255
3572+1071831295+1072074303+1072023551+1071788287+1071512895+1071342719
3564+1071183807+1070821887+1070165439+1069327999+1068662911+1068530047
3555+1068888767+1069334911+1069585215+1069703743+1069711231+1069394303
3547+1068696191+1068000063+1067752319+1067938687+1068279615+1068566847
3538+1068690367+1068689919+1068779263+1069070591+1069389119+1069560447
3530+1069663167+1069873151+1070214783+1070554175+1070727359+1070699839
3521+1070632063+1070606655+1070461055+1070173759+1070063103+1070267263
3513+1070443839+1070341439+1070228095+1070471551+1071042687+1071657919
3504+1072013759+1071848575+1071198975+1070503039+1070205439+1070448127
3496+1071005183+1071347519+1071087167+1070430463+1069948543+1069957375
3488+1070258559+1070447103+1070386111+1070361919+1070734271+1071352127
3479+1071538303+1070924735+1069969215+1069439935+1069526335+1069745791
3471+1069751423+1069750015+1069978815+1070247231+1070294655+1070271423
3462+1070498687+1070963007+1071361983+1071560063+1071732415+1072050047
3454+1072410431+1072582783+1072486591+1072160319+1071633151+1071054591
3445+1070769599+1070967423+1071376703+1071465151+1070954879+1070146495
3437+1069658047+1069796991+1070312575+1070809535+1071140735+1071282879
3428+1071199359+1071007359+1070941951+1070987455+1070896319+1070697279
3420+1070778815+1071287039+1071805887+1071761855+1070950079+1069813951
3411+1069230975+1069701311+1070768959+1071573695+1071774783+1071551359
3403+1071063231+1070449471+1070057919+1070200703+1070777535+1071357887
3394+1071624127+1071636991+1071638271+1071697151+1071730495+1071766655
3386+1071871679+1071889855+1071610559+1071193087+1071077567+1071395199
3377+1071723455+1071615743+1071142079+1070618367+1070094975+1069558335
3369+1069332863+1069741311+1070563199+1071280511+1071684543+1071954303
3360+1072302719+1072717695+1072973247+1072848255+1072333055+1071592831
3352+1070816575+1070160191+1069722239+1069505151+1069435711+1069394239
3343+1069237695+1068912511+1068527423+1068197823+1067911359+1067654655
3335+1067435455+1066960511+1065615231+1063221823+1060694015+1059472383
3326+1060179839+1062091711+1063970367+1065159679+1065824191+1066456831
3318+1067323135+1068216767+1068668991+1068514879+1068183807+1068220351
3309+1068623103+1068906943+1068736575+1068252543+1067821695+1067646655
3301+1067616319+1067477631+1067092031+1066531199+1066042303+1065962943
3292+1066447359+1067177727+1067555583+1067239871+1066321151+1065042751
3284+1063587903+1062114879+1060742655+1059439295+1058030655+1056370239
3275+1054392831+1051953791+1048789055+1044727295+1039801215+1034084543
3267+1027535487+1019943743+1010922815+1000129407+987693247+974381375+961243327
3257+949152703+938613375+929725823+922291647+916163071+911523455+908755391
3247+908264895+910495615+915671871+923287167+932183871+941304447+950161855
3237+958597823+966319871+972868543+978046655+982227135+986021055+989629439
3227+992743039+995181183+997332095+999723711+1002357567+1004776831+1006719039
3217+1008340159+1009830143+1011263359+1012843839+1014826047+1017104063
3208+1019250303+1020979391+1022262655+1023101503+1023561599+1023961599
3200+1024683327+1025752703+1026775295+1027342655+1027447871+1027462975
3191+1027802623+1028631679+1029773695+1030808191+1031362943+1031429567
3183+1031409023+1031759679+1032571455+1033464063+1033912127+1033728191
3174+1033248383+1033012991+1033209215+1033432447+1033152191+1032403967
3166+1031757567+1031634943+1031978943+1032524479+1033058495+1033436223
3157+1033581439+1033498047+1033290879+1033221759+1033573375+1034301503
3149+1035006527+1035418431+1035724031+1036221503+1036850623+1037343743
3140+1037702271+1038189887+1038916863+1039716351+1040369471+1040731903
3132+1040813567+1040895679+1041335807+1042148543+1042964159+1043435199
3123+1043563263+1043620607+1043787839+1043913151+1043703935+1043059711
3115+1042028479+1040619647+1038877439+1036886143+1034488127+1031257151
3106+1026838655+1021049023+1013768511+1005191551+996223423+988304191+982892287
3097+981220799+984000511+990750015+999633535+1008419007+1015624511+1020770815
3087+1023846335+1024881087+1024118335+1022339199+1020627263+1019641599
3078+1019252799+1019018431+1018817471+1018876415+1019326591+1019782143
3070+1019225983+1016482815+1011255679+1004863679+999677503+997546559+998746623
3060+1002258815+1006732415+1011241855+1015511487+1019613055+1023512767
3051+1026968383+1029777727+1031919871+1033460863+1034465151+1035021631
3043+1035273279+1035383167+1035389695+1035088959+1034252799+1033011007
3034+1031786687+1030866175+1030324927+1030274559+1030802175+1031713983
3026+1032612543+1033186111+1033329471+1033109311+1032746431+1032532927
3017+1032585407+1032683775+1032556671+1032361535+1032495103+1032779327
3009+1032294015+1030313791+1027071359+1023473791+1020406655+1018309375
3000+1016930431+1015129023+1011128959+1003774207+994355327+986846783+985025279
2990+989114687+995995327+1002418559+1007152831+1010404607+1012526783+1013712959
2980+1014168255+1014071935+1013515135+1012632191+1011756607+1011350335
2972+1011677951+1012614015+1013880447+1015368511+1017044223+1018678591
2963+1019955519+1020856575+1021682623+1022611967+1023425727+1023850303
2955+1024015103+1024316159+1024900031+1025578239+1026252799+1027099583
2946+1028233151+1029474751+1030603007+1031590527+1032417535+1032857215
2938+1032662399+1031875135+1030790399+1029618623+1028269311+1026501311
2929+1024182655+1021280575+1017719231+1013515839+1009029311+1004859647
2921+1001536767+999477823+999125439+1000815679+1004400383+1009112191+1013956223
2911+1018313215+1022150527+1025663039+1028836927+1031471871+1033520575
2902+1035148607+1036403199+1037053631+1036873855+1035836415+1033862527
2894+1030666559+1026133631+1020784319+1015768959+1012400191+1011454975
2885+1012623103+1014637695+1016111679+1016382847+1015767359+1015183935
2877+1015448511+1016728959+1018608575+1020636031+1022724607+1025004031
2868+1027382271+1029384767+1030521087+1030771263+1030613567+1030584959
2860+1030867519+1031251071+1031417855+1031309055+1031262655+1031732671
2851+1032803455+1034089215+1035218559+1036265855+1037531519+1039026431
2843+1040380031+1041229311+1041575167+1041745215+1042068991+1042636479
2834+1043358335+1044123711+1044823103+1045350399+1045706239+1046004607
2826+1046329407+1046675071+1047013503+1047289855+1047380095+1047217279
2817+1046981375+1046980671+1047273215+1047592831+1047764287+1047965311
2809+1048424383+1049065663+1049610879+1049878143+1049894911+1049822271
2800+1049805503+1049867839+1049975039+1050145791+1050383935+1050572415
2792+1050567871+1050394175+1050258239+1050358911+1050675455+1050940351
2783+1050881215+1050511039+1050120703+1049937663+1049893439+1049790975
2775+1049597823+1049423807+1049302527+1049171711+1049041855+1049013311
2766+1049109183+1049227839+1049308031+1049444479+1049754239+1050184319
2758+1050541247+1050704319+1050743871+1050813695+1050978239+1051179455
2749+1051359103+1051519807+1051642303+1051683775+1051699135+1051802303
2741+1051974975+1052065599+1052003711+1051881023+1051829439+1051892927
2732+1052009215+1052082751+1052081599+1052070911+1052180223+1052517119
2724+1053023999+1053462463+1053653247+1053652415+1053574911+1053411263
2715+1053165759+1052986239+1053018303+1053253823+1053570111+1053807935
2707+1053848127+1053737919+1053694911+1053894143+1054279935+1054617407
2698+1054695231+1054496639+1054201343+1053991167+1053877503+1053765439
2690+1053623039+1053500351+1053437311+1053411967+1053338623+1053151231
2681+1052956863+1052987327+1053285055+1053598655+1053731583+1053791359
2673+1053933183+1054087103+1054132671+1054128191+1054138303+1054048511
2664+1053791871+1053573567+1053614911+1053833215+1053980607+1053931519
2656+1053691327+1053334975+1053053823+1053045183+1053296447+1053629311
2647+1053927231+1054150783+1054222015+1054064575+1053750591+1053515199
2639+1053577087+1053895743+1054149183+1054084799+1053869567+1053913855
2630+1054358719+1054940159+1055382911+1055717759+1056113279+1056571903
2622+1056919615+1057015295+1056864575+1056586751+1056325503+1056171775
2614+1056135487+1056169535+1056231743+1056340095+1056551679+1056876159
2605+1057241599+1057548479+1057698303+1057608127+1057300287+1056904639
2597+1056475967+1055952511+1055426623+1055226943+1055522623+1056046911
2588+1056423231+1056569663+1056588287+1056501247+1056373951+1056472127
2580+1056939711+1057435199+1057467967+1057047295+1056607551+1056321535
2571+1055961407+1055514431+1055391615+1055798975+1056338879+1056504191
2563+1056281151+1056070591+1056217855+1056714175+1057231871+1057439935
2554+1057349375+1057265919+1057397695+1057632575+1057716159+1057542079
2546+1057230143+1056994495+1057015807+1057383615+1058026239+1058709887
2537+1059230463+1059549503+1059635135+1059341311+1058618303+1057724735
2529+1057083199+1056957055+1057268415+1057729471+1058149823+1058526015
2520+1058814079+1058872063+1058681407+1058387967+1058151871+1058116863
2512+1058327999+1058510463+1058259839+1057604287+1057022783+1056821567
2503+1056868607+1057008383+1057349695+1057975231+1058658431+1059080255
2495+1059184831+1059178303+1059256831+1059421247+1059518847+1059440063
2486+1059252927+1059106367+1059073151+1059143359+1059268863+1059392191
2478+1059534655+1059782271+1060095103+1060320127+1060452351+1060597631
2469+1060662079+1060412159+1059875263+1059383999+1059215231+1059329919
2461+1059467327+1059389951+1059024703+1058432831+1057763263+1057249471
2452+1057150847+1057598783+1058443583+1059231807+1059506367+1059286527
2444+1059036991+1059033919+1059077375+1058954495+1058802367+1058845183
2435+1059060095+1059292415+1059563839+1060085631+1060901055+1061686079
2427+1062103167+1062193215+1062178175+1062091135+1061910079+1061808703
2418+1061939007+1062126143+1062062335+1061706879+1061296831+1061036223
2410+1060934271+1060889919+1060807295+1060691199+1060684031+1060874111
2401+1061051391+1060909631+1060500351+1060202687+1060230399+1060426687
2393+1060508415+1060293823+1059785535+1059233599+1059021183+1059292671
2384+1059727103+1059830463+1059460287+1058905983+1058437183+1058020351
2376+1057628479+1057505343+1057829439+1058348223+1058627647+1058579519
2367+1058590975+1059078335+1059868159+1060321471+1060308415+1060454079
2359+1060986495+1061118719+1060153919+1058529535+1057240511+1056670015
2350+1056425919+1056013503+1055244415+1054248575+1053406015+1053195327
2342+1053909823+1055399807+1056996927+1057857535+1057646207+1056899711
2333+1056565247+1057060351+1057911679+1058413695+1058346495+1057831231
2325+1057004031+1056199743+1056030015+1056778687+1057952447+1058807935
2316+1059055679+1058844287+1058459967+1058258431+1058531263+1059140863
2308+1059533567+1059320767+1058648319+1057894527+1057236735+1056636607
2299+1056055039+1055547903+1055190463+1054972607+1054807615+1054675199
2291+1054702015+1054961727+1055203903+1055018303+1054454783+1054205503
2282+1054792511+1055784255+1056281663+1056015871+1055548735+1055537215
2274+1056034751+1056423807+1056148159+1055509887+1055264831+1055592191
2265+1056248767+1057307199+1058684095+1059597311+1059625599+1059576383
2257+1060351359+1061735679+1063005823+1063873151+1064217535+1063721151
2248+1062436031+1061135103+1060513663+1060395391+1060133375+1059425983
2240+1058516287+1058037375+1058576895+1059837631+1060687167+1060657343
2231+1060579071+1061166655+1062091903+1062876223+1063560447+1064209855
2223+1064607935+1064541503+1064045823+1063424319+1062898623+1062209407
2214+1061109055+1060149567+1060131903+1060886335+1061427583+1061221503
2206+1060606847+1060024127+1059384895+1058412735+1057307839+1056511103
2197+1056019647+1055713535+1056189759+1058134911+1060952959+1063222719
2189+1064473919+1065272191+1065682943+1065148479+1063996287+1063472639
2180+1063891263+1064286591+1064180159+1064127103+1064432191+1064925951
2172+1065872383+1067392191+1068358527+1067720575+1066574143+1067023935
2163+1069261183+1071528191+1072708799+1073306239+1073741823+1073258303
2155+1071042175+1067536447+1064362367+1063032255+1063686655+1065299519
2146+1066896319+1067957375+1067984511+1066738431+1064934719+1063804415
2138+1063803455+1064294079+1064537663+1064452031+1064270527+1064030399
2129+1063710975+1063423551+1063116863+1062388671+1060999935+1059455679
2121+1058669503+1059011583+1059965887+1060768831+1061140415+1061290303
2112+1061482047+1061751103+1061914623+1061741887+1061211903+1060561791
2104+1060007871+1059576383+1059352447+1059608831+1060423423+1061345727
2095+1061799679+1061778559+1061758207+1061832319+1061363583+1059811007
2087+1057717631+1056467455+1056956991+1058662143+1060138559+1060399487
2078+1059618175+1058639039+1058241215+1058723327+1059700735+1060478463
2070+1060875583+1061169727+1061204543+1060495231+1059356607+1058854079
2061+1059455999+1060592767+1061507135+1061939327+1062047807+1062023487
2053+1061841279+1061318463+1060556095+1060282111+1061234367+1063044479
2044+1064526655+1065186431+1065497535+1065737535+1065767295+1065904319
2036+1066767615+1068268031+1069524927+1069635391+1068356735+1066428863
2027+1065079103+1064903807+1065599359+1066848383+1068790719+1071219455
2019+1072769471+1071735487+1068176383+1064259263+1062079743+1062210815
2010+1064094079+1066491711+1067755711+1066965759+1064940415+1063429759
2002+1063527039+1065081855+1067120767+1068588863+1068912319+1068263295
1993+1067603711+1068014847+1069231615+1069580351+1068090239+1065744895
1985+1064352511+1064820671+1066682111+1068719615+1069894463+1070001791
1976+1069683775+1069892607+1071171455+1072958847+1073741823+1072489343
1968+1069679487+1066695615+1064555583+1063832639+1064806783+1066804095
1959+1068224319+1067949247+1066215167+1064103871+1062660223+1062108543
1951+1061692607+1060695679+1059591295+1059641215+1061332735+1063642303
1942+1065026431+1065211519+1065223871+1065712063+1066433855+1067024383
1934+1067388415+1067352639+1066744383+1065913919+1065554111+1065892031
1925+1066470527+1066678207+1066342015+1065815103+1065540991+1065763263
1917+1066445439+1067228159+1067695935+1067742143+1067645823+1067733823
1908+1067956287+1068045887+1068016383+1068120959+1068409343+1068636799
1900+1068614655+1068404927+1068146175+1067892735+1067654783+1067490559
1891+1067483199+1067564735+1067445439+1066988671+1066509951+1066432639
1883+1066781247+1067162367+1067264831+1067185151+1067166335+1067169663
1874+1066940735+1066458559+1066102079+1066372287+1067304831+1068133567
1866+1068275967+1068042687+1067938559+1068004607+1067948223+1067689535
1857+1067438847+1067333055+1067362687+1067546047+1067894911+1068238719
1849+1068282559+1067955647+1067581567+1067446783+1067297087+1066868351
1840+1066403071+1066124927+1065884095+1065418367+1064738175+1064084543
1832+1063673727+1063533183+1063484095+1063461247+1063590463+1063775359
1823+1063721919+1063487231+1063457599+1063819199+1064369471+1064789759
1815+1064965631+1064989311+1065012415+1065151871+1065400319+1065599423
1806+1065597055+1065451071+1065431615+1065791551+1066499839+1067248703
1798+1067773439+1068028671+1068120383+1068198655+1068313471+1068324031
1789+1068129023+1067846911+1067706943+1067844735+1068108351+1068264831
1781+1068374527+1068620607+1068881087+1068881727+1068655487+1068615551
1772+1069068031+1069612095+1069709695+1069390847+1068928639+1068538111
1764+1068368767+1068497983+1068777023+1068913791+1068814079+1068568447
1755+1068258175+1067889855+1067503103+1067277055+1067336895+1067407551
1747+1067157503+1066586367+1065827455+1064956991+1064034687+1063174719
1738+1062458239+1061886399+1061566911+1061759103+1062323071+1062732031
1730+1062858175+1062847423+1062890047+1063075263+1063235007+1063102591
1721+1062685247+1062237183+1061936319+1061623423+1061021119+1060335423
1713+1059904639+1059815295+1060001151+1060382143+1060837631+1061143039
1704+1061261375+1061537407+1062296959+1063373951+1064282943+1065174591
1696+1066289983+1067163583+1067491775+1067525823+1067529023+1067519103
1687+1067486783+1067756735+1068729151+1069723327+1069945471+1069821439
1679+1069786879+1069947711+1070302527+1070783103+1071258431+1071667839
1670+1071971199+1072076543+1072022847+1071951359+1071947071+1072076607
1662+1072322431+1072518591+1072552767+1072475391+1072476479+1072859839
1653+1073477247+1073334783+1072718911+1072390591+1072510783+1072648575
1645+1072327679+1071739135+1071149311+1070592831+1069962111+1069222015
1636+1068672127+1068633151+1068802175+1068940415+1069067711+1069094079
1628+1068887039+1068539647+1068269375+1068132351+1067974591+1067669055
1619+1067275519+1066785023+1065757439+1063644479+1060002111+1053248191
1611+1040559231+1021123071+1000627583+988715135+990430335+1003022015+1019462463
1601+1033768511+1043993727+1050978239+1055938431+1059501695+1061775743
1592+1062836991+1062966143+1062415295+1061411711+1060343551+1059599359
1584+1059455103+1060118271+1061486335+1063170367+1065054399+1067211647
1575+1068983679+1069780735+1070127359+1070620863+1071473087+1072410751
1567+1073003775+1073211391+1073166911+1072885823+1072463999+1072525183
1558+1073439615+1073741823+1073337279+1072747903+1071991871+1070965503
1550+1069572927+1067699263+1065232895+1061761279+1056624703+1048848511
1541+1033494911+1005246271+976464319+954596287+931328063+897639679+856133183
1531+821571839+798094015+779134143+760779583+744542719+733347775+730226943
1521+739009727+757655167+781341375+810069695+840315647+864862911+882533247
1511+895852671+905846015+913589759+922921023+934529023+943971199+951841663
1502+959830015+968263231+976891007+985454015+993185087+999128703+1003543103
1492+1007746687+1013144255+1019351679+1024076607+1026546559+1026969983
1483+1024725439+1019276287+1012083135+1006460607+1005049919+1008246847
1475+1014723711+1022768895+1030153343+1034837183+1037228543+1038795199
1466+1040512447+1042546239+1044235711+1044958335+1044608959+1042787903
1458+1038493439+1033396031+1031259071+1031537663+1032545791+1034013503
1449+1036756287+1041243903+1046281855+1050252351+1052880255+1054702271
1441+1056052287+1056878015+1056968895+1056314239+1055562687+1055530047
1432+1056615103+1058883967+1061732223+1064115839+1065667135+1066740543
1424+1067688767+1068578431+1069444159+1070362367+1071045823+1071098431
1415+1070659071+1069891775+1068586303+1066324095+1062690815+1057079487
1407+1048338175+1035846399+1021990463+1011153087+1006178495+1008131455
1398+1016233407+1027649599+1039561983+1049748927+1056613439+1060319871
1390+1061883199+1061877695+1060564031+1058380735+1055739839+1052718207
1381+1049100735+1044605055+1039375487+1034372863+1031338687+1031913087
1373+1035712959+1040583359+1045083391+1048724031+1051126783+1052076415
1364+1051326399+1047935999+1040480703+1027473599+1006461311+974244799+930247615
1354+880163647+833746879+797926079+774249663+761489343+758058815+762373311
1344+772362815+786057727+803029759+823995135+848031231+872007487+893924159
1334+913755135+931728383+947712767+961432831+972560959+980729919+985644159
1324+987278527+986031231+982745215+978699327+975452543+974118079+974690879
1315+976439167+978664959+981023103+983509695+986239231+989263103+992708863
1305+996893119+1002000767+1007624575+1012618559+1015396479+1014682431
1296+1010601983+1005343935+1002294399+1003886271+1010072127+1018828863
1288+1027912255+1036014719+1042701375+1047932543+1051818303+1054601535
1279+1056649279+1058310591+1059758911+1061046911+1062237695+1063377599
1271+1064458175+1065507519+1066602815+1067725631+1068726271+1069491583
1262+1070093439+1070751999+1071628863+1072620991+1073404863+1073741823
1254+1073682815+1073431743+1073114943+1072719807+1072154367+1071217343
1245+1069500991+1066339071+1060731199+1051205503+1036139199+1015199551
1237+990955775+967901183+948250943+928899519+904218175+872592127+839561919
1227+814364287+803802815+808705919+824534399+844382783+861573503+870459967
1217+866524927+847611967+816137279+779583871+747168447+724848575+713509695
1207+711297599+716070847+725501183+736858623+748501823+761452543+778371519
1197+800513215+826092223+851707519+874719743+894135999+910044351+922752255
1187+932254527+938283007+940963199+941564735+942499775+946141311+953236415
1177+962485119+971712703+979222015+984157631+986243519+985578111+982428479
1167+976874687+968660991+957525695+943585343+927280255+909156735+890030783
1157+871383103+855396863+844442303+840286783+843441407+852801471+865519935
1147+877508607+885314687+888522943+889933631+892572287+896696639+900192959
1137+901472063+901307903+901965247+905084415+910651199+917680383+925308735
1128+933071103+940602687+947575679+953902655+959714111+964935679+968834047
1118+969919743+966100543+955061567+935702207+910615423+886644991+870968255
1108+865998911+869023103+876307775+885821567+896288319+905945855+913259711
1098+917903615+920500223+921859071+922548031+922695615+921913151+919519295
1088+915038335+908585599+900854079+892976383+886545727+883304319+884102655
1078+888093695+893355199+898391423+902914047+907463359+912663551+918750975
1068+925453567+932159103+938234111+943305919+947394879+950823679+953918911
1058+956813247+959570879+962313727+965056511+967623167+969942015+972253567
1048+974840383+977666751+980370687+982520831+983925887+984785407+985466623
1038+986139071+986751359+987254079+987585855+987513983+986746367+985115327
1028+982440639+978383423+972657919+965207679+955929983+944301887+929400639
1018+910723391+890057279+872713983+864828159+867423807+873916799+875117247
1009+866390591+849345023+828190079+806363583+785995071+768514751+754896191
999+745722175+741338431+741791487+746393407+753330815+760043903+764545919
989+766638143+767636415+768835391+770574783+772840767+776041919+780669503
979+786746431+794201855+803345663+814385471+826784575+839535999+851855231
969+863380287+873956863+883489791+891994047+899664767+906766463+913390015
959+919334975+924164799+927371071+928807871+929251199+930332287+933535295
949+939114303+945939263+952243327+956418111+957420479+955219839+951332671
939+948477695+948967935+953246079+959985727+967346815+974071935+979770623
929+984533439+988463679+991633727+994266751+996674559+999028607+1001303423
919+1003426431+1005451839+1007546559+1009733311+1011776959+1013493439
911+1015049791+1016780671+1018791167+1020897983+1022924735+1024898815
902+1026898175+1028825343+1030420479+1031383999+1031423039+1030234943
894+1027316415+1021604159+1011390015+994756735+970541695+940018495+908476607
884+884257535+874328255+879511039+893556223+906992319+913161663+912220095
874+909694079+910491071+913814271+913490239+902877247+880433919+852531839
864+830965247+825628735+838015551+860375487+878876223+878965439+854899327
854+818420607+793324863+796070591+823198847+858962687+890654527+914273087
844+930500031+940322495+944377727+944526719+944755775+949246591+959124223
834+971859199+983959743+993561471+1000634047+1005785983+1009360767+1011388095
824+1012057407+1012009407+1012080127+1012912063+1014859199+1018011967
816+1022103615+1026522303+1030636607+1034158783+1037169279+1039873343
807+1042424383+1044878527+1047182847+1049276671+1051274943+1053352255
799+1055372735+1056929343+1057894911+1058672575+1059721471+1060955391
790+1061684095+1060962879+1057933119+1052211519+1044079871+1033550847
782+1019289791+1000556991+981283135+969683903+971393215+984211007+1001056191
772+1016381119+1028529151+1038019455+1045655423+1051863743+1056755839
764+1060447039+1063246911+1065550591+1067654783+1069703423+1071700479
755+1073378623+1073741823+1069928831+1055144447+1021237951+968439103+914294079
745+885815807+897006143+935915775+974710335+987825535+962253247+901708671
735+826893631+765900287+737670463+743534079+772735231+812489983+853240383
725+889228415+918196863+940783039+958815359+973651391+985850047+995695231
715+1003605887+1010231999+1016216127+1021744767+1026559295+1030468863
707+1033503231+1035595391+1036659455+1036994879+1037076671+1037011391
698+1036581183+1035454591+1032618815+1025322111+1008635967+976906495+928379967
688+871012287+822064127+797784511+802779711+829617919+866262207+903318207
679+936236671+963495871+984926207+1001117119+1012856895+1021135807+1027592255
669+1033872447+1039374719+1042416511+1043771391+1044979455+1046793727
660+1049361407+1052547327+1055849087+1058520895+1060253631+1061455295
652+1062749183+1064428287+1066308351+1067873343+1068636479+1068629183
643+1068446783+1068440447+1068117759+1067025919+1065801023+1065326463
635+1065267839+1064434751+1062127359+1058398655+1053881215+1050049215
626+1048570303+1049520447+1051026303+1051304831+1050265855+1048845055
618+1047611071+1046405695+1044866687+1042586559+1038590591+1031002367
609+1017132735+993439743+956304959+905173631+845693951+788433471+744023679
599+718937791+713567807+723081663+740584383+760527935+780543231+800656575
589+821002303+840842175+859093183+874940287+888406399+900182463+910390655
579+918327807+923801663+927619007+930523967+932493119+933181183+932464511
569+930395711+926870463+921458111+913411583+901517375+884137791+860046847
560+829357631+793659391+756079935+721638143+696480831+685397887+689463487
550+705983359+730627455+759065727+786510847+808014783+821251711+827594367
540+829420095+827929471+824293951+821136895+821409599+826237631+834192959
530+842216319+847368895+848390783+846415615+844080767+843174719+843737919
520+845243839+847721983+851592959+856713151+862320319+867799871+873096447
510+878797247+885669375+893486655+900844607+906766399+911533759+915666623
500+919212287+922310207+925519871+929403647+934056959+938963711+943535551
490+948084159+953599167+960102335+965899519+968896191+968718143+967181759
480+966682687+968504831+972227519+976453759+979778943+980347839+976027455
470+966763711+954549055+941342783+928840703+918112703+908897023+900303999
460+891274431+879926143+865038655+849007999+834705279+821837183+810052543
450+801273791+797822527+800865279+810291711+824578751+841422975+857719295
441+869681599+875231039+874844479+870264767+863942847+858459583+855291199
431+854517119+855713279+858716863+863530111+870044159+877971391+886883135
421+896807167+908045951+918035455+922995327+923832255+923822079+925936063
411+931225791+938412799+945564223+951244479+955028159+957988927+961860671
401+967545407+974342399+979356543+980045119+978609215+978034431+979272127
391+982813567+988638143+995132031+1000004351+1003247423+1007773119+1014309183
381+1020299839+1025253439+1032477055+1046671743+1065424575+1073741823
##END=
