##TITLE=LLE-01
##JCAMP-DX=4.24
##DATA TYPE=INFRARED SPECTRUM
##DATE=4/8/2021
##SAMPLING PROCEDURE=Diamant-ATR
##ORIGIN=Angelika Moesle
##XUNITS=1/CM
##YUNITS=TRANSMITTANCE
##RESOLUTION=4
##FIRSTX=3997.453
##LASTX=373.96442
##DELTAX=-1.4165319
##MAXY=0.94542646
##MINY=0.33518642
##XFACTOR=1
##YFACTOR=8.8049701e-010
##NPOINTS=2559
##FIRSTY=0.85073596
##XYDATA=(X++(Y..Y))
3997+966199718+966665252+967103302+967326287+967329807+967170049+966865695
3988+966469683+966169730+966137846+966260034+966238507+966046391+966002863
3978+966280410+966640070+966760498+966582191+966253061+965960486+965817245
3968+965744542+965563188+965285439+965080866+964976211+964935324+965108215
3958+965586069+966174874+966735857+967307062+967616493+967087461+965729513
3948+964537552+964421050+965190396+966018433+966395490+966492428+966690976
3938+967085431+967607286+968167795+968453262+968012098+966972923+966169323
3928+966102441+966506238+966919783+967160639+967316674+967492815+967656906
3918+967659885+967428099+967157187+967078797+967152922+967262180+967501886
3908+967960447+968285109+967852881+966646568+965673395+965643271+966007128
3898+966160929+966371459+966997360+967667466+967489227+966253535+965232434
3888+965285574+965609018+965270478+964882928+965501384+966515444+966801859
3878+966818783+967504865+968448388+968763640+968400190+967647700+966421282
3869+965427055+965810544+967138368+967853355+967265904+966370240+966281831
3859+967302459+969271551+971421049+971714097+968345696+964674159+964253100
3849+966028113+968221477+969722057+970016256+969323540+968514661+968241311
3839+968154392+967521991+966623823+966346479+966819934+967561863+968261416
3829+968799315+968798909+968022523+967076698+966707629+966742559+966617392
3819+966672834+967281947+967842185+967856943+967785119+968110526+968752403
3809+969356643+969520598+969320426+969485803+970122739+970134789+968779142
3799+967342804+967046439+967553672+968141597+968536729+968750372+968784287
3789+968795998+969059668+969501915+969757258+969945719+970623745+971687832
3779+972178887+971563748+970532019+970007050+970348229+971227781+971672195
3769+971015154+969941048+969281164+968892327+968732366+969238516+970214262
3759+970600187+969879581+968938427+968553111+968533683+968411292+968077491
3750+968082433+968890026+970010705+970211960+968666161+966896970+966689013
3740+967722028+968875268+969362058+969137922+968583709+967933437+967513597
3730+967687978+968420701+969313454+969980987+970297797+970227869+969794490
3720+969346421+969309866+969743583+970422625+970945631+970627942+969162225
3710+967793378+967754454+968561167+969419125+970056940+970357503+970304499
3700+970294751+970731650+971500860+972250236+972820629+973246020+973349457
3690+972519592+970686091+969266068+969174613+969839371+970481993+970856478
3680+971252828+972011952+972723149+972063062+969898333+968360250+968241243
3670+968691817+969086610+969361381+969400035+969145978+968948581+969329903
3660+970510492+972233245+973794073+974389241+974130175+973951191+974109393
3650+973640948+971441018+968940052+968479798+969747374+971291211+972120805
3640+972124799+971904251+971988598+972269665+972386167+972451762+972865442
3631+973281356+972464692+970542173+969677175+970409763+971865530+973354669
3621+974323307+974258388+973487012+973043817+973197754+973507929+973655773
3611+973465756+972666286+971448329+970794876+971257364+972261947+973031158
3601+973387839+973657669+973961210+973960330+973441047+972843848+972839177
3591+973449373+974017532+973853035+973053836+972483443+972451830+972564338
3581+972526632+972438291+972520404+972745149+972874987+972836605+972858267
3571+973179070+973686777+973784867+972878778+971578776+971154062+971709291
3561+972398216+972501247+971990493+971339342+971011092+971199079+971808937
3551+972598862+973323733+973666131+973349998+972692619+972485203+972851430
3541+973191661+973297874+973524040+973966355+974194079+973947671+973515714
3531+973283590+973387298+973786491+974295688+974516371+974055238+973007397
3521+972045055+971792555+972235614+972829700+973078070+973009631+973054309
3512+973417693+973804024+973977660+974234628+974770428+975039378+974390460
3502+973123967+972174689+971927064+972107198+972394493+972644285+972802622
3492+972897936+972991489+973040771+972967187+972866864+972899966+972974430
3482+972809256+972357600+971934984+971874668+972247732+972877221+973473473
3472+973799015+973777420+973488839+973121191+972911271+972994265+973229502
3462+973308163+973168916+973166614+973605544+974227926+974439200+974000947
3452+973269713+972762953+972736214+973140281+973721505+974150551+974237200
3442+974048604+973768417+973506372+973317708+973297738+973463115+973625040
3432+973618135+973555518+973582461+973528576+973176227+972749143+972740411
3422+973274384+973949567+974325473+974336237+974183112+974047114+973961143
3412+973849988+973700722+973697270+974026535+974526593+974762576+974581561
3403+974366564+974506014+974847667+975000453+974961258+975029291+975236300
3393+975304062+975085613+974720876+974423292+974323578+974450572+974740913
3383+975096986+975453125+975783677+976020201+975978095+975553245+975079520
3373+975160415+975942894+976855278+977237141+976991073+976504012+976129933
3363+975897200+975700006+975577412+975591899+975565769+975279286+974863169
3353+974651354+974674167+974657311+974561050+974786946+975609093+976640145
3343+977216765+977144265+976716978+976252121+975953860+975954469+976163983
3333+976302621+976210760+975921841+975493471+974991856+974561659+974343209
3323+974383623+974658936+975088930+975549522+975947294+976247654+976407344
3313+976401252+976370925+976573669+977066687+977534049+977544474+976997097
3303+976296123+976021758+976333558+976843093+977156517+977228680+977108590
3293+976823123+976596685+976679408+976942603+977051117+976904085+976600950
3284+976244201+976036041+976283735+977047936+977906909+978271443+978001410
3274+977586173+977575951+977974536+978362356+978440882+978265824+978084810
3264+978058680+978089887+977930264+977492078+976987823+976742973+976936172
3254+977517396+978263726+978855171+978984264+978573292+977925390+977511777
3244+977551988+977873739+978175588+978354165+978591366+979096840+979731068
3234+980075903+979955881+979632099+979418455+979354213+979290242+979101714
3224+978867288+978911425+979471257+980294488+980873409+981054762+981056319
3214+980993499+980778434+980402528+980029194+979849262+979957031+980283656
3204+980623414+980772680+980628153+980185974+979592904+979185316+979253755
3194+979713400+980147456+980224018+980009021+979831526+979912624+980218941
3184+980618608+981017801+981322561+981413678+981240990+980893582+980545904
3174+980391697+980628356+981357695+982406212+983365373+983926762+984117389
3165+984172357+984306053+984616770+985058137+985443859+985542625+985204830
3155+984463171+983579828+982954468+982896183+983427313+984217847+984708496
3145+984481720+983590253+982440059+981415438+980743233+980561948+980867181
3135+981418822+981855248+981946974+981790532+981742672+982061580+982566444
3125+982744954+982258503+981282554+980360354+979983297+980289614+981057876
3115+981893292+982402895+982326129+981712684+980955387+980429605+980123966
3105+979785494+979288144+978671313+978061184+977741126+978001072+978756405
3095+979596491+980238098+980644196+980825076+980891078+981113927+981614121
3085+982164408+982518381+982725187+982975656+983276896+983372751+982977213
3075+982099489+981136334+980600737+980744993+981422546+982225265+982700411
3065+982487851+981390594+979388805+976401590+971915285+965174352+956080095
3055+945630529+935103318+925120504+915908052+908078189+902551015+899787192
3046+899419815+900417291+901316203+900760365+898484076+895787879+894772735
3036+896989453+902529150+910030493+917537319+923583843+927577063+929471489
3026+929686824+929246541+929311392+930445001+932573378+935402865+938589304
3016+941736887+944525013+946861415+948930221+951068955+953428373+955740066
3006+957564225+958750365+959529729+960189207+960798118+961269473+961548374
2996+961630284+961477566+961103555+960729679+960662120+960935199+961218703
2986+961180929+960849430+960519488+960437510+960701856+961294588+961992381
2976+962435508+962542330+962690648+963243101+964077231+964816723+965319760
2966+965684903+965958456+966153551+966428796+966921407+967466414+967798996
2956+967959974+968197242+968528064+968682813+968457391+967965931+967551844
2946+967451995+967520164+967397163+966928448+966162622+965019874+963349314
2936+961255528+958988649+956627403+954230550+952144279+950831957+950503707
2927+951041403+952114223+953306861+954355853+955335254+956486057+957861132
2917+959242164+960384438+961262501+962048364+962864825+963622325+964158667
2907+964483870+964761417+965050539+965192494+964996113+964475273+963854652
2897+963365560+963139935+963308494+964009536+965177128+966474692+967556177
2887+968276918+968663317+968879939+969198644+969779326+970520714+971255468
2877+971954683+972605158+973080778+973300108+973351826+973364485+973417219
2867+973613532+974012658+974422818+974508451+974190626+973714329+973285892
2857+972904028+972596899+972539156+972793348+973138995+973347561+973558023
2847+974155154+975200016+976184089+976528450+976229173+975825647+975817592
2837+976290098+977016119+977693536+978090834+978168344+978115204+978116152
2827+978091376+977850317+977474545+977312214+977570130+978063689+978393090
2817+978320454+977958154+977534523+977049560+976392316+975712868+975347251
2808+975399918+975678750+975995831+976338025+976804778+977470010+978230014
2798+978788898+978892944+978604093+978293037+978339746+978805483+979407354
2788+979820830+979921018+979737769+979366466+978985618+978788898+978866611
2778+979228167+979827194+980485859+980994718+981373670+981795880+982243610
2768+982512966+982546204+982498818+982509039+982593860+982720178+982850287
2758+982951557+982996032+982946209+982783405+982541194+982251733+981929779
2748+981683778+981738746+982259383+983154369+984078735+984677221+984902981
2738+985025847+985263927+985555148+985765475+985895177+985938095+985761955
2728+985345296+984971082+984933444+985156429+985361881+985505867+985735757
2718+985989949+986015267+985779961+985568755+985628258+985905805+986164330
2708+986241704+986147203+985954545+985726821+985579315+985632929+985799525
2698+985794651+985509996+985201784+985155549+985351253+985613975+985916095
2689+986304186+986668314+986803973+986633045+986244954+985825790+985607815
2679+985718698+986023187+986233852+986211919+986075379+986026775+986150046
2669+986383998+986615241+986743387+986732488+986665606+986652541+986624786
2659+986377228+985866339+985276180+984753512+984287843+983852704+983483702
2649+983233572+983164591+983323267+983628704+983877074+983941113+983897450
2639+983897585+984007250+984233958+984556657+984831632+984866156+984738620
2629+984843613+985441964+986336341+987131952+987631062+987846736+987854995
2619+987849241+988148653+988857142+989609158+989916355+989723358+989451295
2609+989564141+990166553+990957223+991569247+991976970+992425851+992994077
2599+993476534+993680159+993563251+993155325+992613229+992291342+992430116
2589+992756470+992698727+992104303+991469736+991347413+991782213+992414546
2580+992883329+993064682+993108007+993272030+993683679+994244933+994698417
2570+994788247+994478681+993973885+993496843+993200342+993228367+993607184
2560+994198562+994917814+995758781+996540176+996879392+996419951+995105937
2550+993479107+992474049+992497336+992987308+993198243+992977357+992577012
2540+992235495+992085890+992090426+992069305+992012306+992202257+992872972
2530+993863949+994744923+995249787+995450975+995468711+995275579+994954166
2520+994823516+995022876+995229005+995069449+994643585+994401036+994556936
2510+994825615+994793257+994430415+994106498+994148333+994485180+994767127
2500+994841184+994991872+995531328+996252002+996569420+996186676+995408801
2490+994858446+995022267+995923143+997057090+997762059+997823187+997640277
2480+997664173+997809106+997672093+997218135+996845207+996803033+996974638
2470+997268838+997813777+998649667+999466805+999800335+999491310+998914081
2461+998602822+998605665+998458362+997918636+997402060+997419661+997835372
2451+997999395+997484377+996459823+995470335+995024771+995233676+995706182
2441+995968972+996016222+996193581+996596633+996933819+996992442+996923258
2431+996993187+997253471+997537381+997713522+997801931+997789949+997557554
2421+997169192+997005778+997317578+997868745+998304832+998605801+998878744
2411+999019954+998954156+998894855+998960993+998848146+998344974+997885262
2401+998066954+998801302+999408655+999506880+999394304+999512363+999860853
2391+1000123575+1000192420+1000311833+1000712042+1001298884+1001789126
2383+1002046771+1002152509+1002177894+1002068771+1001857836+1001779310
2374+1001946854+1002136939+1002181618+1002248093+1002419563+1002476426
2366+1002428160+1002681743+1003400183+1004260172+1004903674+1005141213
2357+1004918296+1004467993+1004092154+1003711645+1003182817+1002819433
2349+1003074641+1003998804+1005106960+1005694614+1005502227+1004984975
2340+1004772279+1005090646+1005680669+1006162720+1006383607+1006368985
2332+1006145797+1005732320+1005133835+1004277298+1003069429+1001581711
2323+1000158370+999271574+999108025+999327964+999392476+999053192+998443876
2313+997837402+997413839+997207575+997218676+997520255+998154144+998914148
2303+999403172+999418674+999190476+999136592+999411431+999761613+999849007
2293+999669143+999531317+999646262+999957385+1000410870+1001089573+1001973864
2283+1002871220+1003665139+1004369024+1004919176+1005203221+1005272743
2275+1005289193+1005325003+1005407793+1005644182+1006127587+1006794173
2266+1007504693+1008240191+1009162594+1010500369+1012330621+1014336606
2258+1015736389+1015668898+1013910877+1011260306+1009093681+1008373955
2249+1008889989+1009515146+1009374477+1008617316+1007917357+1007693018
2241+1008153204+1009432221+1011075026+1012011374+1011723064+1010928062
2232+1010652885+1011260441+1012608641+1014284820+1015534322+1015824527
2224+1015542851+1015491336+1015895810+1016343472+1016306849+1015560520
2215+1014461028+1013722754+1013616406+1013682950+1013385298+1012617103
2207+1011548684+1010411825+1009559283+1009546692+1010913914+1013565433
2198+1016356943+1017844323+1017692688+1016888547+1016401960+1016164150
2190+1015678308+1015170262+1015484363+1016866275+1018406524+1018881603
2181+1017809731+1015564987+1012917192+1010701218+1009512438+1009282142
2173+1009357825+1009212756+1008860068+1008765161+1009752550+1012376382
2164+1015631260+1017249087+1016417936+1015239581+1016278486+1019515696
2156+1022818366+1024169680+1022872860+1020096513+1018258747+1018780806
2147+1020597722+1021491828+1020690463+1019333598+1018542184+1018188481
2139+1017799780+1017514787+1017620390+1017976394+1018343027+1018663018
2130+1018832186+1018688877+1018280207+1017810340+1017403633+1017139693
2122+1017138677+1017399097+1017654440+1017613824+1017312922+1017005929
2113+1016679574+1016028829+1015111300+1014598719+1014937258+1015612373
2105+1015853230+1015752839+1015981781+1016643019+1017199196+1017321858
2096+1017101716+1016655408+1016172747+1016029912+1016363983+1016866005
2088+1017266213+1017644421+1018114288+1018590247+1019019564+1019497283
2079+1019921320+1019821132+1018926146+1017783195+1017290177+1017643948
2071+1018284133+1018804905+1019260759+1019565045+1019264550+1018181237
2062+1016921108+1016371498+1016723440+1017327206+1017651868+1017884736
2054+1018293813+1018708305+1019097209+1019905479+1021293348+1022632003
2045+1023283900+1023333858+1023233941+1023267992+1023372512+1023194002
2037+1022499255+1021637168+1021305669+1021733835+1022377337+1022575614
2028+1022265777+1022047328+1022612778+1023797700+1024292342+1023101193
2020+1021205820+1020597383+1021768766+1023519747+1025045577+1026383555
2011+1027158723+1026907238+1026364871+1026714986+1027658171+1027607671
2003+1025856487+1023650329+1022809227+1023614248+1024632167+1024712047
1994+1024190259+1023882453+1023968763+1024230199+1024574898+1025066427
1986+1025844167+1026787148+1027229598+1026763591+1026190355+1026688856
1977+1028183276+1029528836+1030040267+1029923088+1029851467+1030658586
1969+1032587942+1034412101+1034240834+1031943966+1029642901+1029215344
1960+1030181206+1030432826+1028688885+1025475503+1022110757+1019623736
1952+1018400567+1018127624+1017895770+1016745644+1014575026+1012520774
1943+1012074059+1013560491+1015841925+1017889610+1019614326+1021060548
1935+1021899009+1021827253+1020915682+1019568091+1018432586+1018131414
1926+1018764221+1019831422+1020742113+1021335183+1021988772+1023261358
1918+1025265042+1027239211+1028240884+1028224231+1027859765+1027691612
1909+1027734124+1027717404+1027554667+1027454614+1027697705+1028375054
1901+1029241000+1029854378+1029955175+1029661246+1029230778+1028768493
1892+1028338093+1028152137+1028333557+1028627283+1028723477+1028655715
1884+1028604064+1028657949+1028857308+1029182918+1029447129+1029370973
1875+1028842416+1028065691+1027445070+1027291403+1027546543+1027714019
1867+1027356187+1026628134+1025902181+1025355075+1025031564+1024914047
1858+1024888052+1024850008+1024873904+1025114422+1025558835+1026037569
1850+1026438320+1026782071+1027139497+1027528537+1027835936+1027879261
1841+1027676584+1027488055+1027633260+1028298086+1029311131+1030263590
1833+1030930988+1031329099+1031469091+1031353130+1031106994+1030879608
1824+1030789304+1030910883+1031125339+1031160608+1030861060+1030308675
1816+1029644526+1028879444+1027962389+1026946365+1026006159+1025240401
1807+1024540983+1023797429+1023097199+1022627806+1022436232+1022369417
1799+1022324062+1022419037+1022754869+1023158327+1023229947+1022802119
1790+1022435419+1022768611+1023782333+1025107179+1026364668+1027321257
1782+1027938967+1028287187+1028463531+1028563650+1028647456+1028645154
1773+1028235807+1027110524+1025691380+1024778455+1024611385+1024954325
1765+1025452013+1025847077+1026134711+1026612226+1027611462+1029197743
1756+1031111326+1032899404+1034330191+1035488238+1036514213+1037504174
1748+1038464960+1039251026+1039717372+1039898929+1039962832+1039996273
1740+1039958770+1039890331+1039970278+1040267456+1040534307+1040545071
1731+1040535458+1040596789+1040507974+1040162598+1039681021+1039202963
1723+1038798693+1038477077+1038172047+1037769333+1037207267+1036615145
1714+1036188129+1035977668+1035908010+1035923986+1036110010+1036603840
1706+1037373931+1038240012+1039121324+1039932505+1040394789+1040508990
1697+1040750049+1041316786+1042038137+1042850875+1043841378+1044892603
1689+1045651795+1046031831+1046457899+1047464310+1048851908+1049956747
1680+1050721016+1051351115+1051994076+1052621873+1053042525+1053241750
1672+1053411391+1053612647+1053731992+1053712360+1053647306+1053712360
1663+1054081701+1054730754+1055475324+1056266061+1057135391+1058129347
1655+1059332140+1060377069+1060531818+1060345321+1060560182+1061532273
1646+1063115643+1064435885+1065115807+1065434850+1065668396+1065964964
1638+1066516538+1067551516+1068760334+1069558314+1069949655+1069972942
1629+1069354013+1067798465+1065296483+1062076400+1058793090+1056569738
1621+1055779136+1055629125+1054987383+1053404351+1052161213+1052540030
1612+1054479879+1057422551+1060577106+1063118080+1064803736+1065947905
1604+1066801598+1067368471+1067504198+1066820147+1064679382+1060423643
1595+1053723868+1044995769+1035161274+1024555741+1011528375+990781827+953408944
1585+891401287+804944270+707334208+620377066+560646273+534917017+546908320
1575+587584652+631357625+668636954+705986211+746121563+779610823+798331619
1565+805336220+807844430+811869467+821586986+842489841+873274712+897273634
1555+913799848+928914635+943296226+956448622+968208006+977736387+984723795
1545+989981274+993899218+996147955+996671503+995749304+994084226+991207218
1536+983929063+967438321+941091151+912008995+883156255+848967375+805278409
1526+758109889+716107798+677496584+639584381+613527077+610880027+630134660
1516+660927790+691766343+718364862+741182789+760716797+779129516+800849780
1506+822692637+837175025+845812684+850408655+850629067+846961931+843036946
1496+844093858+851280016+862197214+875476944+890474891+904679663+915477516
1486+923354089+929622041+934955676+939815384+944395988+948703309+952886954
1476+956962422+960547310+963279521+965113089+966313648+967403255+968833095
1466+970865684+973578534+976657610+979602990+982272922+984806178+987126875
1456+988873118+990275879+991739431+993207856+994391762+994958160+994889518
1446+994745261+995177287+996509105+998813351+1001804019+1004996144+1008182990
1436+1011237560+1013681867+1015327922+1016371159+1016741582+1016190821
1428+1014574213+1011368617+1005625160+997260444+987318518+975959411+962325437
1418+947437967+932835490+916661828+897562283+880011989+873607024+884715052
1408+910036044+940927805+969694911+991457078+1005553742+1014662419+1021400508
1398+1026902026+1031522231+1035437061+1038445532+1040220206+1040769342
1390+1040140327+1038124119+1034740757+1030869116+1027358353+1023579995
1381+1017256736+1005284725+984308625+950260820+900340931+840395717+783711541
1371+732067072+673469855+605917491+549313533+525971957+541132100+584184637
1361+636268848+683599632+724060188+759279105+789489861+814568778+835098366
1351+852128699+866722241+879500829+890638711+900315749+908822285+916443988
1341+923582015+930722818+937989059+944403637+946804484+939552188+918099182
1332+886072188+857412783+846634222+856321347+876937584+897451535+912934308
1322+923610786+930995220+936139244+939763665+942545089+944966515+947174095
1312+949112048+950474057+950398307+947681937+941550592+932046784+919820107
1302+906089330+893045379+884038583+882533873+889778790+903388259+918935748
1292+932902846+944009859+952613672+959555995+965377774+970238023+974273213
1282+977743089+980829476+983479031+985542490+987041039+988208089+989269603
1272+990308440+991326495+992265280+993044915+993753675+994689887+996082833
1262+997848978+999697439+1001455867+1003256400+1005319926+1007608671+1009827759
1252+1011729427+1013312594+1014748797+1016152574+1017459278+1018584086
1244+1019517117+1019968909+1018787779+1013814819+1003054874+987304843+971728178
1234+963127141+964261359+970634508+972768436+962384196+938887159+911524913
1224+893837606+893822172+908979674+930311372+949785335+964281870+974538034
1214+982261143+988523950+993740610+998017131+1001282366+1003406072+1004517952
1204+1005296639+1006753150+1009559418+1013675571+1018577182+1023573970
1196+1027961103+1031236425+1033276055+1034165558+1033876639+1032104469
1187+1028139342+1020665754+1007658833+986208196+952412755+903195939+840608616
1177+773669969+713269104+665789257+634183186+622897867+636114573+670944721
1167+716889261+763105255+803995738+838481999+867117102+890695913+910041933
1157+926015829+939482666+951196153+961701498+971260613+979800928+987071366
1147+992914536+997298691+1000149434+1001309241+1000648274+998069255+993237303
1137+985115203+971494294+948761256+912678695+861092781+797622588+733031310
1128+681739866+654890946+654657265+674012492+702102317+730716570+756792625
1118+780437776+802081004+821554358+838711482+853911159+867677204+880182782
1108+891281807+900907533+909222358+916419280+922496605+927256937+930569288
1098+932583194+933540120+933607070+933350103+934167241+937522306+943527876
1088+950631988+956842062+960780450+960794530+953557195+936343884+912815370
1078+894135190+890204587+900060406+914019719+924613000+932063640+939692180
1068+948275820+956200590+962306009+966723266+969991277+972541660+974742064
1058+976820686+978725943+980262807+981360402+982104701+982596027+982966179
1048+983464816+984316884+985541000+987036165+988719384+990485326+992207063
1038+993820083+995283634+996504434+997413974+998056461+998571615+999130905
1028+999839462+1000679684+1001620906+1002713763+1003970982+1005228810
1020+1006254176+1006983243+1007624376+1008466697+1009557591+1010610711
1011+1011303969+1011674933+1012149877+1013103960+1014484451+1016012650
1003+1017564136+1019043866+1019678839+1017335871+1009335621+995834598+982636982
993+978031128+985064162+997601285+1003525891+990778307+953820594+899916014
983+849088683+822773329+829145395+859037649+895194945+924464072+942741674
973+952308032+957360803+961396942+966143126+971456250+976376882+980507928
963+984354116+988568832+993186870+997695380+1001696723+1005163214+1008050580
953+1010160950+1011516190+1012466415+1013331549+1014145099+1014741757
945+1015018897+1015129374+1015361769+1015820804+1016323367+1016606397
936+1016593196+1016459568+1016418207+1016498357+1016636859+1016857814
928+1017270749+1018021614+1019225625+1020769936+1022232742+1023140252
919+1023292497+1022837117+1022057482+1021076253+1019792362+1017973551
911+1015101281+1010154316+1002122656+991393580+980774440+974370761+974399057
901+979049860+984271732+987824465+990976380+996084593+1003202719+1009267047
891+1008931012+995198339+963058837+916881429+870911842+836986699+815398981
881+803040774+803835099+822830328+855326241+890032576+919765884+943768597
871+963005359+977900749+989117494+997679472+1004398945+1009778003+1014153290
861+1017761668+1020777450+1023302719+1025340047+1026880499+1028021284
853+1028865702+1029371244+1029555575+1029722306+1030090699+1030287215
844+1029391484+1026134778+1018564929+1003542206+977411116+938546725+889852577
834+838308431+792009105+757699323+739494357+737807956+749590152+770464440
824+795641040+817492292+823824690+803189972+755248247+692902795+629387247
815+565908254+498108671+432357417+387711694+380678660+412344438+469903630
805+536688001+600482992+655862833+702212659+740878841+773279711+800254950
795+822420709+840626961+855812353+868745962+880065265+890209867+899273257
785+907210077+914161200+920409047+926028285+930741773+934298635+936977299
775+939446721+942050379+944469368+946259274+947624871+949398733+952119368
765+955380203+958250239+960070742+960800961+960973920+961412985+962744329
755+965055684+967900538+970358519+970886940+967493154+959332197+948960209
745+941738715+941423665+946952260+954421448+960982856+966024864+969998723
735+973393390+976560537+979725517+982826526+985458819+986196078+980709860
725+963077182+934110851+907371122+900047409+915997815+942863320+966523297
715+981901551+990450395+994722516+996750096+997926217+998815856+999420705
705+999632588+999494492+999252417+999176328+999405812+999988051+1000956621
696+1002424437+1004510234+1006991976+1009304075+1011156395+1012819238
687+1014543209+1016087791+1017180783+1018216506+1020046216+1022929588
679+1026031680+1028268300+1029456809+1030300687+1031052297+1030047171
670+1023857000+1011845252+1003417919+1006236575+1014600276+1021874030
662+1026265022+1029302805+1032736531+1036579876+1040071414+1042936508
653+1045217874+1047003447+1048757001+1051229536+1054677072+1058495370
645+1061899650+1064744030+1067431968+1070185434+1072616879+1073741823
636+1070701739+1053826561+1002824104+898531462+750738857+610046236+536815368
626+553054897+628207064+710401438+764055954+782354879+782037258+789013157
616+816640901+855725976+889455956+911377813+925381060+936358573+945997161
606+954288158+961180658+966676963+970811732+974095516+977383564+981034590
596+984774565+988287359+991312889+993581325+995170382+996433828+997294697
586+996952773+994320818+989093327+983007337+979592159+981511022+988022336
577+995599834+1000954793+1003412910+1004371123+1005117791+1005954493+1006663388
567+1006841965+1005995651+1003886431+1000810131+997222264+992629137+984197674
557+965949520+930681051+877037027+816793145+769541022+744578404+732740834
547+722857666+719840463+736473092+773639371+819151480+860803456+893374509
537+916727424+932715062+943874267+952629647+960520706+967913603+974415371
527+979490821+982869106+985002695+986992231+989570369+992442571+994743704
517+995996252+996633188+997625248+999661020+1002752078+1006505592+1010245906
507+1012924909+1013995698+1014219901+1014483774+1014631009+1014555124
499+1015098167+1016748758+1018738700+1020018461+1020433224+1020649372
490+1021302622+1022340579+1023094830+1023049068+1022635185+1023044939
482+1024941192+1027678683+1029978732+1031157764+1031554115+1031573814
473+1030756269+1028421154+1024046612+1014344120+991234025+947565639+887631188
463+829892808+796610829+799792868+836286198+889034897+934652609+962808977
453+978450156+987595320+992523263+994677093+995835952+997236751+999070251
443+1000033812+998010158+992526106+984392160+971303599+945274931+897879904
433+832922941+772939344+748018358+771499283+827365779+887144262+931701069
424+957364527+971011295+980366176+987500142+990233300+989481960+987996409
414+986284487+984383089+983499881+985393088+990390215+995812530+997910038
404+996789156+996984251+1002339413+1012152314+1021128783+1024944171+1026014959
394+1027143017+1026841168+1022560180+1014703780+1007170486+1004195930
385+1006623651+1010307373+1011025745+1010089194+1010748334+1013735616
377+1017240422+1019163414+1020445883
##END=
