##TITLE=X9218
##JCAMP-DX=4.24
##DATA TYPE=INFRARED SPECTRUM
##DATE=2/11/2018
##SAMPLING PROCEDURE=ATR platinum Diamond 1 Refl
##ORIGIN=ComPlat
##XUNITS=1/CM
##YUNITS=TRANSMITTANCE
##RESOLUTION=4
##FIRSTX=3997.453
##LASTX=373.96442
##DELTAX=-1.4165319
##MAXY=0.99144185
##MINY=0.39391029
##XFACTOR=1
##YFACTOR=9.2335217e-010
##NPOINTS=2559
##FIRSTY=0.89563531
##XYDATA=(X++(Y..Y))
3997+969982345+969538612+969050854+968780508+968886503+969196290+969342437
3988+969215333+969105788+969300801+969677787+969809022+969448174+968774827
3978+968105741+967564340+967180963+967068835+967278824+967655746+968024276
3968+968368470+968720797+969047755+969336627+969618334+969795337+969685985
3958+969357801+969145488+969168662+969125993+968796194+968450129+968522492
3948+969007216+969448755+969501236+969241348+968932658+968648692+968249629
3938+967674337+967032428+966451197+965965828+965564828+965283250+965201462
3928+965347157+965681151+966145477+966618130+966876404+966748849+966319575
3918+965970604+966138570+966822761+967534775+967872320+967827262+967492687
3908+966760920+965540750+964195606+963566348+964176756+965478844+966461526
3898+966728708+966620454+966554998+966643951+966784417+966838964+966810948
3888+966871950+967075613+967178381+967001184+966832767+966990727+967364937
3878+967622695+967591710+967140618+966139474+964951709+964476280+965191973
3869+966284975+966488380+965491819+963913576+962855432+962991380+963902989
3859+964790069+965251490+965290222+964878183+964062950+963629158+964071665
3849+965095273+966303760+967237446+967283795+966146445+964489448+963465388
3839+963532136+964205676+964974625+965847180+966850002+967766970+968372795
3829+968572585+968299463+967535420+966459266+965402737+964730746+964633465
3819+964815374+965026718+965491173+966283167+966970005+967246225+967213497
3809+967093946+966996988+966753109+966093835+965096952+964246215+964073085
3799+964576659+965485299+966664027+967765743+968401004+968675739+968968872
3789+969392142+969734464+969838587+969711354+969256841+968349814+967327626
3779+967005897+967763742+968941050+969721231+969889196+969672300+969348440
3769+968953121+968383769+967806992+967544651+967560144+967546588+967522897
3759+967889942+968676966+969143357+968650628+967288765+965677988+964519401
3750+963890660+963425301+963357844+964260933+965860672+966806817+966611481
3740+965746026+964541994+963320468+962760217+963338607+964580919+965746930
3730+966504130+966723157+966362631+965730211+965572316+966481343+968280291
3720+970122941+971095617+970797191+969506981+967962435+966947089+966818049
3710+967261847+967856440+968478403+969002310+969222563+969050337+968706402
3700+968532949+968495767+968333095+968016788+967607784+966849680+965498532
3690+964200705+964236403+965588777+967145201+968430827+969359350+969710257
3680+969330624+968309985+966840836+965490528+965261367+966024764+966712828
3670+966991437+967460152+968557802+969913597+971084320+971877928+972181002
3660+971952486+971364091+970673379+969894941+968874755+967688087+966563712
3650+965654620+965186809+965529905+966618582+968001037+969356897+970487017
3640+971131379+971060565+970357847+969431132+968712922+968330448+968018725
3631+967462347+966900999+967108019+968026471+968907354+969469024+969735820
3621+969687793+969347020+968984687+968878370+969087713+969585735+970118358
3611+970108868+969260585+968157900+967680663+967780849+967770262+967474999
3601+967364227+967703902+968178685+968597502+969155235+969791399+970021142
3591+969543582+968462910+967237446+966661445+967056764+967865412+968477628
3581+968605119+968201214+967536260+967189871+967627537+968717505+969777714
3571+970154636+969657905+968546247+967377460+966696884+966592632+966823149
3561+967196907+967659426+968163645+968517263+968509840+968215480+967974312
3551+967949912+967889555+967526060+967017129+966837156+967172829+967659296
3541+967912665+967951074+968023953+968247821+968473561+968458198+968115553
3531+967576153+967099756+966964325+967320461+968015884+968592467+968648369
3521+968309598+968113939+968348200+968713180+968698849+968180428+967566664
3512+967365066+967616498+967865025+967809897+967679824+967747088+967895107
3502+967910599+967857666+967856375+967855471+967867026+968101545+968624807
3492+969106821+969160012+968757205+968150863+967538325+967025585+966796553
3482+967045015+967706032+968399326+968743713+968731254+968676062+968691748
3472+968459618+967786336+967021066+966608576+966611739+966905130+967430910
3462+968048225+968503062+968710533+968811429+968881533+968789029+968399778
3452+967809316+967307227+967140811+967281794+967390242+967146621+966657378
3442+966337650+966433316+966854005+967402184+967897560+968168615+968190886
3432+968169648+968295074+968505708+968624033+968597244+968459166+968153058
3422+967587385+966881246+966378705+966354433+966786160+967381527+967784270
3412+967856246+967738115+967622824+967666397+968010655+968549475+968816851
3403+968504482+967852050+967243450+966808883+966619227+966792551+967240157
3393+967663363+967888974+967981542+968004588+967868188+967535808+967240416
3383+967247194+967440464+967433686+967080003+966622971+966378189+966461074
3373+966798812+967229377+967562532+967659426+967535356+967345765+967249195
3363+967328723+967570666+967852373+968091475+968431537+969013155+969576440
3353+969638345+969068993+968215610+967532515+967252745+967329111+967570279
3343+967779429+967777815+967518572+967241255+967247323+967482294+967629667
3333+967554722+967375072+967205816+967090267+967107308+967383270+967951719
3323+968610283+969030842+969066475+968882049+968783348+968945633+969231536
3313+969307902+969050079+968684777+968399132+968048612+967428199+966670095
3303+966214290+966367667+966922753+967320267+967222406+966781900+966363729
3293+966198475+966336810+966751818+967339310+967839914+967987933+967867607
3284+967864509+968124784+968368663+968369761+968261248+968244916+968277644
3274+968208509+968095284+968164290+968426309+968602279+968559674+968524880
3264+968722798+969098300+969439524+969512791+969181766+968606216+968171714
3254+968148152+968522750+969067508+969474382+969573406+969455017+969288536
3244+969122378+968932271+968702980+968454647+968265896+968190886+968151444
3234+968079856+968070431+968188497+968264217+968118845+967865154+967728690
3224+967689765+967584416+967487200+967645353+968037445+968358270+968462781
3214+968493508+968570261+968649015+968695622+968770954+968898187+968945698
3204+968716859+968208896+967716167+967522187+967530321+967427489+967204008
3194+967231830+967751929+968523008+969078999+969219852+969163046+969256130
3184+969593804+969955944+970104479+970026564+969894748+969911725+970124167
3174+970265473+969981700+969334949+968806716+968702593+968875400+969052338
3165+969071059+968832795+968362660+967895300+967692347+967813900+968159320
3155+968644109+969221595+969756283+970013718+969918439+969743308+969833875
3145+970127847+970136432+969505884+968525978+967916280+968082761+968728801
3135+969245867+969301640+968967129+968496348+968139115+968028149+968090636
3125+968121169+967996712+967783366+967632895+967611076+967616498+967495914
3115+967297996+967314716+967692606+968088441+967972634+967239576+966308601
3105+965686315+965620085+966027088+966571007+966937665+967112473+967213110
3095+967161016+966841094+966443193+966259799+966268708+966239401+966091963
3085+965834915+965279312+964084446+961898442+958035817+951307128+941312472
3075+930445455+923517234+924020679+930901066+939802332+947042600+951659133
3065+954449993+956338346+957720091+958713102+959528528+960367452+961102446
3055+961415073+961221222+960735659+960263393+960062054+960218077+960605198
3046+961068427+961523973+961847639+961891922+961667861+961289196+960643930
3036+959274514+956853926+953900781+951739565+951367226+952435118+953592479
3026+953668586+952431567+950545474+949090655+948995053+950504225+952986718
3016+955395106+957034932+957851714+958128708+958206300+958374589+958730466
3006+959091766+959108356+958378333+956320659+951958721+944467280+934916938
2996+927218671+925666056+930863174+939175205+946431869+951018708+953527345
2986+955012568+956172253+957331421+958500530+959487537+960068058+960033651
2976+959167099+957211095+953852108+949090397+943913807+939884185+937291177
2966+934664603+931375462+929630222+932105615+938360295+945222931+950129498
2956+952786283+954148017+955051364+955818441+956441372+956846503+957068692
2946+957253571+957511910+957787936+957944476+957973524+957985273+958007414
2936+957980689+957929435+957923883+957926530+957894770+957985983+958425198
2927+959184399+959980718+960590093+960992384+961240653+961382668+961508997
2917+961720794+962036778+962400402+962744725+963009971+963173095+963311495
2907+963578291+964040486+964575239+964984372+965153435+965048279+964708604
2897+964346207+964263128+964509782+964776642+964766249+964538379+964377256
2887+964445940+964684720+964961004+965208111+965449860+965718656+965928581
2877+965904825+965660430+965527968+965808513+966396780+966973104+967433363
2867+967859603+968161966+968065525+967478743+966667513+965984935+965489172
2857+964873923+963819652+962444685+961350198+961117487+961833115+963155601
2847+964646827+965934390+966787838+967193421+967250292+967071869+966900870
2837+967073289+967664396+968381703+968891345+969076546+969038911+969004505
2827+969109855+969220239+969127284+968870946+968669736+968627906+968662312
2817+968616868+968404490+968116909+967971020+968082696+968346328+968543149
2808+968541212+968423856+968414754+968615899+968869139+968940985+968800067
2798+968657084+968731384+968991659+969186995+969163950+969052855+969061311
2788+969219658+969420287+969589737+969737885+969886679+969988026+969923990
2778+969670815+969423709+969393175+969501817+969495685+969339597+969278401
2768+969464958+969740016+969869572+969848722+969831486+969858598+969847302
2758+969801534+969823030+969922699+970000743+969975632+969814896+969554363
2748+969384654+969529123+969941742+970304785+970377600+970175809+969834585
2738+969503947+969340307+969395499+969523829+969553136+969528671+969640992
2728+969926056+970176713+970175874+969937417+969691408+969675269+969950005
2718+970385476+970752133+970818429+970462616+969782556+968996823+968184495
2708+967275145+966328354+965571799+965101793+964810016+964681363+964899744
2698+965566764+966506842+967435880+968205410+968837895+969401696+969904560
2689+970282966+970457387+970400968+970210087+970102994+970244299+970553054
2679+970779891+970809521+970793447+970937012+971239117+971516176+971652124
2669+971716224+971798077+971840488+971734364+971488354+971214135+971043459
2659+971128216+971547678+972112512+972442310+972369431+972122776+972009938
2649+972077589+972190362+972253753+972221993+972040148+971764251+971648896
2639+971933895+972574062+973305893+973927404+974367393+974523417+974257590
2629+973648150+973083768+972913930+973064531+973163619+972999462+972680638
2619+972429077+972423719+972749193+973256898+973577530+973468049+973054848
2609+972662886+972559150+972823815+973266193+973590505+973798105+974175221
2599+974780723+975322641+975601313+975673612+975597311+975401007+975237173
2589+975261961+975441417+975611061+975620227+975418178+975111489+974878003
2580+974785177+974792600+974910731+975233042+975796520+976430683+976780493
2570+976607493+976077000+975621518+975532694+975796520+976207332+976511568
2560+976562499+976413642+976182027+975910262+975767859+976157820+977215706
2550+978333109+978674397+978173148+977534595+977254308+977146183+976897204
2540+976594582+976514021+976702256+976976926+977244754+977670284+978443558
2530+979430694+980207066+980459014+980249735+979903153+979698328+979656821
2520+979633066+979555474+979413975+979066166+978409797+977761174+977643559
2510+978077287+978455887+978266297+977654404+977142955+976996292+976992419
2500+976765452+976311907+976041238+976264654+976829295+977388900+977758269
2490+977842833+977578878+977113003+976727302+976540358+976540745+976799342
2480+977359335+978011250+978338854+977977360+976937420+975719380+974906794
2470+974662204+974833914+975344072+976126641+976836137+977010623+976574764
2461+975986885+975767342+975944474+976118379+975983464+975594987+975252472
2451+975309085+975861783+976452115+976390725+975544055+974497144+973884089
2441+973888156+974419423+975341813+976324301+976850791+976759320+976532934
2431+976683019+977063233+977124429+976628537+975847000+975256668+975210707
2421+975738746+976564952+977334159+977805586+977908741+977738000+977437121
2411+977049677+976569084+976123672+975997149+976423841+977344488+978334593
2401+978856306+978674785+978030939+977400648+977076079+976968728+976849371
2391+976738018+976838784+977116101+977269994+977169292+976955624+976690572
2381+976269173+975759532+975481633+975567165+975710213+975613837+975500224
2371+975822212+976521121+976955172+976734209+976303063+976309648+976650549
2361+976685730+976181124+975409205+974619858+974055928+974063674+974659235
2351+975430572+976086231+976646676+977145021+977427244+977213059+976392856
2342+975309601+974522642+974155080+973788810+973184341+972590135+972166478
2332+971729909+971196900+970723924+970377277+970175874+970362108+971263260
2322+972858609+974614048+975863203+976409768+976625374+976886682+977162644
2312+977328092+977535692+977964837+978493651+978852885+978877028+978557687
2302+978092973+977856905+978098460+978706803+979356910+979732412+979568901
2292+978795046+977790481+977214221+977363531+977875625+978180765+978070057
2282+977748263+977507547+977452290+977490247+977559447+977818432+978515534
2272+979645912+980778872+981336734+981165541+980758215+980765703+981374110
2262+982214518+982711056+982553031+982005562+981604175+981557503+981811259
2252+982459624+983418228+983987451+983523513+982323935+981288707+980870924
2242+980758861+980578243+980613553+981437371+982864239+983922318+984041546
2232+983666238+983464254+983439982+983145816+982564844+982335877+982863981
2223+983648616+983913216+983442951+982499001+981541688+981178193+981690998
2213+982690528+983673597+984493026+984968197+984684424+983472839+981707136
2203+980009342+978858888+978472800+978904785+980039746+981510380+983089010
2193+985090394+987592254+989443166+989266422+987378004+985449629+984387547
2183+983765197+983158211+982741912+982740040+983377043+984949089+987052983
2173+988472685+988541110+987790882+987032713+986854548+987842653+990041567
2163+992458863+993998116+994417643+994188610+994068156+994414028+994447918
2153+993020857+990243746+987635439+986651660+987378198+988567900+988979292
2143+988727990+988968125+990211728+991523627+991654152+990594330+989505911
2133+989199416+989315998+989169722+988627869+987898039+987187445+986860616
2123+987249480+988043411+988460484+988160509+987471799+986636361+985163468
2113+981956825+976243288+968870946+962575727+960195807+962403178+967525931
2104+973259996+978012606+981153276+982838030+983597425+983805413+983624667
2094+983382078+983621116+984651051+986091797+986957316+986466201+984897512
2084+983413451+982964230+983537198+984411496+984909196+984929917+984903257
2074+985264428+986053130+986963577+987494521+987122957+985828616+984595019
2064+984820049+986876884+989681817+991862657+992920026+993142732+992945201
2054+992611917+992257266+991742202+990981128+990451217+990843051+991955225
2044+992641288+992319688+991974268+992922737+994973956+996851334+998054979
2034+999022750+999699518+999444406+998312673+997285772+997284933+998346627
2024+999467064+999407999+998137800+996987992+996864051+996948228+995991302
2014+994396147+993719443+994335338+994879580+994183769+992715911+991481603
2004+990510218+989323357+988149406+987963882+989527859+992541038+995707723
1994+997688386+998057497+997395641+996531800+995985622+996258678+997725956
1985+999697775+1000610934+999872905+998528343+997526618+996583119+995376892
1975+994357931+993650824+992697384+991248440+989651477+988320083+987541516
1965+987476188+987879706+988085305+987607295+986717955+986182106+986475690
1955+987444945+988501540+989046427+988997561+988998012+989771480+991188664
1945+992339893+992521027+991783644+990612663+989540124+989157263+989856237
1935+991192279+991984467+991533633+990438436+989753341+989637663+989392686
1925+988643361+987829807+987469410+987405697+987135610+986590852+986355752
1915+986974358+988214927+989280623+989557876+989112335+988503283+988256369
1905+988542337+989079865+989365251+989274103+989264420+989759990+990639259
1895+991494256+992092011+992413289+992462736+992296449+992122287+992131453
1885+992281796+992383078+992291930+992026232+991768475+991693981+991685525
1875+991390843+990715430+990008258+989619975+989583116+989768640+990066937
1866+990333925+990415584+990243487+989795881+989106396+988414329+988096279
1856+988276445+988681189+988980648+989071021+988959152+988632968+988213894
1846+988054062+988418461+989019573+989392751+989579307+989864565+990300165
1836+990695613+990905215+990901600+990695290+990406611+990221281+990086819
1826+989827770+989531474+989445684+989597382+989805241+989850686+989507848
1816+988717403+987763511+987070283+986880434+987144518+987633890+988173097
1806+988691517+989049203+988967027+988261985+987164206+986182170+985536839
1796+984968003+984046000+982610225+981162055+980440682+980364381+980341142
1786+980052786+979539788+979030921+978789946+978976632+979422819+979643975
1776+979296941+978490617+977720441+977543180+977959737+978460212+978752377
1766+978779941+978366224+977221580+975364858+973418924+971914852+970703203
1756+969510338+968265250+966860847+965216115+963675571+962915143+963034824
1747+963465001+963797640+963975482+964015504+963905830+963704878+963474684
1737+963190395+963046830+963584875+964670970+965431850+965840596+966412272
1727+967266688+968133499+968835184+969349215+969570243+969305449+968667735
1717+968628293+970116485+972538106+974930743+976906370+978400760+979413588
1707+980002306+980367544+980709026+981008227+981185165+981347837+981721208
1697+982499066+983818969+985308969+986317214+986709822+986772050+986697750
1687+986254727+985087361+983720462+983645775+984784480+985987028+986741065
1677+986986364+986918778+986867072+986837377+986609636+986543599+987494715
1667+989221364+990547723+990970864+990937168+991245471+991916364+992242806
1657+991757952+990386536+988419300+987330945+988228160+989258288+989329683
1647+988877687+989021316+990131037+991465530+992468675+992862897+992482425
1638+991509296+990863126+991602510+993140601+994359416+994967048+995106094
1628+995055292+995011009+995021337+995225581+995722441+996183862+996195417
1618+995825273+995756138+996370290+997101346+997470909+997511964+997481173
1608+997564058+997778308+998068406+998356698+998558489+998676878+998825219
1598+999051476+999236870+999246940+999111445+998982211+998970204+999069550
1588+999167476+999125388+998905781+998618845+998402982+998225269+997859385
1578+997180939+996612168+996827127+997433856+997553020+997097150+996819639
1568+997380794+998348499+999067162+999356163+999105248+997937429+995833600
1558+994915536+996514177+998724840+1000599831+1001948138+1002648209+1002822630
1548+1002708049+1002322284+1001548364+1000350400+998769188+997423850+998190088
1538+1001067771+1003603133+1004888308+1005327652+1005613361+1005968335
1530+1006019332+1005572629+1004915420+1004385380+1003829131+1003073480
1521+1002619419+1002889764+1003474158+1004210378+1005414281+1006871553
1513+1007800592+1007652831+1006398513+1004498411+1003446465+1004956863
1504+1007515851+1009248439+1009882796+1009659573+1009142766+1009175559
1496+1010074968+1011067527+1011280485+1010545556+1009588501+1009752077
1487+1011327931+1013193368+1014503395+1015201466+1015600142+1015919741
1479+1016063047+1015773917+1014906203+1013665505+1012800695+1012911661
1470+1013273284+1012739177+1010828683+1007762764+1004753845+1003224985
1462+1003045336+1003173020+1003090329+1003308193+1004865779+1007398753
1453+1009940312+1012223016+1014224529+1015890047+1016874278+1015817102
1445+1010494366+1000158421+988005648+978998580+971342272+947861577+884084337
1435+787709660+698139005+640320860+619933002+627505327+643799075+660068616
1425+681114200+710057323+742462395+774726290+807432176+838063605+861478457
1415+878380805+892282111+904585291+914883602+922622408+927957668+931639159
1405+934355978+936238262+937126246+937102749+936578002+936117743+936224706
1395+937330619+939693884+942999422+946727777+950819757+955457141+960312905
1385+964509137+967579897+969739757+971350793+972611438+973578950+974350481
1375+975228588+976578831+978338402+979983005+981125389+981781952+982223233
1366+982733197+983397894+983972669+983920123+982734746+980173693+976241867
1356+971142030+965080878+957945702+949080198+937380389+921937184+903013117
1346+882464200+862817468+845444274+829851048+815429773+804091587+799919110
1336+805656726+820983220+843209661+868355358+892460663+912849296+928488289
1326+939404560+945968705+948776414+949068062+948924949+950515134+954756036
1316+960973470+967927706+974631219+980500780+985444787+989720419+993402491
1306+995918810+995840637+990961763+979081723+959469398+933809412+905674356
1296+879208497+858191833+845648453+843361876+851037227+865806957+883118052
1286+898968260+911579614+920797123+925940597+923477470+906636962+871315669
1276+826306151+793655973+791417165+814723053+836623117+828707114+782746351
1266+717686326+667936785+659159976+690983817+742730029+792854038+831225628
1256+857791350+876155360+889568068+899981927+908507498+915885456+922538361
1247+928598867+934054324+938817197+942781880+945898795+948188212+949715007
1237+950550896+950764177+950516619+950118459+949951591+950399779+951742728
1227+953956167+956709200+959574489+962061114+963627415+964132990+964279588
1217+965172220+967287733+970083951+972672052+974632639+976054407+977068655
1207+977737289+978331495+979322375+980945611+982952611+984925528+986706078
1197+988389412+990044020+991670419+993342586+995132561+996919631+998470439
1187+999675569+1000527403+1000865722+1000160874+997169643+989502748+974309877
1177+950790967+922354580+895547303+876567334+868828463+872614464+885314255
1167+902223640+918473299+930160714+933911276+928109237+916191047+905844193
1157+902072910+903011051+904936650+908604327+917224467+930468694+944216752
1147+955131925+962779519+968142278+972165057+975467367+978332076+980849815
1137+983133616+985286118+987316550+989206065+990944011+992533679+993985399
1128+995246561+996248608+997072297+997900054+998807403+999720755+1000501582
1118+1001069256+1001538681+1002100546+1002715666+1003165080+1003391079
1109+1003529221+1003684469+1003898590+1004277125+1005019866+1006279220
1101+1007969913+1009781771+1011393388+1012626146+1013522521+1014339109
1092+1015304750+1016415116+1017567894+1018667480+1019540229+1020069366
1084+1020393871+1020798873+1021547230+1022765722+1024254689+1025614615
1075+1026683474+1027590501+1028474805+1029396549+1030387236+1031524263
1067+1032912076+1034515494+1035967085+1034789261+1023077381+990972995+941289556
1057+896975268+882421853+897665850+920537170+932399651+932461686+929594847
1047+930653507+937589410+949177995+962830257+975950607+986262796+991242501
1037+987480772+970194207+933840462+875613571+801248052+727973339+678308427
1027+666416575+688964294+729060790+767862945+793242967+802013385+798352422
1017+790824961+788612620+797478640+817295920+843145561+869186665+891841863
1007+910225045+924861087+936516419+945815780+953292955+959343650+964161199
997+967906210+970832759+973216165+975348332+977532787+979912707+982427606
987+984964259+987435198+989806726+992107246+994333208+996501266+998804627
977+1001348058+1003799566+1005750729+1007285657+1008808643+1010532839
969+1012383558+1014172306+1015735702+1017019908+1018099548+1019140133
960+1020361982+1021944550+1023858659+1025697759+1026658686+1025706409
952+1021232214+1009918235+987109014+950853776+906224020+864103482+835145705
942+825037049+833599674+855710114+883408989+909629807+931059284+947528615
932+959605346+967628570+972506088+976294994+981297680+988459451+996912466
922+1005105656+1011951573+1016775642+1017821391+1009405882+981445892+927978647
912+860826025+809287543+796644558+816308525+837189694+833104105+803279969
902+767049648+745897166+750687216+778734416+818253555+856740113+887493352
892+909959218+926224047+938426010+948078215+955960972+962349083+967632120
882+972520548+977497929+982399267+986793417+990586003+994005669+997154795
873+999884654+1002122042+1004095281+1006156764+1008455541+1010814223+1012894232
863+1014480221+1015613375+1016395492+1016590763+1015343158+1011112972
854+1001881390+986062877+964070245+939051781+915574830+897449664+886812969
844+884566996+890646868+903669163+920938880+939288882+956159665+970271863
834+981659496+991045810+998992216+1005603291+1010882713+1015052608+1018551609
824+1021891036+1025295532+1028407929+1030758025+1032504298+1034207708
816+1036026925+1037664621+1038930559+1039950100+1040967899+1042159021
807+1043550126+1045088346+1046841784+1049022689+1051669727+1054350784
799+1056400001+1057532316+1058053512+1058436244+1058927359+1059546610
790+1060172898+1060562795+1060441436+1059639695+1058028143+1055114181
782+1049836437+1041314868+1029908128+1016921853+1002929787+986374988+963702941
772+931349770+888865221+840807407+795532642+762028565+747005725+752821062
762+776490251+810959839+848348295+882617512+910293858+930271099+943625838
752+953088711+961740095+971547420+982683750+993788385+1002746910+1007495194
742+1006156183+995976261+972035501+928807372+866331574+795247062+730772592
732+678205983+628196490+570207088+507589953+455753819+428006691+426608937
722+445462254+476633309+513494275+551037011+585964341+616833516+643812179
713+668071184+690853873+712668212+733273418+752218529+769154639+783870468
703+796361237+806834291+815698569+823643814+831478157+839764562+848751489
693+858544548+869252508+880937728+893134203+904630285+914425151+922496208
683+928956682+932890508+931907310+921771478+896112782+848020045+777045466
673+696535651+626156181+579267411+563822398+578092492+604168325+630827389
663+658011653+685234841+709895942+730786148+748431173+763607841+777259006
653+790367930+803423534+816287029+828433993+839417657+848957412+856646448
643+862423246+867160557+871883860+876839616+881831198+886741574+891483339
633+895961020+900103028+903898583+907638106+911849572+916696880+921576400
623+925522168+928205227+930525435+933701222+937577274+940567279+941636332
613+941447322+941277291+941785190+943168743+945636389+948914685+951829745
603+953475832+954489499+956143656+958653261+961357170+963978645+966752141
594+969721554+972551146+974963600+977148184+979538948+982211484+984716571
584+986595241+987991704+989735653+992658976+996701444+1000883732+1004252466
574+1006725277+1008951497+1011527915+1014432259+1017109894+1019059314
565+1020205765+1020709210+1020485406+1018618227+1012691344+998051300+967933774
555+917194257+849428903+779944129+728549664+707666430+716093042+742503773
545+774275650+804115923+830524589+854076744+874462149+890742148+903025317
535+912701729+920943076+927668473+932527142+936414232+941105840+947468839
526+954449477+960066637+963451897+965458510+967513924+970162834+972778306
516+974960437+977374247+980612520+984195827+987204875+989317031+990691288
506+991361019+991427379+991463206+992157403+993698593+995787704+997946015
496+999672535+1000754627+1001460057+1002181301+1003119829+1004372857+1005918242
486+1007492806+1008902825+1010432589+1012406215+1014363510+1015308816
477+1015044087+1014807438+1016018829+1018519397+1020576361+1021148231
469+1021097493+1021536643+1022467554+1023468117+1024695711+1026294094
460+1027536858+1027788871+1027921784+1029276353+1031752520+1034636336
452+1037359546+1038705400+1037544747+1034985242+1033960795+1035790921
443+1038658599+1040612796+1042365007+1045544861+1049759297+1052554289
435+1051982031+1049034825+1046794532+1047560124+1051198623+1056117907
426+1061258799+1066267424+1070473984+1072976747+1073059116+1070256378
418+1065895602+1061450326+1053910729+1037698769+1010587902+979251238+957165586
408+955057432+972723953+999179225+1022121359+1037092622+1047624031+1058644942
398+1069080491+1072587109+1070557257+1070681650+1073741823+1071667301
390+1055084551+1021877286+977820175+933077452+901903460+895678344+911773530
380+935502300+947105538+928349049+883043687+856212332
##END=
