##TITLE=JPK-209,X 12406
##JCAMP-DX=4.24
##DATA TYPE=INFRARED SPECTRUM
##DATE=13/5/2019
##SAMPLING PROCEDURE=Diamant-ATR
##ORIGIN=Angelika Moesle
##XUNITS=1/CM
##YUNITS=TRANSMITTANCE
##RESOLUTION=4
##FIRSTX=3997.453
##LASTX=373.96442
##DELTAX=-1.4165319
##MAXY=0.85176486
##MINY=0.25032955
##XFACTOR=1
##YFACTOR=7.9326784e-010
##NPOINTS=2559
##FIRSTY=0.6751951
##XYDATA=(X++(Y..Y))
3997+851156524+851930070+852985535+853550048+853193893+852253390+851397041
3988+851015790+851095812+851377655+851538300+851470826+851398844+851525827
3978+851663105+851441673+850819379+850179127+849939211+850185138+850650994
3968+850993023+851116024+851218513+851456700+851667688+851586614+851204537
3958+850676767+850052745+849370716+848826266+848571472+848487092+848370929
3948+848270995+848384679+848677342+848891335+848935366+849025382+849320749
3938+849750239+850294013+851010981+851607427+851372395+850042150+848441183
3928+847618496+847793417+848446292+849079556+849666535+850267640+850632060
3918+850517249+850183711+850162296+850532201+850834933+850716289+850492754
3908+850842672+851779268+852292762+851524475+850231273+849800131+850205275
3898+850597271+850832678+851188307+851505089+851348276+850819905+850705770
3888+851324683+852025421+852058031+851571812+851114221+850485390+849507618
3878+849074372+849871587+851277872+852310870+852741262+852817677+852411931
3869+851479693+850576157+850072055+849850248+849776687+849921253+850403414
3859+851240603+852223184+852784391+852000099+849707410+847879976+847839101
3849+849045368+850685783+852076590+852791228+853015966+853368289+853923935
3839+853839104+852587829+851091454+850423777+850537311+850889708+851183573
3829+851334376+851315516+851358645+851856135+852690618+852979149+852087710
3819+850758893+849844387+849398292+849344117+849610858+849997068+850444139
3809+851075375+851908356+852816324+853696117+854230950+853868258+852784541
3799+851974778+851517111+850796913+850010743+849938610+850628077+851450915
3789+852022566+852364669+852407273+852034137+851620201+851707361+852162773
3779+852377668+852236108+852162999+852319136+852549584+852730592+852771166
3769+852679423+852707900+852976669+853251449+853410442+853569584+853627440
3759+853302092+852777628+852634716+852916934+852882446+851494194+848752179
3750+847021448+848103888+850625523+852119268+851567153+850974239+852072382
3740+854076391+855546468+855699975+854762627+853457854+852332961+851833142
3730+852143237+852875308+853350030+853242057+852908744+852854420+853095613
3720+853342817+853467096+853553129+853677557+853767873+853589345+853003944
3710+852411180+852347613+852715414+852997332+852825341+852265562+851766194
3700+851681063+851921279+852276232+852627803+852793407+852581217+852026848
3690+851331746+850659936+850199114+850119618+850352997+850719295+851152767
3680+851688276+852255268+852496762+852006486+851296957+851411843+852151202
3670+852479030+852058256+851700373+851875821+852265938+852554844+852787021
3660+853217787+853915745+854459219+854325398+853807096+853640740+853773809
3650+853325986+851703003+849909081+849310380+849843861+850640325+851072219
3640+851231812+851582482+852177275+852611498+852689116+852762150+853209597
3631+853644948+853054512+851617496+851017744+851642141+852604510+853211175
3621+853226729+852677544+852029253+851952387+852514795+853211551+853539003
3611+853289018+852493306+851425443+850547755+850198888+850502822+851423489
3601+852559502+853214857+853101248+852580316+852013098+851441673+851097691
3591+851468647+852455887+852988240+852292988+851293801+851107383+851565125
3581+851967640+852050216+852044431+852105443+852061186+851835622+851700599
3571+851773408+851648227+850932011+850039896+849854080+850476975+851236471
3561+851492692+851131878+850662566+850636117+851042539+851537850+851950583
3551+852258274+852332510+851991233+851208144+850259750+849644970+849654588
3541+850090314+850510035+850677744+850776400+851139092+851759206+852281642
3531+852482110+852427334+852189222+851775962+851340762+851082137+850987613
3521+850949819+850959737+850969881+850791428+850343079+849880603+849771202
3512+850071154+850472391+850628152+850380347+849762336+849065505+848778853
3502+849095636+849649629+850001726+850041023+849878725+849711994+849726195
3492+849896007+849988276+849824024+849395587+848784188+848133567+847628414
3482+847415322+847570482+848043777+848591309+848962641+849213678+849611684
3472+850163724+850505377+850397704+850086632+849955140+849977982+849822897
3462+849428497+849120281+849125766+849338783+849609129+849915994+850176046
3452+850186190+849878424+849427971+849032294+848730164+848463799+848211035
3442+848057678+848150173+848475145+848757439+848795609+848788772+849031017
3432+849389726+849420307+848940626+848236206+847749461+847746681+848196533
3422+848807180+849216458+849268378+849125541+849059795+849156347+849247790
3412+849158151+848986685+849027786+849347423+849604020+849446380+848967525
3403+848581466+848529395+848663516+848715963+848625722+848500241+848389713
3393+848344104+848546076+849006221+849296179+849012232+848315176+847651857
3383+847217634+847015888+847120630+847576569+848208781+848682677+848729337
3373+848312171+847619097+846946235+846613223+846818801+847430124+848046107
3363+848371079+848424277+848418566+848523534+848650668+848492201+847920776
3353+847231384+846819327+846805952+847094858+847597156+848274151+849008475
3343+849506190+849480718+849021850+848571773+848417890+848426456+848368299
3333+848297293+848423901+848730840+848944608+848951295+848976391+849188056
3323+849417152+849484550+849485227+849555105+849662252+849735437+849739118
3313+849605072+849304895+848949342+848684029+848595967+848786442+849330818
3303+850038919+850447746+850226765+849489735+848620011+847946248+847632471
3293+847659596+847816560+847893050+847921302+848091791+848407295+848558098
3284+848265585+847716851+847419004+847540502+847730376+847732330+847745178
3274+847991481+848362814+848652546+848781483+848713032+848403614+847918597
3264+847537647+847600087+848080670+848468984+848381298+848095247+848121019
3254+848496259+848853916+848992170+849082111+849359295+849732131+849849722
3244+849624533+849435786+849616343+850037567+850368250+850489222+850516122
3234+850542645+850456011+850122698+849747158+849740020+850147043+850604860
3224+850867317+850927954+850719295+850197010+849640612+849464038+849783826
3214+850386058+850976192+851317995+851277346+850903609+850488095+850386809
3204+850658959+850969129+850991971+850778804+850521156+850185288+849676528
3194+849164537+848925072+849006747+849272811+849644144+850150575+850811039
3184+851527481+852121147+852477527+852570848+852349491+851825253+851257284
3174+850931034+850785191+850557898+850180329+849754071+849365156+849159954
3165+849296104+849609731+849621227+849063702+848209757+847594527+847536745
3155+847923030+848357629+848517147+848365594+848097726+848016277+848381974
3145+849091278+849585912+849479065+849176184+849382588+850125854+850796462
3135+851040586+851102499+851321527+851666636+851814132+851522071+850887905
3125+850207680+849616343+849028237+848410752+847890195+847590394+847532312
3115+847673046+847921753+848117488+848101183+847863821+847573488+847405855
3105+847370615+847340860+847248440+847251972+847659897+848576506+849673373
3095+850473669+850785717+850696603+850328051+849781196+849101797+848222456
3085+847202381+846448295+846324843+846691366+847205236+847820767+848602504
3075+849370867+849890522+850013673+849376802+847495044+844534452+841583778
3065+839715094+838678639+836588822+831251988+822347371+812398785+805213553
3055+803115547+805642441+810537539+815542713+819419013+821940949+823450248
3046+824479865+825480254+826591397+827647763+828386972+828556784+827984157
3036+826864674+825870446+825682751+826464188+827910897+829654176+831451555
3026+833132545+834533419+835528999+836127174+836478595+836690559+836668544
3016+836257238+835469039+834489163+833553168+832831391+832296558+831740235
3006+831095250+830649005+830760059+831459895+832459833+833450980+834308907
2996+835092297+835912579+836801538+837662396+838302723+838600720+838742055
2986+839117069+839817357+840475792+840779951+840856141+840957803+841073741
2976+841031664+840789869+840476694+840213259+839992278+839731849+839382833
2966+838928924+838365989+837773149+837290011+836977812+836862175+837034391
2956+837439912+837733251+837677423+837478833+837423532+837475377+837490029
2946+837494913+837567121+837754290+838174161+838876026+839605317+839981984
2936+839891518+839549038+839225118+838992340+838709971+838222475+837549463
2927+836839633+836176239+835504580+834752748+833949070+833200319+832614542
2917+832290697+832314892+832729353+833550538+834746060+836093362+837229750
2907+838004575+838576751+839042157+839273582+839228349+839097008+839090395
2897+839324751+839831332+840444610+840824808+840821728+840687606+840756207
2887+841034819+841295999+841493237+841839098+842433666+843057387+843412790
2877+843391676+843059716+842580410+842180150+842034156+842184883+842594085
2867+843141767+843580574+843672317+843381984+842829042+842161065+841570704
2857+841252645+841219208+841300658+841366404+841392402+841339805+841175027
2847+841002285+840998528+841184795+841372941+841375571+841200950+841022271
2837+841031513+841346718+841931518+842518496+842754355+842523531+842038364
2827+841581149+841301560+841281272+841610227+842276251+843029210+843466514
2817+843366881+842940998+842624742+842619783+842775544+842900874+842977140
2808+843030638+842986607+842755557+842404662+842168052+842293007+842872397
2798+843766616+844666996+845282151+845512675+845437311+845193789+844941250
2788+844825462+844862054+844948463+845042085+845163959+845233988+845114819
2778+844813740+844476596+844230593+844130735+844158837+844236304+844339619
2768+844547601+844868892+845151937+845284931+845355110+845511698+845756348
2758+845952984+846012268+845990779+845963579+845860489+845528153+844912923
2748+844112777+843304366+842673732+842372804+842482656+842949714+843536242
2738+843959721+844161842+844329400+844606434+844935614+845172900+845217608
2728+845077325+844899548+844852962+844943354+845054032+845123460+845156145
2718+845113391+844974310+844899323+845116697+845567676+845895353+845933524
2708+845911132+846011367+846091314+845995888+845771150+845475857+845164786
2698+845038403+845242403+845595327+845784975+845723287+845520414+845246911
2689+844891658+844518523+844307084+844346006+844466001+844431137+844255013
2679+844172887+844324065+844589002+844761970+844820202+844939146+845211822
2669+845479464+845573913+845583079+845681435+845844259+845952158+846066142
2659+846359256+846839088+847328462+847653435+847704454+847433506+846988087
2649+846730814+846914226+847403976+847865550+848147092+848358305+848647737
2639+849013885+849328864+849487556+849511149+849474482+849370190+849134407
2629+848794933+848480931+848289855+848243945+848336666+848514968+848688387
2619+848827167+848981426+849200378+849492816+849802760+850032833+850209182
2609+850501094+850935242+851318446+851557686+851761611+851970720+852074561
2599+851970795+851627564+851114897+850634088+850363666+850333235+850521081
2589+850845001+851029615+850842146+850506053+850531976+851069739+851736214
2580+852197412+852613902+853270084+854020112+854463878+854514070+854432620
2570+854403767+854386861+854354477+854481836+855005774+855864903+856560832
2560+856594043+856019086+855354114+854947617+854648342+854114936+853265650
2550+852378194+851868908+851975604+852497664+852865164+852684457+852239940
2540+852231374+852948643+853897036+854373111+854251688+853982618+853871865
2530+853709717+853227706+852595794+852256996+852487220+853281204+854453434
2520+855633628+856298901+856136828+855451493+854965049+855097517+855604324
2510+855953566+855870689+855517840+855307904+855551652+856190777+856818856
2500+856963347+856463603+855689981+855264099+855409791+855683745+855463290
2490+854658335+853861646+853710167+854130490+854437279+854219078+853818366
2480+853853456+854518428+855370720+855678560+855093084+853996744+853020625
2470+852382402+851942919+851639061+851545964+851731405+852236183+852998234
2461+853710318+853978861+853694914+853128448+852667401+852530800+852687237
2451+852978998+853309456+853708590+854236209+854842048+855296558+855294755
2441+854755113+854008015+853517964+853429151+853548245+853728201+854064293
2431+854685160+855457730+855954994+855784655+855003520+854146720+853774035
2421+853990883+854424130+854676218+854748726+854899378+855161385+855282357
2411+855117053+854811617+854631962+854809363+855409341+856167259+856639276
2401+856655431+856486671+856511992+856816602+857102052+856954706+856296797
2391+855510476+854977296+854646764+854286852+853954141+853890574+854101487
2381+854355754+854518804+854631887+854751281+854967679+855473283+856292514
2371+856994830+857004297+856219480+855079710+854087060+853565677+853693862
2361+854313977+854888183+855061451+855000890+854890136+854564413+853911087
2351+853181345+852755087+852873955+853501133+854136802+854055051+853275944
2342+852719997+852898150+853293902+853207944+852666800+852355352+852832705
2332+853864426+854563135+854245226+853034000+851639061+850798791+850869496
2322+851653412+852609845+853336806+853809049+854173394+854448850+854519405
2312+854421199+854424055+854685986+855014866+855108563+854893517+854575608
2302+854426835+854498291+854617460+854787347+855285964+856080098+856583449
2292+856441212+856113084+856207533+856679701+857111219+857387652+857724496
2282+858271952+858939629+859471607+859649309+859505570+859255285+859002370
2272+858721353+858455515+858223338+857833146+857126998+856316408+855825906
2262+855906605+856489827+857295608+858135051+859134613+860410007+861585017
2252+862147801+862189127+862225644+862428968+862564217+862513198+862365627
2242+862159222+861932531+861892482+862195213+862626732+862790533+862588937
2232+862257353+861942524+861614321+861461415+861877004+862818183+863603978
2223+863586095+862811646+861986855+861920208+862757397+863669198+863716685
2213+862945693+862099788+861634232+861655271+862274710+863318228+864101693
2203+863949012+862805635+861458033+861083094+861981671+862949074+862749582
2193+861701030+860844005+860367479+859901472+859546745+859610312+860006215
2183+860715293+862120676+864118824+865623615+865717387+864750660+863690913
2173+862990926+862744924+863192972+864122506+864241224+862238944+858828951
2163+856956585+859053464+864105750+868224521+868876419+867211584+865358002
2153+864061794+863281335+863039615+863179222+863119036+862462179+861606882
2143+861338940+861919381+862908725+863846524+864816857+866079854+867225710
2133+867244569+865796733+863873498+862711938+862508539+862604340+862456995
2123+862021118+861629198+861715081+862221963+862424760+861897892+861288597
2113+861425423+862107227+862490055+862272681+861888875+861837406+862255549
2104+862965755+863659430+864063072+864104623+864071262+864466563+865379266
2094+866120879+865944380+865103509+864804910+865975712+868201979+870075698
2084+870568529+869784162+868387946+866955062+866066629+866181065+866987447
2074+867613347+867735296+867837184+868341436+869152702+870010779+870812578
2064+871599950+872422637+873158990+873485466+873141183+872227804+871257395
2054+870849395+871147318+871614376+871684630+871417364+871133342+870725267
2044+869934664+869015800+868656940+869321913+870543809+870913563+869630054
2034+868189055+869062235+872480343+876230561+878415051+878649257+877100961
2024+874246915+871403013+870158801+870979084+872618146+873267415+872672171
2014+872559764+874394561+877554870+880204841+881161875+880542587+879195811
2004+877873982+876974353+877008541+878516563+880875674+882154525+881153460
1994+878699750+876335003+874904374+874692484+875559127+876644347+877023043
1985+876670795+876137390+875916559+876652311+878798782+881403444+882649234
1975+882058348+880398923+877821310+873887154+869022863+864945343+863567987
1965+865282112+868394032+870768472+871915304+872876621+874338208+875939476
1955+877005010+876925438+875425081+873160643+871377766+870409988+869037815
1945+865742183+860587108+855820647+854008240+855558264+858963373+862584354
1935+865405865+866921851+867294912+867443460+868184397+869399230+870454995
1925+871013722+871016578+870403150+869244596+867811637+866438713+865527288
1915+865443734+866211120+867417462+868448582+868872136+868694059+868295301
1905+868163433+868634775+869691592+870872914+871563057+871586200+871436600
1895+871766381+872724392+873934942+874912564+875292387+875025346+874511777
1885+874216559+874153218+873971759+873615680+873578937+874215507+875146694
1875+875760948+875958110+876056992+876332824+876830689+877213443+876927016
1866+875913779+874634628+873457289+872485152+871654801+870639234+868971093
1856+866651279+864416371+863178245+863311465+864508941+866164985+867807279
1846+869103336+869599097+869036313+867839663+866566298+865465750+864726616
1836+864509768+864652380+864652756+863967496+862428442+860660818+859662608
1826+859909662+861230290+863126475+865157158+867069873+868661975+869805051
1816+870568379+871080896+871365218+871441408+871469210+871637444+871998633
1806+872516710+873119994+873644608+873901505+873918336+873996480+874383441
1796+875035339+875728864+876244387+876503838+876640740+876801761+876971573
1786+877094048+877207657+877396179+877634066+877770742+877623396+877025973
1776+875848860+874028939+871715888+869639822+868884684+869755009+871615804
1766+873642504+875362040+876676356+877537063+877916735+877966176+877837690
1756+877623922+877482437+877423228+877132143+876233116+874739821+873115110
1747+871893364+871485364+871988790+873012997+873926301+874372847+874484427
1737+874452343+874133306+873389063+872714398+872579225+872792692+873080020
1727+873327751+873375764+873006610+872241479+871292936+870091177+868227752
1717+865843394+864105675+863586020+863731637+863877405+863674683+863005653
1707+861968447+861100902+861188814+862657764+865460265+868774832+871346208
1697+873091817+874457302+875439883+876168422+876969394+877882623+878724771
1687+879475851+880200934+880647630+880598715+880468426+880596236+880948107
1677+881357084+881665000+881862763+882059700+882232368+882231391+882080213
1667+881969309+881762304+880933380+879142914+876987803+875514946+874994164
1657+875121147+875661615+876537350+877653602+878835449+880023909+881121451
1647+881692350+881187272+879847860+878322331+876807171+875328152+873961916
1638+872709364+871652922+871380997+872336529+874222345+876628793+879146972
1628+881251440+882663886+883560208+884174688+884540686+884531369+883622949
1618+880629522+874885739+868187478+862731474+859038962+857004973+856391771
1608+856951851+858827373+862287784+867036211+872120281+876537651+879904664
1598+882508576+884824031+887128142+889426842+891548066+893391504+895115924
1588+896908644+898710005+900459896+902397633+904780187+907505070+910366931
1578+913702236+918453069+924685023+930834702+935105627+933635550+919356003
1568+890401233+855314065+824079229+803040333+793247584+790776141+790270311
1558+788427925+786777817+787125180+789653878+794445661+801336502+809605375
1548+818083208+826029439+833567594+840790095+847414721+853729027+859869313
1538+864423584+867051389+868715097+870025882+871174668+872257709+873352997
1528+874508621+875783790+877306614+879374039+882423594+886399527+890121794
1519+892397953+892971782+892284119+891376976+891355487+892741484+895477413
1509+899589722+905407440+911575152+916031367+919432945+923127711+927881699
1499+934335837+943173882+953920885+964755876+974118685+978635537+967711809
1489+927625553+862609525+796796131+751010349+732024227+735285446+750917328
1479+770018262+787817052+802713032+814846033+824970893+832026962+833281994
1469+828404855+820563442+815738674+819737749+831183162+843203155+852330406
1459+859168049+865084123+870221241+874071317+877058433+879833433+882669822
1449+885538820+888098625+889675925+889498599+886691815+880332350+869469784
1439+851551374+822146827+783540492+750877806+733555917+726620369+722861059
1429+719682492+719154797+724643035+737588279+755772077+774797271+792360128
1419+808283771+820965356+828772731+833171616+836439448+839732826+843330138
1409+847096060+850856948+854746848+859033778+863512234+867526713+870703026
1400+873350668+876420285+880818193+885969512+888928526+885865896+873740484
1390+849195419+810417693+765616596+732768244+721826783+726577916+734629941
1380+739419920+743979977+754488342+772285329+792251778+808071055+818610978
1370+826980236+835571152+844323389+852383454+859591979+866105626+871833629
1360+876810627+881439135+886094091+890931182+896061461+901607030+907460363
1350+912618820+913761595+905127701+883400765+854369655+831423904+825383176
1340+836478595+855575847+873379295+887129945+897780020+905037084+906955135
1330+903119935+896819605+892584971+891388097+889245609+880624563+862891293
1320+838889401+816958315+806700987+811975757+828512453+848182557+864191708
1310+873167406+874743052+870681311+863795580+856612753+851114521+849169572
1300+851319874+854250636+850226164+830680337+792949135+745171066+703120776
1290+679411021+674755238+680005288+685924668+689950117+694691858+702697823
1281+713759430+725999353+737910696+748911366+758752355+767097719+773517068
1271+777622840+779414959+779708673+780017341+781646260+784835422+788940818
1261+793286054+797578018+801766217+805874919+809977084+814125308+817695571
1251+818381506+813318325+803253951+794508777+793938779+802181580+813993291
1241+824369638+832004797+837817105+842854138+847779517+852924523+858361141
1231+864065100+869968476+875975242+882029194+887928963+892957657+896017731
1221+896425731+894343879+889976402+882757433+872283707+859373026+844350364
1211+825020634+799513801+771524105+749559733+739682754+740823200+747697134
1201+756097425+764495386+772594973+780184749+787085057+793275535+798807804
1191+803650455+807706485+811144805+814667129+819103809+824620148+830529385
1181+835962471+840582939+844649789+848588904+852650044+856852518+860966330
1171+864518634+867137648+869038642+870967062+873617934+877239891+881660341
1162+886487364+891396362+896350217+901533469+907087378+912861666+918295579
1152+922107711+920962230+908453539+879058158+836840235+797990602+779631957
1142+786108637+808854595+837209764+865305631+890386205+908623576+912329388
1132+891068008+840181852+771048481+708650264+674492480+672509135+691723602
1122+718501321+744248070+765451743+781331807+792449842+800256391+806803926
1112+813953467+822413267+831750604+841227248+850262606+858433649+865611668
1102+872012158+877913880+883457194+888715058+893782673+898771242+903748691
1092+908730498+913759491+918897886+924123291+929413464+934870445+940509409
1082+945967817+950614433+953970477+956112814+957821079+960271408+964391907
1072+970387627+977858083+986322617+995473837+1004937181+1014189613+1022904807
1062+1031122962+1039102254+1047236104+1055821835+1064500963+1071641187
1054+1073741823+1066053542+1045783835+1014481224+974654420+924831618+862138108
1044+789763655+717529635+654221271+602363879+560604222+528072089+505453677
1034+493664696+492617346+500825358+515751843+534669365+555353534+576048823
1024+595297816+612448728+627926840+641952645+653331786+661081079+667197321
1014+675616847+687325994+697864865+700706137+692441622+674693324+652709492
1004+632966203+620673984+617808554+622939172+632961544+645025944+657142265
994+667899562+676396405+681915825+683145159+679224979+672743866+669575893
984+673687826+683516041+694675027+704412475+712399656+719081087+724738610
975+729534300+733570644+736755899+738525401+737020610+728289487+708698728
965+681265279+657970362+651037519+661580748+679873421+695909922+706558494
955+713735912+719857939+726017010+732321699+738465817+744032649+748678288
945+752324289+755308925+758257645+761598736+765183200+768517604+771333479
935+773735419+775892634+777875229+779785465+781805402+783998834+786163112
925+788041941+789650497+791200521+792805847+794494801+796376410+798553010
915+800965019+803450437+805951635+808636920+811787912+815656247+820456220
905+826265823+832901871+839160349+839862965+824222292+783958184+727396922
895+679435290+660919232+671145002+693961666+715456950+731421694+743175924
885+752551733+760327475+766533807+771309961+775206623+778649902+781633111
875+783862233+784770803+783907316+781934941+780721986+781731467+784614516
866+787860332+790455226+792402130+794016021+795384662+796502717+797500626
856+798612820+799996038+801578747+803112842+804460894+805831864+807594830
846+809797053+812002807+813746838+815009458+816084384+817141953+818166461
836+819240711+820600260+822341585+824244232+825913501+827074685+827931184
826+829201093+831377394+834066887+836585516+838869640+841194413+843474328
816+845329488+846275327+845204534+839122104+822365629+790126046+746907433
806+709816332+697091318+711779541+740430979+767583412+786884513+799319344
796+807054887+809247192+799970641+773790796+738785905+717764366+727358075
786+759839378+793145471+813759085+822812175+826120055+827194605+827725456
776+828599538+829696629+830181045+828954265+824545686+814248986+793298678
766+756438702+701945991+633948934+560225864+488054284+422623568+368740040
756+331834230+315567506+318897740+336539904+362205429+391132023+420494943
747+448839254+475587181+500748942+524641621+547513699+569263701+589476078
737+607736479+624028750+638859134+652836250+666161843+678681430+690240376
727+700750469+710169106+718691120+726730822+734536244+742058921+749287583
717+756372580+763325861+769948233+776231507+782201531+785835660+780708161
707+759176509+722443216+685774467+667482470+672485541+690998670+711233663
697+728258004+742157127+753599684+762693198+768982483+770094151+761323130
687+740643019+716042877+703120550+710938595+733066092+755838724+771581961
677+780815232+786487483+790388954+793288609+795617815+797685165+799702398
667+801701222+803652709+805684368+807945650+810422502+812843076+814871505
657+816499071+818137157+820246584+822875592+825602203+827970481+829838866
647+831181508+831904037+832185880+832695616+834107912+836447863+838979041
637+840881988+842200362+843812149+846275928+849267852+852332660+855395515
628+858263311+860366803+861481026+862304915+863841189+866414368+869666947
618+873269519+877215997+881613230+886514489+891866952+897584286+903662357
608+910037150+916652309+924047401+933085163+942620865+945709643+927519909
598+872167167+779857672+677253731+602819291+577479640+591985428+622976516
588+654203087+680535087+701679852+718469913+732102446+743543650+753322274
578+761678683+768524066+773677112+777518548+781015551+784826480+788796102
568+792574722+796226584+799822995+802923193+804796762+805053659+804315803
558+804279436+806463550+810643934+814932517+817596313+818639681+819343049
548+820381983+820978430+819644954+814846333+806062538+796170456+791251615
538+795094028+804888430+814632641+821177546+825228542+828546265+832050856
528+835456792+837387841+836131682+831064518+823543795+816624777+813874497
518+817005051+823973585+830826331+835530878+838595987+840816092+842190218
509+842906585+843909153+845825400+848009665+849218787+849140643+848942279
499+849714548+850366597+847472277+838255085+825072405+815933732+817634408
489+828635003+841477007+850713885+856282370+860404372+863782581+865885471
479+867199186+869254889+872567954+875945562+878152444+879404921+880791144
469+881350021+874692259+851591198+812108526+773345603+756932134+768479509
459+795267897+820990001+838016146+847505262+852671984+855761663+858224765
449+860635046+862868000+864986895+867413254+869581515+869605784+866801856
439+862471271+855789239+839406126+800454230+729275074+631077681+531966610
429+468408411+461158448+502350736+567328219+632074388+684947197+726182164
419+757440669+777026243+787129538+793610651+799683463+806276306+813313366
409+819971729+826017417+832936584+842346656+853537500+863598718+869847579
399+871950093+872476286+874372997+877453734+880430180+883164531+885479461
390+887020093+888824760+893431027+902894371+916412843+930234348+940581316
380+944827146+937417777+901718234+819256715+716817025
##END=
