##TITLE=X8258
##JCAMP-DX=4.24
##DATA TYPE=INFRARED SPECTRUM
##DATE=31/10/2018
##SAMPLING PROCEDURE=Diamant-ATR
##ORIGIN=ComPlat
##XUNITS=1/CM
##YUNITS=TRANSMITTANCE
##RESOLUTION=4
##FIRSTX=3997.453
##LASTX=373.96442
##DELTAX=-1.4165319
##MAXY=0.98331892
##MINY=0.73476326
##XFACTOR=1
##YFACTOR=9.1578711e-010
##NPOINTS=2559
##FIRSTY=0.95515651
##XYDATA=(X++(Y..Y))
3997+1042989676+1043791857+1044255723+1044061182+1043622700+1043359168
3989+1043310679+1043448270+1043836962+1044374309+1044789751+1045000238
3980+1045144533+1045284663+1045390623+1045517800+1045696721+1045767794
3972+1045556526+1045109973+1044602174+1044102837+1043601221+1043200684
3963+1043098890+1043338145+1043748120+1044192004+1044599571+1044696093
3955+1044137593+1043150243+1042658195+1043411301+1045074306+1046442147
3946+1046740044+1046387670+1046328833+1046894363+1047433337+1047291320
3938+1046691555+1046200874+1045954395+1045846288+1045976849+1046294077
3929+1046330981+1045959537+1045696460+1045950880+1046417870+1046466489
3921+1045925822+1045132037+1044442845+1043930685+1043567116+1043528651
3912+1044039574+1045032000+1046096152+1046790616+1047025771+1047128671
3904+1047502133+1048148434+1048787185+1049307350+1049596526+1049481779
3895+1049119447+1048960899+1049227034+1049430362+1048907463+1047955520
3887+1047469004+1047754080+1048021061+1047537604+1046660249+1046096086
3878+1045991233+1046137546+1046486080+1046912391+1047101856+1047094826
3870+1047471543+1048588023+1050100679+1051407210+1051707645+1050332124
3861+1047903907+1045911829+1045155728+1045484086+1046511724+1048039610
3853+1049476833+1049813847+1049206207+1048460194+1048026854+1047972052
3844+1048095910+1048192236+1048338159+1048709277+1049190586+1049555326
3836+1049890778+1050270097+1050325030+1049648464+1048448934+1047490938
3827+1047347684+1047931373+1048828579+1050013009+1051540831+1052409334
3819+1051524104+1049696172+1048392245+1047975696+1047622541+1046802071
3810+1045863340+1045527302+1046312561+1047749458+1048545847+1048198094
3802+1047373198+1047126133+1047895315+1049237708+1050338958+1050435545
3793+1049560143+1048479264+1047762410+1047496405+1047627097+1048083869
3785+1048592709+1048825585+1048772150+1048551184+1048021452+1046958928
3776+1045587767+1044600808+1044711583+1046133836+1048108081+1049162925
3768+1048684545+1047616228+1047062869+1047358944+1048314467+1049462384
3759+1050011447+1049495968+1048638008+1048371613+1048793693+1049594573
3751+1050438734+1050664321+1049796599+1048183124+1046466034+1045232790
3742+1044656195+1044266397+1043592760+1042702062+1042316755+1042920165
3734+1043380646+1042638799+1041753048+1041941341+1043146403+1044655870
3725+1045717808+1045837826+1045119280+1044149503+1043476778+1043327861
3717+1043632137+1044173129+1044898249+1046002103+1047212762+1047426764
3708+1046320046+1044785521+1043630510+1043197690+1043457642+1043828566
3700+1043655763+1043226458+1043273255+1044026817+1045474193+1047868110
3691+1051176481+1053909820+1053683777+1050662304+1047449804+1045505629
3683+1044873386+1045225956+1046191242+1047419539+1048722880+1049986389
3674+1050852354+1051120182+1051013571+1050569622+1049886092+1049408037
3666+1049196834+1048843614+1048086212+1047073088+1046137611+1045598246
3657+1045791485+1046691881+1047528623+1047751411+1047904753+1049076556
3649+1051151618+1051841787+1050459627+1048728738+1047724986+1047313840
3640+1047016984+1046680556+1046378819+1046047598+1045559585+1044973358
3632+1044508711+1044397350+1044734103+1045051721+1044631593+1043683425
3623+1043156556+1044076542+1046731909+1049799463+1051262264+1050945557
3615+1050058178+1049162990+1048219638+1047524002+1047709040+1048715916
3606+1049337615+1048714354+1047509097+1046841969+1046917663+1047050178
3598+1046835395+1046471891+1046049550+1045482589+1044994120+1045046384
3589+1045925106+1047409776+1048643866+1048986217+1048618808+1047798012
3581+1046765558+1046200028+1046635452+1047508706+1047838496+1047662569
3572+1047765990+1048389381+1049235886+1050226165+1051205184+1051350455
3564+1050342343+1049051498+1048339851+1048284333+1048512979+1048796557
3555+1049023576+1049005678+1048742536+1048627009+1049010559+1049780002
3547+1050393240+1050173055+1049088987+1048223738+1048682787+1050243933
3538+1051564327+1051631755+1050644145+1049424960+1048572858+1048320455
3530+1048502044+1048577804+1048274505+1048089987+1048640351+1049752861
3521+1050537469+1050286043+1049210502+1048327159+1048428563+1049135003
3513+1049379335+1048781587+1048055687+1048049504+1048847064+1049910694
3504+1050605354+1050486833+1049595549+1048478028+1047677409+1047352631
3496+1047347684+1047454165+1047642392+1048010712+1048526972+1049008346
3488+1049381743+1049729691+1050024529+1050046919+1049600821+1048706934
3479+1047666084+1047012428+1047260535+1048419125+1049762234+1050425978
3471+1050239312+1049594898+1048679598+1047437893+1046213176+1045658060
3462+1045912740+1046503783+1047108299+1047839472+1048719951+1049324467
3454+1049159019+1048341153+1047712685+1047996654+1048873228+1049272008
3445+1048717153+1047846696+1047466075+1047643889+1047795734+1047420060
3437+1046668971+1046129801+1046079424+1046183887+1045959537+1045245286
3428+1044212962+1043186105+1042401952+1041784875+1041121066+1040485309
3420+1040197109+1040405904+1041042572+1041997510+1043032112+1043769533
3411+1044071335+1044254942+1044763912+1045698738+1046749872+1047525824
3403+1047838951+1047687171+1047153924+1046413314+1045687609+1045153060
3394+1044958974+1045137504+1045377540+1045240925+1044788319+1044588571
3386+1044981949+1045716246+1046461152+1047227731+1047976217+1048260511
3377+1047751020+1046841122+1046262706+1046325709+1046841448+1047469915
3369+1047909960+1048063302+1048038895+1047813958+1047286048+1046861429
3360+1047241465+1048297090+1048963697+1048592579+1047693485+1047059550
3352+1046853879+1046812875+1046781244+1046774540+1046825762+1046917533
3343+1046977607+1046972075+1046983855+1046983139+1046628683+1045710974
3335+1044716790+1044469530+1045221009+1046410841+1047268996+1047486903
3326+1047362394+1047390055+1047716655+1047998737+1047783108+1047026747
3318+1046194236+1045774368+1045819798+1046080075+1046307680+1046232376
3309+1045617511+1044600873+1043700672+1043343092+1043554815+1043977677
3301+1044071921+1043509451+1042428833+1041214138+1040178299+1039484486
3292+1039106338+1038839031+1038513017+1038109550+1037601882+1036884768
3284+1035962113+1035099727+1034668795+1034745856+1034866721+1034371028
3275+1033058770+1031356519+1029800645+1028546964+1027402562+1026073187
3267+1024316264+1022144159+1019973160+1018237715+1016756625+1014889902
3258+1012423024+1009822655+1007481717+1005147484+1002318534+998989791+995822721
3248+993577199+992412230+991721215+990690974+989176494+987908169+987552476
3238+987828830+988044264+988151590+988529152+989134514+989677524+990203482
3228+990881024+991686004+992688258+994105500+995824543+997423634+998828118
3218+1000411523+1002264187+1003872195+1004799796+1005297051+1005917643
3210+1006811400+1007659727+1008174489+1008458719+1008781088+1009060566
3201+1008946341+1008557389+1008628397+1009621149+1011176567+1012671260
3193+1013848205+1014770274+1015515050+1016006772+1016151458+1016227413
3184+1016838177+1018215390+1019963527+1021686997+1023364906+1024947595
3176+1026119984+1026717340+1026993173+1027308383+1027836749+1028656764
3167+1029763481+1030840389+1031426681+1031480507+1031391600+1031400061
3159+1031409043+1031262730+1030859264+1030277333+1029981844+1030419350
3150+1031356649+1032169504+1032637210+1032892216+1032921895+1032682249
3142+1032346798+1032108454+1032112489+1032638251+1033786819+1034999821
3133+1035484839+1035180434+1034794085+1034870496+1035321344+1035830444
3125+1036227988+1036420707+1036372999+1036246928+1036273157+1036454356
3116+1036621887+1036670831+1036536559+1036123460+1035524086+1035147761
3108+1035415328+1036341497+1037475681+1038281637+1038616698+1038760863
3099+1038909649+1038917329+1038706647+1038549009+1038632970+1038683736
3091+1038346658+1037753401+1037445416+1037743639+1038290684+1038303506
3082+1037309712+1035548884+1033633151+1031929533+1030355566+1028745150
3074+1027296082+1026465068+1026393213+1026711092+1026979505+1027023503
3065+1026859357+1026654663+1026697489+1027116250+1027796266+1028640102
3057+1029547657+1030200922+1030428722+1030655285+1031422515+1032639683
3048+1033746010+1034394394+1034607679+1034452515+1033958450+1033370856
3040+1033184255+1033674351+1034514737+1035140601+1035353301+1035253460
3031+1034835349+1034045860+1033049528+1032148026+1031595058+1031534528
3023+1031980951+1032915712+1034301386+1035739455+1036444268+1036097166
3014+1035403222+1035255282+1035705870+1036198699+1036384649+1036318132
3006+1036161666+1035989449+1035806688+1035698321+1035843917+1036255584
2997+1036709492+1037113349+1037626094+1038263738+1038760668+1038964972
2989+1039027259+1039145454+1039362971+1039606066+1039806660+1039954405
2980+1039942429+1039494834+1038610840+1037900105+1037924447+1038385319
2972+1038537489+1038141573+1037455895+1036612384+1035526299+1034258625
2963+1033156919+1032639553+1032853360+1033525044+1034227579+1034742081
2955+1035073172+1035242395+1035232567+1035062433+1034817971+1034625383
2946+1034570906+1034572078+1034362502+1033745099+1032862406+1032082875
2938+1031658972+1031643872+1031968975+1032338141+1032263488+1031557829
2929+1030640250+1030130174+1030291131+1030919598+1031663333+1032443840
2921+1033486253+1034814847+1035971485+1036491260+1036434440+1036262939
2912+1036348331+1036636466+1036757200+1036592923+1036595982+1037217030
2904+1038236402+1039057589+1039407750+1039409637+1039250503+1039074446
2895+1039008709+1039083493+1039223297+1039370846+1039523277+1039652928
2887+1039752834+1039932536+1040268443+1040588665+1040650236+1040480362
2878+1040291939+1040131373+1039853131+1039397141+1038957812+1038865846
2870+1039245491+1039783880+1039988705+1039676554+1039072689+1038521803
2861+1038237965+1038207635+1038220196+1038089048+1037900495+1037981527
2853+1038572830+1039527442+1040409809+1040936938+1041186412+1041354593
2844+1041539372+1041768538+1042029337+1042308294+1042707465+1043327341
2836+1044009309+1044469139+1044690431+1044903977+1045221009+1045532900
2827+1045741044+1045894581+1046057686+1046160847+1046082418+1045799881
2819+1045352612+1044801857+1044352310+1044292562+1044634912+1045042219
2810+1045268652+1045457856+1045851755+1046390990+1046791657+1046902433
2802+1046777143+1046481329+1046090945+1045824028+1045895688+1046267327
2793+1046704833+1046968365+1046897682+1046542704+1046247346+1046374067
2785+1046917663+1047520357+1047837259+1047786492+1047493932+1047121056
2776+1046796604+1046584294+1046390794+1046036273+1045553272+1045229731
2768+1045290065+1045769617+1046635842+1047716200+1048595898+1048892884
2759+1048600649+1048052432+1047649422+1047575549+1047651049+1047556870
2751+1047253896+1046993293+1046928728+1046955608+1046963939+1046987565
2742+1046990885+1046759570+1046257694+1045914367+1046194301+1046950336
2734+1047543007+1047582253+1047245760+1046895664+1046723513+1046775907
2725+1047016724+1047281753+1047400013+1047410622+1047502653+1047752192
2717+1048069485+1048340176+1048487856+1048485513+1048413202+1048433444
2708+1048681225+1049189870+1049842289+1050371826+1050540463+1050334337
2700+1049898849+1049367229+1048883186+1048656232+1048781132+1049072195
2691+1049297847+1049500850+1049809226+1050041256+1049908611+1049565284
2683+1049492128+1049810853+1050145523+1050162966+1049858756+1049338526
2674+1048703615+1048151753+1047884576+1047903712+1048077165+1048302687
2666+1048485057+1048527167+1048478548+1048496642+1048599933+1048667297
2657+1048663522+1048666060+1048752169+1049006263+1049452621+1049897612
2649+1050078160+1050000708+1049898783+1049911085+1050019583+1050182883
2640+1050341692+1050388944+1050244454+1049889346+1049368400+1048914558
2632+1048953414+1049691095+1050758761+1051570965+1051976514+1052176132
2623+1052135779+1051660068+1051024050+1050853330+1051240720+1051608520
2615+1051609236+1051542328+1051710053+1051996886+1052276364+1052628478
2606+1052990810+1053145779+1053105751+1052997188+1052636548+1051787570
2598+1050798333+1050441598+1051013051+1051971177+1052637134+1052909518
2589+1053028039+1052991396+1052634726+1052053836+1051576172+1051458692
2581+1051756980+1052272459+1052629584+1052623141+1052376531+1052092627
2572+1051947877+1052131613+1052526033+1052607520+1052278902+1052381543
2564+1053589208+1055178535+1055768472+1055036323+1053853391+1052982674
2555+1052481189+1052189800+1052079610+1052150684+1052351278+1052498567
2547+1052285281+1051684084+1051231283+1051481928+1052292375+1052956640
2538+1052956835+1052451640+1052109159+1052416363+1053172399+1053883786
2530+1054449706+1055008857+1055417270+1055464001+1055265815+1054915459
2521+1054217024+1053246662+1052638826+1052839160+1053522820+1054071948
2513+1054279376+1054390933+1054715451+1055291915+1055846966+1056125272
2504+1056216327+1056331789+1056342463+1055898448+1055024868+1054268572
2496+1054183896+1054849983+1055799713+1056276596+1055790666+1054662992
2487+1053821238+1053884502+1054675813+1055656004+1056404555+1056607362
2479+1056140502+1055392667+1055022330+1055160507+1055252082+1054905826
2470+1054528785+1054818677+1055830043+1056851368+1057219818+1057031851
2462+1056846682+1056846422+1056674791+1056117462+1055472918+1055063334
2453+1054854148+1054769407+1054923530+1055291850+1055551672+1055462569
2445+1055104012+1054665009+1054289270+1054105793+1054106249+1054011484
2436+1053569096+1053037346+1053048215+1053834386+1054884739+1055588836
2428+1055889206+1056027513+1056032590+1055795743+1055341575+1054821345
2419+1054479580+1054562629+1054992976+1055328623+1055301417+1055145732
2411+1055241278+1055639537+1056036040+1056131325+1056016384+1056041832
2402+1056250757+1056288247+1055996923+1055630165+1055332398+1054933097
2394+1054440073+1054244491+1054606823+1055228716+1055412649+1054418790
2385+1051787701+1047615577+1042433389+1036608023+1030045888+1022619870
2377+1014566621+1006259473+997886133+989489427+981105087+972843824+964846354
2367+957093605+949682752+943543999+940018763+939318441+940389296+942608132
2357+946522061+952751999+961285905+971512301+981699970+989135230+991583168
2347+988380561+981012144+973087570+968044600+966556936+967323580+969013205
2337+970973456+973053335+975057063+976699696+978241381+980386215+983134329
2327+985550635+987048583+988156406+989863734+992781006+997015026+1002197865
2317+1007303643+1011135303+1013436798+1015100519+1017116288+1019776536
2309+1022947967+1026511474+1030255529+1033709822+1036451687+1038557210
2300+1040547075+1042849286+1045414704+1047754795+1049254240+1049702290
2292+1049655233+1049950071+1050849751+1052068741+1053424215+1054827724
2283+1055834795+1055928713+1055208605+1054298251+1053646093+1053252454
2275+1052949741+1052619236+1052171186+1051604745+1051117969+1050932084
2266+1051031860+1051340627+1051905701+1052509371+1052513406+1051659287
2258+1050553350+1049829077+1049471366+1049464011+1050177480+1051540505
2249+1052868644+1053978030+1055320292+1056665744+1057023390+1056350924
2241+1056016253+1056883911+1057970712+1057744734+1056120065+1054401087
2232+1053648956+1053835687+1054377656+1054864302+1055379715+1056389325
2224+1058127894+1060163384+1061794757+1062524498+1061998280+1060267847
2215+1058343393+1057640142+1058563122+1060110990+1061120990+1061662243
2207+1062751061+1064575999+1065746240+1064908001+1062350003+1059471328
2198+1057546548+1057165537+1057882260+1058430868+1057916886+1056474782
2190+1054653945+1052783772+1050963651+1049308391+1048412356+1049277931
2181+1052062102+1055516200+1058338511+1060101748+1060423141+1058752586
2173+1055744651+1053487414+1053575735+1055720634+1058586813+1061264439
2164+1063486985+1065405972+1067482596+1069286056+1068763418+1065076638
2156+1060849062+1058991581+1059834115+1061989168+1063972720+1064995607
2147+1065172510+1064835691+1063677556+1061369617+1058468422+1055769904
2139+1053668352+1052884069+1054537116+1058563187+1063078507+1066072385
2130+1067017234+1066629713+1065795185+1064868039+1063781758+1062797728
2122+1062705957+1063772191+1064992027+1065213318+1064607240+1064141292
2113+1064019972+1063601927+1062653823+1061802047+1061640309+1061910545
2105+1061811029+1061049005+1060323820+1060422295+1061078229+1061378794
2096+1061154509+1061028178+1061147935+1061049135+1060754623+1060800898
2088+1061182236+1061375280+1061309543+1061298023+1061271989+1061072046
2079+1061128800+1061842205+1062615683+1062465400+1061412444+1060444099
2071+1060263681+1060783781+1061687561+1062865612+1064239897+1065390612
2062+1065493838+1063853418+1060739067+1057653484+1056509863+1058145923
2054+1061153663+1062411054+1059818170+1054803707+1051433634+1052425801
2045+1056605344+1060989777+1064322816+1067148251+1068975142+1067789475
2037+1063389552+1058907230+1057229516+1057799732+1058692577+1059636841
2028+1060994398+1062075537+1062572336+1063826472+1066728318+1069580439
2020+1069912376+1067571959+1064529268+1062708235+1063127192+1065402262
2011+1067200905+1066311835+1063599128+1061569300+1060628942+1059400970
2003+1057767189+1057255876+1059045472+1062424396+1064954082+1064730773
1994+1062591666+1061147480+1061783497+1063470714+1064304071+1063153551
1986+1060123031+1056284081+1052880359+1050911322+1051564977+1055921163
1977+1062918527+1068532559+1069359277+1066341188+1063061846+1061561815
1969+1061373978+1061643563+1062317460+1063179390+1063338395+1062384564
1960+1061305833+1061481174+1062769025+1063430947+1062270989+1060199181
1952+1059290715+1060738091+1063891558+1066881660+1068261086+1068229325
1943+1067909168+1067731159+1067356265+1066716408+1065937787+1064855998
1935+1063523889+1062549946+1062316159+1062513564+1062768049+1063038740
1926+1063295178+1063428018+1063483015+1063530918+1063422420+1063100897
1918+1062985890+1063470844+1064047829+1063804994+1062792261+1062170822
1909+1062731926+1063797639+1064295935+1064139795+1063768676+1063236145
1901+1062455898+1061777900+1061704288+1062265197+1063029172+1063651978
1892+1064124044+1064346377+1063961135+1063143853+1062883055+1063516469
1884+1063815082+1062424136+1059861191+1058036318+1058071530+1059535958
1875+1061478636+1063394303+1065321556+1067388548+1069121129+1069455474
1867+1068302416+1067091757+1066911795+1067599881+1068342964+1068441960
1858+1067802232+1067023156+1066906328+1067685273+1068835923+1069696877
1850+1070082705+1070264815+1070578398+1071062375+1071302216+1070849219
1841+1069970107+1069333894+1069222467+1069267507+1068835533+1067882353
1833+1066998424+1066478324+1065951585+1065232779+1064843371+1065064923
1824+1065443982+1065507245+1065331579+1065240394+1065457845+1065991808
1816+1066614353+1067181510+1067788955+1068330207+1068374661+1067925309
1807+1067633725+1067914831+1068591201+1069384466+1070170701+1070781335
1799+1071042524+1071058860+1071132082+1071428482+1071708806+1071374135
1790+1070307967+1069226763+1068597514+1068215461+1067812841+1067577296
1782+1067690220+1067711633+1067182161+1066500583+1066428989+1067156452
1773+1068114969+1068306972+1067341881+1065964472+1064922906+1064377488
1765+1064305047+1064710662+1065333076+1065681675+1065706928+1065643275
1756+1065396990+1064973217+1064911711+1065660132+1066887843+1067686445
1748+1067670499+1067183983+1066537031+1065900754+1065422764+1065053858
1740+1064626831+1064346767+1064708969+1065786138+1066676966+1066368069
1731+1065336656+1064357181+1063647161+1063287433+1063308911+1063577975
1723+1063902102+1064317804+1065155002+1066587928+1067759276+1067430528
1714+1066048498+1064899996+1064716129+1065503666+1066803883+1068152133
1706+1069361686+1070470746+1071631810+1072902999+1073741823+1073333736
1697+1071756319+1069638560+1067810693+1066898908+1066811563+1066995495
1689+1067021790+1067071385+1067511950+1067916393+1067201166+1065450360
1680+1063431207+1061529793+1059774106+1057902567+1055785199+1053641276
1672+1051186895+1046942786+1039323464+1028817786+1016051291+999026174+975161526
1662+946760925+920852066+901595225+889076772+882853147+884931333+897609116
1652+911367257+918998230+926345429+939309784+956536277+970266495+978824093
1642+985370413+991685288+998109051+1004912915+1011843435+1016622743+1018076042
1632+1018106112+1018485822+1019845006+1021953067+1024296478+1026609233
1623+1028314999+1028345654+1026534514+1023475812+1018836503+1011564218
1615+1002587273+994353541+988011395+983297954+978695549+972392194+964682598
1605+958576713+957629131+963250127+973500148+984702829+994269581+1001479709
1595+1006084392+1006860995+1001431220+987405773+964914173+939091877+918666813
1585+910414597+915126672+928610216+945428165+962235180+978893410+996091850
1575+1010913426+1020036879+1025346765+1029935503+1034591733+1037935837
1567+1039173051+1038883354+1037739603+1036292553+1034935776+1033388039
1558+1030567094+1026714932+1022769307+1018615017+1013354270+1005078167
1550+992155337+975558939+957926117+941108623+926884729+918156672+918660044
1540+929638960+942867759+951958083+959282698+968179197+978368949+986863219
1530+993243765+999268162+1005452801+1010333122+1012286799+1010520113+1005058642
1520+997839401+990116267+979523114+963186538+941745291+918707947+898377128
1510+884871129+880639908+884581758+889967079+893128877+897323650+904608497
1500+914250033+924109019+932979224+941225256+949141630+957222475+966834201
1490+978671467+990504633+999283457+1005168311+1009765509+1013887907+1017504850
1480+1020017158+1020612106+1018600112+1013336306+1003702711+988702150+971397424
1470+958287407+951832077+951252099+956234930+965719739+976034325+984415020
1460+991413815+998935705+1007965434+1015602460+1018402642+1017276399+1013642534
1451+1007937643+1000739229+993764581+989592978+990042720+995386842+1004257697
1441+1013873133+1021959315+1027917455+1031415942+1031863601+1029964986
1432+1027085595+1023994480+1020882668+1017554120+1013151593+1005929488
1424+994426567+979092637+961720092+945583590+936519821+936961752+942856304
1414+949720828+954507230+954657513+948803119+937844119+924548217+912617683
1404+905307388+903595113+906902899+914503541+924853404+936070013+947635482
1394+959195939+969373650+977602500+984753401+991623001+997721140+1001850893
1384+1003673748+1003533033+1001512773+997678054+992802679+988224616+985201450
1374+984522867+986146430+989396484+993684005+998378311+1002549263+1005570150
1364+1007228989+1007060027+1004513224+999519458+992200311+983372152+975815702
1354+973351427+977589287+986556274+996703981+1005345800+1011538249+1015508802
1344+1017768903+1018835983+1019292168+1019663547+1020218012+1020917488
1336+1021557867+1021935103+1021966930+1021785992+1021760348+1022292359
1327+1023418602+1024580642+1024905875+1023746373+1020927707+1016537221
1319+1010520373+1002297967+990545442+973632207+951040961+924683465+898375500
1309+875925881+859485493+848552397+840711719+834487899+830913457+831368471
1299+835065664+840080648+845901913+853570830+863904422+876606352+890662520
1289+904887260+918280074+930196159+940134290+947303219+950539866+948905499
1279+942551768+932971869+922351119+912751304+905804642+902672068+903745591
1269+908318317+914882991+921992692+928861447+935247656+941015941+945985559
1259+950121690+953664435+956969031+960249546+963484826+966491850+969057268
1249+971086966+972715280+974214984+975752959+977193241+977977589+977049011
1239+972886585+963715620+948169640+926649574+902335444+880070928+863630671
1230+854170790+850801304+851412654+853077546+853468320+852960912+854671364
1220+861674260+874256432+889891059+905422134+918999727+930355749+939966108
1210+948285037+955627485+962391972+969016590+975572542+981479720+985658743
1200+986971782+984865543+980199224+975496196+973594848+975356718+978644327
1190+979460436+973863261+959691696+938421690+915959769+900033168+895387546
1180+901408169+914032907+928867890+942470216+952328942+956835866+955022318
1170+946192662+930467632+909843991+888156915+869694901+857670579+853329362
1160+855793702+862586501+870461611+876254628+878095773+876787615+875712204
1150+878441248+886131188+897338490+909854535+922155146+933509216+943566584
1140+952082527+958789283+963492896+966358815+967934540+968732230+968903536
1130+968417085+967357230+965871518+963934047+961371819+958251024+955165116
1120+952855550+951345757+949680149+946765872+942128776+935427878+925529319
1111+910783503+890607132+866915677+844016445+826710288+817693250+816172392
1101+818627230+820770697+819429346+813977963+806873468+802329770+803556115
1091+810863547+822127734+834514909+845824786+855179684+863163031+871029353
1081+879387529+887776880+895531711+902546582+908932206+914349549+918115017
1071+919822215+919238851+915037895+904225338+884723580+859548171+836933559
1061+824550549+823800827+830362832+839279963+848372956+857700193+867610467
1051+877854695+887819576+896905019+904604202+910391557+913550231+913351134
1041+910097760+906109504+904758129+907934051+914831118+923284774+931641843
1031+939046968+944355813+945589773+941627746+934915653+930782126+931886565
1021+934266879+931658374+923587878+916388488+915895269+921885431+930287930
1011+938131733+944928372+950991561+956120704+959707642+961531279+962372511
1001+963580827+965742063+968077533+969459888+969720231+969696410+970314854
992+971907436+974191684+976632332+978867636+980856004+982584355+983773340
982+984114194+983707213+983002205+982424244+982321538+982977212+984148429
972+984832805+984080805+981877263+978864316+975759273+973627065+973920602
962+977175017+982025919+986426949+989657152+992511941+995811331+999424368
952+1002689002+1005202416+1007062826+1008628983+1010134415+1011413479
943+1012027888+1011740860+1010778503+1009505883+1007899698+1005331481
935+1000700048+992936626+982132595+970727042+963038533+962537113+969170713
925+979640854+990227108+998904724+1004979823+1007759959+1006394135+1000859182
915+992242747+981454402+968312753+953122011+939011041+931085685+932421830
905+941606463+954531181+967634104+979064715+988051163+994539035+999209195
895+1002809410+1005098149+1004621526+999453722+988225592+971497006+953277826
885+940425288+938367278+946760990+960307993+973670543+984551309+992841470
875+999021878+1003805547+1007913431+1011550875+1014479536+1016620140+1018307552
866+1019989301+1021779353+1023326636+1024158235+1024096795+1023223540
857+1021471303+1018348100+1013070301+1004935304+993612020+979497210+964471785
847+952170458+946263801+947687160+954040761+962018640+969704611+976377652
837+981302296+983454420+981966301+976353180+966088319+950027576+927455531
827+901025139+877782450+865171836+865741726+876492582+892372972+908939755
817+922481551+930275368+932651387+934133779+940375563+953141992+969072368
807+983071391+991272449+990453411+977241795+951561061+921156406+898297072
798+888742426+887058724+886316682+888235018+898881542+918232171+939560494
788+957062494+969707019+978932721+986079001+992003947+997276280+1002088521
778+1006265200+1009538686+1011873049+1013565082+1015063550+1016647606
769+1018221313+1019477207+1020305878+1020953481+1021720125+1022417649
761+1022020496+1019016205+1012278208+1001576947+987547074+971331037+953642631
751+934184025+912791137+890509959+868727597+849287345+836892099+838068914
741+854728380+880893221+907979091+931204987+949516068+961677331+964103921
731+953062458+930753878+908438921+898889938+903873289+912006203+909914088
721+893484635+869334587+848392222+838389851+840572695+851282808+865678723
711+880353465+893411154+903776051+911453365+917445480+922416726+925839778
701+926537627+923305731+915280274+903020471+889458109+878744091+873585920
691+873833245+877219784+880912812+882849958+882503051+880488518+877272504
681+872541619+866005648+858336145+850914423+844949058+840794377+837301293
671+832202805+824811022+819914169+824607304+835455788+844725033+850575586
662+853966096+855881047+857208275+858758942+860954347+863850921+867257832
652+870779099+874233457+877994239+882533641+887809162+893348086+898727679
642+903765052+908364854+912555722+916701485+920782164+922751852+918931256
632+908267550+895790361+889290904+892172052+901145352+910312803+915547256
622+915981507+914010452+913304077+914978472+917031730+918567232+921596971
612+927327312+933879164+939015857+942720405+946041403+948853040+948822254
602+941664780+923978457+898184148+873554939+859767249+859736594+869289352
592+882194284+894501014+905154306+914364128+922330227+929089898+934763353
582+939484930+943261528+946144368+948249630+949538848+950169789+950953616
572+952547565+954057878+953362372+949801794+946045698+945617109+948910315
562+953254525+956523129+958758172+960305780+960870463+961054331+962601743
552+966022322+969368638+970412287+969267104+967752821+966892062+966504282
543+966573468+967091029+966463408+961823383+952044322+940062630+931442680
533+930244908+936163607+945460318+954124005+959792774+961723477+960043159
523+954212001+941934625+921598989+897654937+881279440+881017014+894644202
513+913119299+928645883+937765561+940771869+940989386+942878238+948127009
503+954217403+957744918+958000510+955354971+947433651+929806882+901580255
493+870285814+849306285+847377536+861141208+879888623+894537201+902189262
483+906073121+911452649+920404276+930438864+937778838+941530834+943980659
473+947383014+951893518+956567322+960753570+963790794+965178876+965504826
463+965754625+966016269+966137719+966942243+969154767+971714197+973531454
453+975233966+977184780+978089276+977045692+975520343+976017598+979361181
443+983728171+986326782+986158796+984440143+982622430+981702443+982642346
433+985292115+987272412+986061037+982061847+977452477+972133544+963395333
424+950175777+935003975+921292175+913132446+914404546+921793270+928494689
414+931797723+932793664+933215224+932537031+929613837+926455944+926909982
404+932023766+939000822+943205228+939903821+929353364+921384271+922521449
394+928055490+933231951+937781897+941000060+939808666+933453308+927152101
384+927144095+932121004+936508951+938842469+940860907+942820181+942589257
374+940018372
##END=
