##TITLE=X7360
##JCAMP-DX=4.24
##DATA TYPE=INFRARED SPECTRUM
##DATE=26/10/2018
##SAMPLING PROCEDURE=Diamant-ATR
##ORIGIN=ComPlat
##XUNITS=1/CM
##YUNITS=TRANSMITTANCE
##RESOLUTION=4
##FIRSTX=3997.453
##LASTX=373.96442
##DELTAX=-1.4165319
##MAXY=0.98617405
##MINY=0.59680384
##XFACTOR=1
##YFACTOR=9.1844615e-010
##NPOINTS=2559
##FIRSTY=0.95762354
##XYDATA=(X++(Y..Y))
3997+1042656162+1042646233+1041927820+1041078639+1040339070+1039940925
3989+1040437909+1041935543+1043541880+1044154445+1043499307+1042277876
3980+1041458808+1041277290+1040996999+1040009587+1038766480+1037994332
3972+1037645898+1037454776+1037759793+1038838126+1039843515+1039329658
3963+1037095829+1034964992+1034880496+1036618964+1038627080+1040215895
3955+1041341084+1041109985+1038207584+1032900026+1027902742+1026146557
3946+1027072511+1027289917+1025583249+1024838293+1027721938+1032837725
3938+1036997250+1038041318+1034896396+1027935385+1020507569+1017718025
3929+1020894227+1025631922+1027019685+1024708434+1022464286+1022557284
3921+1022921812+1021179191+1018644044+1019268161+1024723425+1032268122
3912+1038118545+1040559980+1039422331+1034123210+1023772940+1009700941
3904+996934545+990607711+991371552+997674893+1008121536+1019189700+1025742247
3894+1024746853+1018292625+1013796348+1015722693+1018930630+1016992084
3886+1010670441+1005863046+1004050920+1003427582+1006665176+1015413782
3877+1023228841+1023460784+1016611656+1007931647+1000878417+997428608+999486241
3867+1003791071+1004697946+1002572365+1003799508+1010771940+1018205208
3859+1020864893+1016950355+1005364116+986657739+973589246+981458040+1000797295
3849+1017476866+1026379344+1027047396+1021125650+1011442654+1000593907
3840+990384918+983923747+985322283+993570206+1002660431+1009178777+1013833080
3830+1017528784+1019234674+1018353693+1016508210+1014284829+1008707558
3822+998812477+992276219+994969716+1001240544+1007005173+1015092995+1025831870
3812+1034145729+1035859666+1030243846+1020607056+1013248161+1009718074
3803+1004786660+996815524+992844006+996931625+1004431867+1012831066+1022978597
3793+1033191804+1040066761+1042637407+1042161191+1039518769+1035190770
3785+1031350669+1030363776+1030808907+1029374612+1026830899+1027854458
3776+1033373776+1038997968+1040455561+1036391045+1028909299+1022918372
3768+1021333451+1022249282+1023602909+1024969061+1024393682+1019273742
3759+1011335378+1006774528+1007579190+1008271838+1002432771+987803305+971157740
3750+965484876+970597223+976067219+978273206+982193066+991053750+999513433
3740+1001734672+994938111+980356928+967176942+968078625+983481796+1001761474
3730+1013432079+1015707962+1010517868+1003335168+1000155332+1002628696
3721+1008568743+1015691932+1022256355+1026033506+1024497518+1015952689
3713+1001998154+991353770+994186081+1007869800+1022171535+1030809491+1032238334
3703+1028495773+1025136236+1026644968+1031290250+1034822997+1035084274
3694+1031496818+1023400429+1010974095+998842784+996264935+1005832609+1019631780
3684+1030596563+1035736945+1034044425+1026357084+1014344016+999001004+985253232
3674+983274969+990797600+995361565+994659896+998605260+1011843849+1026664048
3665+1036458019+1040540057+1041197336+1040078053+1036499943+1029832917
3656+1023027854+1019082814+1014086309+1000768416+978033216+960392841+966128008
3646+988289580+1009897709+1023922982+1030860370+1033924235+1035741748
3638+1036586386+1035435887+1032041371+1026914162+1019049197+1006350814
3629+993122220+992608948+1005869796+1019771828+1026203212+1023575133+1013775840
3619+1003075254+998850442+1000309333+1001661792+1001779840+1003295386
3611+1006022045+1007684777+1009905822+1016212019+1024672740+1029722591
3602+1029042727+1025343259+1022544110+1021312490+1020195218+1019557083
3594+1021322029+1024497453+1024185102+1016648193+1005530448+1001779451
3585+1009568161+1021007992+1029163307+1033182070+1034986603+1036270855
3577+1037667379+1039050924+1039811131+1038580160+1032885944+1020307945
3568+1002702809+990533144+993929218+1008068969+1021786759+1030361894+1035194664
3558+1038494495+1039920742+1037960131+1033265787+1029314387+1028557166
3550+1028629137+1025390958+1019141741+1015444479+1018666174+1026871784
3541+1035060521+1039806199+1040529414+1039221864+1038807624+1040257105
3533+1041667907+1040584641+1036510521+1031178107+1026723169+1024169332
3524+1024102488+1027250719+1033036505+1039013284+1043006802+1044802574
3516+1045257439+1044630661+1042408384+1038699570+1035430825+1034994975
3507+1036895621+1037640836+1035236133+1032252871+1032767052+1036958117
3499+1041445763+1043816525+1044532991+1045103373+1045711331+1045356408
3490+1043827363+1042407411+1042239651+1042657590+1041974936+1039808535
3482+1038002379+1038832999+1042299617+1046001422+1047710945+1047306506
3473+1046215647+1045564793+1045384768+1045313121+1045332201+1045513719
3465+1045501713+1044939248+1044258735+1044264900+1045063461+1046127257
3456+1047093967+1047852421+1048207993+1047838598+1046351802+1043623131
3448+1040553166+1038884009+1039429989+1041240947+1043049829+1044437073
3439+1045350372+1045588870+1045220578+1044786350+1044670573+1044720739
3431+1044710290+1044699712+1044720025+1044484188+1043601910+1042003361
3422+1040316940+1039766027+1041104793+1043636760+1045845084+1046773959
3414+1046429614+1045354331+1044235048+1043604441+1043603013+1044017901
3405+1044478607+1044629104+1044258670+1043294946+1041778946+1040047746
3397+1038653948+1037840720+1037478528+1037661733+1038695677+1040364445
3388+1041906080+1042855721+1043443496+1044111354+1044899336+1045375293
3380+1045109993+1044228169+1043441030+1043357442+1043742867+1043681409
3371+1042545383+1040546092+1038332122+1036408243+1034918786+1033613247
3363+1032046822+1029893206+1026795076+1022074968+1015204359+1006403900
3354+995997234+983098837+965554965+941652977+912407932+882732165+859984180
3344+850222074+855044460+871438807+894100284+918072945+940170529+959061993
3335+974642269+987203395+996931041+1003986542+1008830668+1012383729+1015797130
3325+1019779746+1024051998+1027708115+1030161751+1031561780+1032394022
3316+1032939808+1033121001+1032756798+1031947399+1031242615+1031421796
3308+1032895094+1035130221+1036926642+1037506694+1037160921+1036784842
3299+1037047351+1037909511+1038686786+1038803017+1038541935+1038662060
3291+1039356720+1040109529+1040404681+1040128738+1039531748+1039162872
3282+1039572049+1040769793+1042073644+1042625271+1042098435+1040990314
3274+1040250680+1040488723+1041458743+1042416886+1042964878+1043277943
3265+1043521048+1043524423+1043206166+1042858382+1042798871+1042986684
3257+1043073581+1042804777+1042419222+1042495477+1043216096+1044060799
3248+1044410205+1044169826+1043715480+1043470882+1043544476+1043723268
3240+1043890703+1044245950+1044868510+1045355239+1045250041+1044620927
3231+1043971370+1043753964+1044085395+1044767919+1045441553+1045742936
3223+1045514497+1045025432+1044786804+1044902321+1044927502+1044653376
3214+1044552201+1045064824+1045934707+1046641049+1047011677+1047084362
3206+1046801605+1046152697+1045371788+1044797447+1044552655+1044443368
3197+1044255296+1044031725+1043806920+1043345825+1042651944+1042351989
3189+1042888754+1043669273+1043736572+1043013681+1042256655+1042043207
3180+1042349912+1042899657+1043435903+1043675893+1043388722+1042757532
3172+1042399558+1042695620+1043289559+1043614176+1043659733+1043768761
3163+1043910237+1043681409+1042997587+1042389240+1042468804+1043251854
3155+1044098179+1044279308+1043586789+1042511766+1041876876+1042123615
3146+1042912441+1043530393+1043574588+1043107068+1042423246+1041877395
3138+1041652786+1041590160+1041501640+1041524613+1041803672+1042068452
3129+1041940670+1041354583+1040365029+1038925932+1037169617+1035534141
3121+1034342628+1033590533+1033313292+1033736033+1034836106+1036132235
3112+1037097517+1037504877+1037422911+1037272999+1037672506+1038702945
3104+1039520716+1039190194+1037752006+1036158972+1035364954+1035704367
3095+1036907627+1038458347+1039904648+1040842673+1040910296+1040169429
3087+1039286696+1038918080+1039035349+1039184288+1039215569+1039407016
3078+1039909320+1040328038+1039953515+1038428235+1036188241+1034065062
3070+1032449964+1031205234+1030407128+1030544061+1031735445+1033265009
3061+1034132555+1033784122+1032396813+1030764387+1029672491+1029132545
3053+1028454953+1027100807+1025179328+1023270635+1022046023+1021803762
3044+1022100148+1022091451+1021350325+1020021358+1018211893+1015832305
3036+1013162691+1011033476+1010254904+1011121023+1013344273+1016100979
3027+1018309693+1019258361+1018970866+1017964245+1016953600+1016683368
3019+1017418589+1018523335+1018969439+1018328708+1017085017+1016043416
3010+1015524692+1015082157+1014017972+1012087992+1009578285+1007026330
3002+1005214528+1005002573+1006569583+1008983891+1010857670+1011315195
2993+1010263795+1007949104+1004418693+999555746+993752632+988244736+984316051
2983+982277757+981496784+981147766+980596009+979342194+977088507+973975320
2973+970617925+967742003+965542180+963375585+960310292+955952376+950558050
2963+944610280+938644015+933229182+928805590+925697984+924281471+924699734
2953+926424379+928571895+930725251+933066030+935614676+937620650+937913142
2944+935805603+931560089+926038824+920097804+914247705+908625655+903125027
2934+897535166+891634058+885350964+878971563+873073829+868178044+864490192
2924+861945765+860423989+859918958+860518674+862273042+865171354+869138524
2914+873859216+878755974+883432147+888020383+892864315+898030981+903385655
2904+908922819+914669018+920368815+925640485+930455732+935125220+939763233
2894+944115958+948022773+951706732+955446956+959221316+962819804+966098285
2884+968961876+971236655+972741753+973450950+973447056+972727411+971208425
2874+969008862+966609675+964577352+963200232+962551779+962694488+963431202
2864+964027867+963695723+962236767+959812206+956385760+951935235+946956901
2854+942279171+938535572+936176686+935860701+938414993+944104406+951975147
2844+960272587+967723312+974223747+980237257+985960288+991297634+996253773
2834+1000951037+1005406299+1009550833+1013377760+1016865339+1019871576
2826+1022302497+1024266743+1025883009+1027064724+1027671708+1027816364
2817+1027881066+1028234172+1028986526+1030001649+1031026507+1031824289
2809+1032350931+1032854079+1033619218+1034597674+1035425374+1035796261
2800+1035747978+1035618313+1035738763+1036143008+1036620911+1037011009
2792+1037309860+1037549331+1037731109+1037893027+1038169879+1038740780
2783+1039644799+1040663686+1041456471+1041748509+1041452253+1040846437
2775+1040528570+1040865517+1041598596+1042211421+1042447517+1042311168
2766+1041935348+1041621894+1041648243+1041920617+1042122836+1042194678
2758+1042324342+1042497423+1042450503+1042129780+1041826256+1041763500
2749+1041879537+1042099473+1042494373+1043055540+1043567385+1043798354
2741+1043696206+1043402156+1043144903+1043060926+1043056254+1042903291
2732+1042499954+1041982853+1041565304+1041330635+1041224788+1041194481
2724+1041229331+1041325444+1041524224+1041926133+1042521306+1043096231
2715+1043456735+1043658371+1043863122+1044052622+1044031465+1043700164
2707+1043223299+1042891545+1042869155+1043128095+1043538765+1043903617
2698+1043989412+1043717362+1043293388+1043029321+1043091363+1043458487
2690+1043995512+1044479646+1044633971+1044265030+1043480163+1042735596
2681+1042452839+1042567837+1042668428+1042522928+1042207852+1041825412
2673+1041445114+1041236534+1041350559+1041679523+1041957803+1042085520
2664+1042202141+1042410980+1042630593+1042835149+1043197795+1043731899
2656+1044035034+1043775445+1043238875+1042992979+1043178585+1043496127
2647+1043742088+1043956509+1044100126+1043993695+1043660382+1043409879
2639+1043463225+1043764023+1044209803+1044768503+1045303257+1045582120
2630+1045523972+1045270938+1045046913+1045032376+1045248289+1045516769
2622+1045691862+1045897067+1046313902+1046786614+1046933411+1046670707
2614+1046324934+1046161069+1046097794+1045992401+1045881232+1045797969
2605+1045678363+1045605938+1045825680+1046319159+1046678430+1046601072
2597+1046263606+1046006678+1045866241+1045603277+1045091757+1044541752
2588+1044303969+1044428117+1044511186+1044147566+1043420003+1042782712
2580+1042638835+1043144319+1044123814+1045080919+1045578421+1045626510
2571+1045507229+1045406898+1045411960+1045563235+1045745791+1045825745
2563+1045931462+1046274769+1046722690+1046928284+1046873771+1046871045
2554+1046997919+1047045489+1047092150+1047486920+1048114282+1048412420
2546+1048310207+1048411576+1049036277+1049661952+1049500942+1048306897
2537+1046572777+1045129916+1044560183+1044882009+1045704581+1046597763
2529+1047318641+1047814651+1048147120+1048412031+1048628982+1048726588
2520+1048767538+1049064378+1049786165+1050560649+1050767477+1050153484
2512+1049029268+1048005579+1047532283+1047592378+1047916929+1048421246
2503+1049169382+1050038745+1050714326+1050972747+1050927254+1050991827
2495+1051342402+1051456361+1050726851+1049425985+1048336230+1047628850
2486+1046948727+1046394245+1046494057+1047213962+1047751636+1047566484
2478+1047161460+1047475758+1048665389+1049813357+1049859759+1048648711
2469+1047044386+1046157694+1046516771+1047858457+1049466676+1050527227
2461+1050412683+1049137257+1047614897+1047009665+1047617363+1048718475
2452+1049597314+1050172369+1050475180+1050306447+1049806543+1049575249
2444+1049701020+1049415537+1048264649+1046964367+1046540718+1047093253
2435+1047841324+1048085467+1047837171+1047640597+1047917384+1048524822
2427+1049058472+1049429749+1049752289+1049825298+1049357000+1048586929
2418+1047974753+1047424099+1046591078+1045771426+1045665189+1046390805
2410+1047429810+1048383930+1049162892+1049599845+1049476995+1048852099
2401+1047970924+1047024397+1046240763+1045926465+1046166131+1046718017
2393+1047291190+1047689205+1047745665+1047421114+1046876302+1046264904
2384+1045585430+1044865784+1044385090+1044647016+1046097859+1048779868
2376+1052352463+1056474413+1060805397+1064652117+1067375336+1069239770
2367+1071016138+1072743119+1073741823+1073709569+1072979021+1071866552
2359+1070432062+1068774846+1066929362+1064381106+1060611808+1056561180
2350+1054347015+1055316645+1059109307+1064031310+1068204074+1070819045
2342+1071843059+1071299804+1069834099+1068533882+1067639079+1066557890
2333+1065055648+1063538091+1062391161+1061552234+1060526728+1058716354
2325+1055955624+1052793894+1050169968+1048726717+1048356414+1048352909
2316+1047996883+1047022969+1045644681+1044356600+1043649350+1043667586
2308+1044179625+1044887784+1045548958+1045965339+1046271589+1046951388
2299+1048094423+1048950808+1048698812+1047429161+1046057233+1045434284
2291+1045633519+1045989805+1045918353+1045646563+1045870329+1046807900
2282+1047980399+1048888831+1049606530+1050634762+1052318197+1054443063
2274+1056374666+1057495117+1057432751+1056125006+1054010328+1051979823
2265+1050802456+1050748397+1051791491+1053619128+1055349548+1055958544
2257+1055292698+1054099627+1052883063+1051377381+1049497567+1048182294
2248+1048482249+1049968007+1051054517+1051101763+1051019278+1051489783
2240+1051963079+1051878388+1051698104+1052234999+1053604655+1054892347
2231+1054670398+1052438127+1049610359+1048249787+1048866506+1050184375
2223+1050921608+1051005066+1051022718+1051397435+1052329424+1053740226
2214+1054972755+1055281082+1054818689+1054313009+1053826085+1053074380
2206+1052688111+1053490501+1054854836+1055550730+1055841729+1056850038
2197+1058257400+1058488629+1056851725+1054014287+1050845029+1048063273
2189+1046479714+1046511579+1047806604+1049706861+1051503217+1052370374
2180+1052104880+1051833869+1052867293+1054984891+1056676762+1056799483
2172+1055406333+1053492902+1052378097+1052693563+1053630485+1053845619
2163+1053197036+1052638854+1052507827+1052375566+1052885659+1055487974
2155+1059423669+1061260002+1058514653+1052727309+1048069308+1047396518
2146+1050022391+1052873004+1053626785+1052703232+1051941923+1052113122
2138+1052676041+1053091188+1053126687+1052493420+1051174188+1049633722
2129+1048280354+1047202216+1046407743+1045883698+1045510733+1045145816
2121+1044700361+1044082280+1043205582+1042157621+1041416689+1041711518
2112+1043303188+1045468290+1047021801+1047330323+1046706595+1046035168
2104+1046086307+1046954049+1048158217+1049253099+1050026480+1050192941
2095+1049510222+1048253681+1047127649+1046743911+1047295668+1048463040
2087+1049609904+1050277567+1050423521+1050225325+1049901747+1049598807
2078+1049257837+1048875397+1048919138+1049820366+1051025184+1051313133
2070+1050047571+1047547923+1044580950+1042234070+1041797442+1043782389
2061+1047165224+1050188334+1051895002+1052638984+1053285361+1054263752
2053+1055255966+1055450528+1054313918+1052548452+1051710759+1052225848
2044+1052946143+1053222735+1053625228+1054049267+1053477976+1052401330
2036+1052593491+1053626980+1053057117+1051033880+1050502826+1052278675
2027+1054196064+1055278421+1056849714+1059149218+1060028057+1057622445
2019+1052818685+1048625607+1047172947+1047926729+1049439419+1051503866
2010+1054317487+1056773070+1057286602+1055677020+1052845293+1049496594
2002+1046181252+1043768631+1043019976+1043612683+1043861694+1042166058
1993+1039105373+1037237305+1037947541+1039898223+1041493463+1042768694
1985+1044189165+1045528905+1046597568+1047607369+1048453565+1048980336
1976+1050086769+1052992415+1057168813+1060002163+1058927919+1054279327
1968+1049948343+1049801221+1053193596+1056170304+1056589605+1055618807
1959+1054675980+1053265308+1050483032+1047028161+1044638060+1043964102
1951+1043804325+1042584321+1039916913+1036354183+1032695275+1030453270
1942+1031519272+1035806580+1041016338+1045204029+1047504507+1047395025
1934+1045167621+1042341346+1040415584+1039731113+1039483205+1038080061
1925+1034487803+1030176937+1028049215+1028520564+1029571186+1030731225
1917+1033540238+1037714560+1040420581+1039795231+1037249117+1036114453
1908+1037997836+1041250033+1043448493+1043985258+1043726253+1043333170
1900+1042619300+1041225242+1039614752+1038979667+1039355487+1038673157
1891+1035555882+1032218735+1032180380+1035385072+1038956499+1041102911
1883+1041692503+1041153790+1040359707+1040249252+1040811977+1041236015
1874+1040499172+1037041380+1029469751+1019696028+1014473032+1018655531
1866+1028458782+1037068572+1041246853+1041667907+1040775115+1040560629
1857+1041438300+1042553949+1042971433+1042373275+1040509685+1036796588
1849+1031035333+1023859837+1016917192+1013835675+1017642095+1025343648
1840+1031263447+1033235740+1033009832+1032940198+1032596372+1029378960
1832+1022389135+1015228046+1012763573+1014407420+1016759687+1019864047
1823+1025269795+1031441136+1035263715+1035799701+1034661987+1033368649
1815+1031345996+1027470591+1022828100+1020453834+1021753726+1024921037
1806+1027080559+1026046031+1021335528+1015333310+1012039319+1012767337
1798+1014831849+1014855082+1011025105+1004600470+1001804112+1007937033
1789+1018722634+1026552100+1028583579+1026672225+1023483044+1020119353
1781+1017795707+1017862161+1018804405+1016843534+1009683094+999054285+991464290
1771+992346828+999359237+1007701586+1014466931+1017120840+1014204292+1008266192
1761+1004338739+1003162801+1002242298+1001571195+1001164484+997263380+986078855
1751+969941371+958047195+955821932+958621795+960253961+958639577+953654818
1741+944898359+933781652+922955425+910045542+887285487+851887402+815421239
1731+786325718+763538989+749871690+749434672+761908251+783634753+807768488
1721+826403090+835858037+839253852+846160738+861571567+878023089+887223445
1711+885673049+873399938+852350444+824703625+793990215+764671382+735747189
1701+701707470+666941550+649797315+658434102+686341355+719361473+745293577
1691+763885800+780393718+796509202+809741755+821085408+839518827+868635245
1681+897161423+918849440+933924037+942441803+945194226+944907899+942389236
1672+935983357+928186989+926039344+928267526+924151612+905267416+871591705
1662+835950775+813346279+805580866+806110623+809517015+819168926+849470109
1652+890207486+913165089+918680772+920007792+931589358+952664486+971139439
1642+981855925+984449025+979004599+967565547+959631661+967396619+984567398
1632+997405570+1001824424+1000042216+996337620+992864189+989129221+986858336
1622+988931544+992321648+990803895+983095333+976407670+976722032+977813539
1612+971269558+953407494+924275631+886430725+844385343+805144238+778090190
1602+771112046+784368286+809517729+836595400+860288678+880590425+899575406
1592+918091959+935305894+950164189+962323405+972031063+979696144+985623341
1582+989637107+990587528+986787663+978303449+971010229+973471458+981971572
1572+986228249+983738400+980750335+984123111+991190942+996076668+996472152
1562+990478370+973670757+946406442+933081800+947104218+965670677+978066638
1553+984144916+986067952+987152191+987671174+982894087+968831693+947599254
1543+925371421+909316291+910884923+927923311+940479245+938302526+922121366
1533+901514212+886593812+876174685+866932665+862306334+865907289+873179352
1523+878920553+885095593+893054334+898969136+903604099+912039965+923270632
1513+929981723+926605248+911876748+888310993+867470145+863707336+863391546
1503+849917446+824414962+797577087+785216883+800382531+837916319+875658492
1493+899077450+908365741+912550706+923737697+944325706+965447495+979824576
1483+986148425+986965092+985054517+980083386+969596182+952858334+933327242
1473+919801418+921158874+932949475+942626696+943658043+936967784+928581110
1463+922754049+915850538+902009833+880202339+861709539+865811241+886463563
1453+905194991+916180865+919657087+917860406+915452328+916375037+919575316
1443+920930176+917371535+908392998+896395440+888254792+893887875+912492039
1434+930705327+940498000+942556152+941520002+941228289+942396180+945473284
1424+951246286+957288935+959157782+957915194+962306532+975445113+989815250
1414+999147607+1002999454+1004318102+1005164687+1004549526+1001374167+997924423
1404+997178429+997154742+993143312+984129666+973822163+965801899+960648537
1394+957438848+953737237+946622550+936552117+929462025+932549837+944575690
1384+956355907+961298353+959152979+953022394+945126408+934812286+920377641
1374+902174347+882822307+865053435+852915894+852527809+865316464+883832238
1364+899600652+910556673+918263094+921092225+914548569+896374089+869552828
1354+842057349+822775916+816461218+821992931+833934417+846057616+854761313
1344+859387190+860440018+859496866+860662681+868873094+884544745+902834482
1334+918471414+928532761+932213410+929985227+922772610+911368343+896346248
1324+878288454+858171210+837926832+820775263+810145870+806984594+808625587
1315+811560046+814623132+819009214+826252658+836985108+850820297+866324903
1305+881317339+893785337+902668929+908189610+911961504+916457587+923473435
1295+932761273+942328557+949964629+954461556+955867620+954875406+951998575
1285+947602174+942612418+938300838+934807873+930231902+921692265+907669848
1275+889929142+873490275+863966341+863612067+869465476+875485606+876242308
1265+868686255+851863390+826600507+795920259+764882817+738970442+722262770
1255+716642343+721718217+735222819+753932572+774568799+794283875+811019387
1245+823894940+833287716+840221664+845300330+848019980+846992202+840801522
1235+829093535+813605738+798374998+788249402+786255564+791910127+801909953
1225+812300719+820071193+823366871+821157638+813188708+800106003+783451807
1215+765522769+749092469+736888473+730901116+731873147+739291424+751786030
1205+767574950+784850862+802144102+818502367+833394407+846491260+857398738
1196+865361113+869098871+867077711+858563968+845195066+831431070+822425796
1186+820679670+824738410+830965562+836183108+838970056+839332377+837682170
1176+834251830+829202303+822753073+815025625+806005295+795657101+783924000
1166+770790221+756489589+741415706+725769819+709614812+693411522+678304672
1156+665750880+656875984+652134784+651397097+654175154+659729582+667052654
1146+674908144+682046908+687440065+690308525+690235515+687698421+684412868
1136+682647208+684013165+688950614+697022926+707311219+718733008+730455985
1126+742106732+753517748+764471693+774857527+784860597+794707005+804273446
1116+813125368+820847170+827191526+832130403+836067850+839877644+844431031
1106+850033223+856341821+862693706+868362871+872492739+873875310+871014314
1096+862885607+850291903+836729218+827274530+825603555+831731674+842682828
1086+854995138+866470272+876229264+883694202+887449222+885326498+876459260
1077+863558397+852459796+848590946+853535923+864831422+878527860+891560270
1067+902418491+910855135+917376402+922585316+926621861+928963225+928546001
1057+924113517+914564533+899301280+879161906+857623672+840323878+832035004
1047+833404401+840666016+848868382+855560133+861204963+866424520+870001527
1037+869967262+865867896+859789748+855739704+857510751+865970369+878339139
1027+890544368+900121063+906888225+911715673+915354333+918199105+920486279
1017+922376931+923959711+925336312+926751786+928623358+931358973+935050005
1007+939360741+943701784+947432208+949840676+949653187+944654540+933276427
997+917819586+904561983+898221325+896744004+893356561+882981954+864839339
987+840110885+810686594+781511963+761415032+758097613+771776270+795099049
977+819184437+838552247+851157049+856734190+856760214+854964506+856079571
967+863024877+875102647+889064386+901786067+911868376+919415345+925228387
958+930270645+935283245+940475221+945493013+949797973+953157056+955772481
948+958025519+960202433+962342096+964247934+965785025+967149555+968617142
938+970066298+971018406+971219652+970970901+970643430+969889778+967583978
928+962493566+953798500+941591454+928026498+917715555+915313188+921851263
918+933883282+946388530+956163487+962698252+966868096+969469698+970737725
908+970567435+968708647+964741737+958417888+950605425+943801206+941058064
898+943871490+950972419+959307305+966321207+971292662+974768300+977449595
888+979812310+982015572+983582257+983278213+979278595+969632265+953951658
878+935762641+922069513+918751381+926077633+939141583+952127461+961737383
868+967695990+971413955+974313565+976893685+978921725+980033285+979820357
858+977608464+972627793+964276099+951735286+933702413+909880898+883216104
849+859128120+841414152+830300690+825627957+829666189+844302859+866798133
839+890813172+911226867+926584935+937711506+945643380+950882536+953529891
829+953563962+951002856+946094870+939787181+934009766+930885158+931168499
819+933603509+936126001+937715011+939011788+941349063+945426818+950882796
809+956856200+962678004+967998996+972561079+976099602+978432335+979646368
799+980252184+980924974+981872539+982692581+983001751+982904665+982688362
789+982254394+980796412+976610993+966860698+947946779+918197677+882490422
779+853336558+843632016+856255118+881973710+907869082+926068353+935155917
769+937074734+934723377+930802284+926276089+918889742+903523756+874850846
759+831243647+778034183+727380699+693123898+683524294+697648470+727821546
749+764865749+801743556+834268638+860104305+877968511+887812063+890993067
739+889806616+887097934+886000845+888834519+895618490+904164487+911954300
730+917711402+921396009+923492321+924589668+925134221+925289521+925246364
720+925525747+926470261+927592660+927998008+927305100+925709471+923276732
710+919500360+913321167+903294020+888215140+868124179+844309803+817795570
700+788263680+755509965+722823872+698397190+691128956+703791646+731188221
690+764597010+796544896+822318001+839965710+850277171+855619255+857975999
680+858339943+857608745+856965224+857008900+857217090+856943289+856729387
670+858190485+862328269+867042926+869795349+871626750+874202457+877970198
660+882663828+887846718+892805843+896597076+898746928+899682292+900250014
650+900773021+900725840+899594356+897715126+895738680+893706747+891423271
640+889378229+888366870+888391725+888937187+890092553+892311780+895230210
630+897701044+898929159+899146176+899387139+900491366+901985107+902622982
620+902392337+902871863+905118282+908354449+911356077+914014205+916907000
611+920214489+923497123+926223003+928381681+930520500+933099063+936080119
601+939285849+942605928+945451868+946486006+944573159+940150540+935281818
591+931744397+929098406+925384335+919414371+911652463+903575998+897004696
581+893109432+891153558+889398931+887649106+887224613+888493614+890374597
571+891998586+893451376+895310034+897923511+900881853+903468529+905596705
561+907617021+909470163+910724108+911138737+910969095+910955402+911582050
551+912083122+910847997+906925606+900311926+890567082+876135812+856551634
541+836090694+823376995+824635872+837893994+855611857+871889843+885207801
531+895479221+901777046+903867452+904210175+906439006+911269959+915894084
521+917679343+916525859+914676806+915070213+918532871+922942057+925976069
511+927318469+927751269+927536329+926282579+923566952+919900516+917779284
501+920294313+927365389+935422774+941029509+942845789+941361004+938153327
492+934525375+929958814+922075419+907731500+884253357+851931597+816414297
482+786702122+770078947+768922802+779787837+795150578+808608259+818651111
472+827038109+835110680+843295134+852018495+861201718+870472617+879650583
462+887178082+889948481+887670911+885751056+888891629+894836673+900215942
452+905208943+909938786+912166709+910727937+907422979+904631033+904080964
442+907031713+911782193+913594709+910409097+906150668+906064225+910246010
432+914945026+917861899+918838018+917138748+911425063+902248655+891634901
422+879583025+865766007+857704339+866023649+882751828+892666379+892461433
412+886560130+879028867+869694498+856689281+840382739+823242398+807368072
402+793166279+780395665+771470214+773322123+788941727+809912629+828454362
392+844398517+859841860+873177145+878409033+872305186+862802214+862898262
382+871206735+874792568+868013335+852435784+828927528+802645563+787384711
##END=
