##TITLE=X8029
##JCAMP-DX=5.0
##DATA TYPE=LINK
##BLOCKS=1


$$ === CHEMSPECTRA SPECTRUM ORIG ===
##TITLE=X8029
##JCAMP-DX=5.00
##DATA TYPE=INFRARED SPECTRUM
##DATA CLASS=XYDATA
##ORIGIN=ComPlat
##OWNER=
##XUNITS=1/CM
##YUNITS=TRANSMITTANCE
##XFACTOR=1
##YFACTOR=8.9277369e-010
##FIRSTX=3997.453
##LASTX=373.96442
##MAXX=3997.453
##MAXY=0.9586084485342632
##MINX=373.96442
##MINY=0.4390487961095667
##NPOINTS=2559
##XYDATA= (X++(Y..Y))
2559A004376609A005009927A005217829A004750351A003976563A003272742A002738435
2552A002548960A002924638A003650156A004262711A004733059A005280319A005620479
2545A005219698A004247956A003556554A003677396A004360252A005052856A005378528
2538A005231181A004758496A004259706A003998394A004060151A004305974A004514876
2531A004613019A004607143A004342426A003669584A002814411A002306342A002566586
2524A003518833A004512740A004967866A005113277A005615338A006410958A006787170
2517A006518047A005809219A004614487A003033529A001982472A002313419A003453605
2510A004188870A004172714A003895912A003819936A003830618A003504078A002710995
2503A001877186A001709209A002468644A003724130A004991901A006103779A006792510
2496A006445942A004731524A002263413A000255369I99332097I99377162A000506800
2489A002624403A004661756A005569405A005300081A004696606A004740937A005334264
2482A005476070A004762635A003716719A002858609A002022797A001361973A001889337
2475A003676327A005178572A005193460A003736949A001722162A000395372A000748417
2468A002478458A003925222A004096069A003445393A002975845A003060368A003340708
2461A003408272A002930914A001577685I99527781I98652245A000660623A003963477
2454A006749449A008275861A008224654A006736964A004487704A002302136A000782333
2447A000462803A001718556A004077910A006431588A007829147A007858590A006964761
2440A006158058A006089359A006494212A006438598A005345948A003853184A003328490
2433A003833021A004506664A005588833A007454738A009154001A009607725A008664158
2426A006892456A005580221A005817631A006594558A006053774A004254032A003222670
2419A004083584A006086822A008525089A010731220A011929424A012124774A011984436
2412A011933096A011895174A011797232A011808248A011862260A011421955A010201920
2405A008881940A008494245A009033827A009695853A009955296A009717952A009093246
2398A008292485A007540061A007151365A007529847A008528828A009231513A008906976
2391A007782146A006769211A006352407A006030139A004924337A002712197A000682722
2384A000773119A002192710A002842586A002184899A001318777A001369784A001688780
2377A001028690I98905278I96081185I94372775I94885184I96945504I99455142
2370A001582359A002780095A003113445A003193027A003500339A004081448A004933950
2363A006110589A007519031A008816378A009340137A008429751A006335649A004854969
2356A005567936A007497667A008959786A009421255A009140314A008698808A008597460
2349A008736596A008770779A008804294A009155403A009809551A010396469A010612382
2342A010645429A011068576A011909061A012602466A012866115A012673636A011973955
2335A010787836A009222767A007408805A006169942A006786703A008383484A009055525
2328A008868721A009915705A013107532A016716162A018918488A019083794A017736708
2321A015870136A014138493A013068141A013263558A014196644A014107047A011932295
2314A008347365A005793263A006211469A008684787A011667578A014242644A015821265
2307A016419599A016594586A016521480A015694949A013849941A011458074A008892155
2300A006036348A003787822A004383753A007351254A010025130A011302181A011484112
2293A011247235A011245900A011793761A012506928A012864646A012961921A013279915
2286A013863961A014476383A015339968A016511466A017092575A016371329A014859404
2279A013656728A013178835A012938620A012557801A012351569A012813572A013661001
2272A013887262A012976942A011982901A012938353A015907724A018694564A019724123
2265A019131997A018253324A018209394A018761995A019088067A019109231A019098816
2258A018671196A017311826A015654223A015321674A016598659A017888996A018270415
2251A018075934A017924648A018152244A018597690A018690491A018040349A017062798
2244A016597791A016747875A016846618A016519411A016143599A016375268A017599109
2237A019729597A022057171A023522829A023670777A023131395A022747772A022647894
2230A022542675A022340983A022126271A021864692A021520593A021436805A022174007
2223A023665569A024964318A025315094A025085895A025163207A025707796A026044150
2216A025654052A024835732A024300222A024270379A024280394A023903514A023256777
2209A022616983A021900010A020871853A019505739A017923980A016265575A014579799
2202A012638051A010044024A006714999A002990467I99094019I94755530I89536498
2195I83356006I76546936I69321529I61390500I52312741I41875078I29892175I16118276
2187I00761149H84671159H68888615H54477860H42714608H34842598H31513238H32590800
2179H37432752H45226316H55041810H65770161H76281331H85821693H94335902I02246034
2171I09743569I16486743I22204765I27242134I32164268I37132537I41860791I46042185
2163I49726258I53274068I56969892I60733681I64248976I67315221I70043042I72655695
2155I75053237I76780408I77703412I78487749I79973970I82262554I84803437I87092756
2147I88937697I90341331I91433314I92444046I93597651I94960026I96419542I97846677
2139I99123995I99948390I99932033I99098559I97998831I97181914I96782201I96612889
2131I96353847I95683942I94475123I92811579I90783839I88367403I85471539I81878197
2123I77067090I70331660I61237611I49796560I36059114I19890611I01460963H81842859
2115H63020442H47328630H36536520H31120803H30556051H34243863H41587975H51302457
2107H61613536H71348981H80238801H88251950H95386692I02005085I08614599I15208223
2099I21277888I26478627I30886216I34678379I37977695I40941925I43693514I46269181
2091I48835501I51733301I55052112I58323854I60901391I62638909I64000950I65477290
2083I67087491I68510085I69493378I70088374I70584026I71222752I72044676I73065423
2075I74310294I75497682I76124056I76124791I76077989I76609226I77872991I79489401
2067I80789085I81343689I81337146I81237735I81261703I81356441I81481222I81720034
2059I82195924I82874975I83451277I83573454I83223347I82835985I83024525I84019301
2051I85261234I85875258I85719365I85489832I85665887I86001040I86174558I86158869
2043I85843345I85118494I84468952I84687269I85821580I87033069I87611441I87606834
2035I87387516I87098631I86786378I86733635I87323223I88550135I89860568I90597302
2027I90609520I90453828I90871700I91912876I92780801I92854573I92506403I92422014
2019I92622838I92729994I92660560I92547730I92449521I92497190I92876406I93449170
2011I93831524I93965785I94208003I94721147I95189826I95341112I95400598I95761788
2003I96421612I96983426I97123294I96909986I96668102I96578572I96562015I96647072
1995I97176306I98380651I99948456A001250812A001835526A001643314A000979218
1988A000298498I99907464I99913473A000386425A001309163A002416168A003348118
1981A003947854A004233468A004185265A003837227A003477907A003428301A003671187
1974A003985709A004303971A004622032A004799422A004775654A004712096A004685524
1967A004529498A004069831A003307927A002501558A002143973A002507567A003214324
1960A003679198A003762719A003588934A003171062A002600635A002064524A001508585
1953A000877470A000566887A000939494A001617677A001900353A001660806A001384339
1946A001539564A002166339A002861747A003122057A002841851A002376644A002064524
1939A001913906A001821572A001869842A002231233A002822022A003210853A003028722
1932A002475721A002270890A002934385A004187068A005283657A005890136A006252528
1925A006515910A006516978A006371835A006568186A007231681A007872143A008028236
1918A007767725A007520500A007654360A008162363A008650004A008661821A008058012
1911A007152366A006505829A006434459A006735562A007031858A007165652A007055759
1904A006488003A005291268A003527512A001551114I99990051I99323151I99366013
1897I99590205I99804382A000030843A000083186I99924155A000055880A000961459
1890A002438266A003839097A004763103A005306557A005738517A006145573A006515309
1883A006993469A007710509A008447510A008895493A009170024A009638370A010350535
1876A010980048A011231212A011098486A010820951A010647566A010631943A010728416
1869A010930843A011065839A010707186A009698390A008528160A007816929A007626520
1862A007485115A006814476A005155405A002210002I97869577I92206702I85528221
1855I78569668I72616706I69220515I69427750I72989112I78362568I83662517I87493804
1847I88858983I86836583I80843965I71173080I59313289I47912095I39963507I37317004
1839I39823771I45848571I53199827I59768548I64310933I67102112I69433158I72331692
1831I75920828I79749044I83402807I86783240I89902362I92626911I94817420I96518752
1823I97845208I98880242I99714117A000295093A000348237I99656768I98143040
1816I95544807I91544742I86543026I81909910I79098768I78613198I79938318I82129027
1808I84133733I85003594I84571368I83908473I84534714I87092689I90910556I94701385
1800I97604994I99633668A001113412A001861029A001197668I98589688I93979338
1793I87719130I80497529I73290148I67302402I63750654I63261879I65405453I69036516
1785I73037983I76691946I79724609I82244328I84511347I86701522I88878611I90990005
1777I92850235I94294528I95366082I96248227I97047452I97722297I98197386I98448349
1769I98406222I97873316I96688932I94977719I93200609I91998400I91838769I92633320
1761I93797942I94826633I95708044I96764909I98243586A000053877A001805950
1754A003135477A004027036A004742072A005400093A005753739A005514792A004835875
1747A004233001A004048333A004220717A004502792A004665895A004646601A004657884
1740A004938557A005370717A005660938A005827779A006144372A006668531A007142685
1733A007342041A007339905A007373019A007508816A007555818A007305455A006762000
1726A006167605A005888134A006147843A006800189A007521101A008213638A008995237
1719A009858622A010587879A010994135A011067708A010893322A010543348A010120335
1712A009832585A009877717A010260138A010815409A011352187A011740817A011975023
1705A012158022A012364655A012586042A012825590A013084832A013255880A013190385
1698A012879802A012477018A012154083A011958533A011816126A011679929A011586927
1691A011557552A011609961A011820466A012138327A012262907A011992916A011527775
1684A011168922A010941726A010726681A010515307A010371766A010348466A010520448
1677A010912483A011386303A011809049A012253494A012783729A013196194A013331723
1670A013489686A014080676A014974438A015633460A015813521A015691744A015402124
1663A014963422A014609709A014667192A015084464A015507010A015791088A016082844
1656A016451312A016754017A016823117A016633509A016347762A016229724A016446972
1649A016981080A017696984A018373098A018744703A018705513A018422903A018130813
1642A017883788A017626816A017412572A017367173A017466317A017560052A017629420
1635A017748993A017801803A017588627A017260351A017265692A017762012A018383847
1628A018715260A018749243A018711254A018641954A018426041A018132749A018023658
1621A018227954A018597890A018881969A018963353A018926433A018889513A018840442
1614A018758122A018770006A019029048A019587458A020451777A021477598A022222077
1607A022288373A021835249A021442747A021496024A021905618A022355804A022634007
1600A022682945A022484991A022057572A021553708A021246396A021382326A021992477
1593A022796977A023451058A023947712A024482153A024906969A024813567A024234394
1586A023721116A023615964A023747288A023920071A024184588A024497976A024653334
1579A024730313A025099514A025788780A026360609A026549082A026499277A026315343
1572A025901743A025354416A025102853A025462841A026206452A026767198A026858197
1565A026690688A026576389A026591076A026694092A026915146A027300305A027773724
1558A028178110A028497106A028890409A029368970A029742912A030111446A030837298
1551A031743145A032130239A031984294A032234390A033327908A034418890A034484852
1544A033560245A032334068A031190744A030272012A029935257A030417356A031328544
1537A031991505A032039908A031471550A030554554A029842055A029799794A030325089
1530A030909870A031121577A030788294A030108041A029684227A030003423A030874552
1523A031698747A032068483A031869194A031238814A030593411A030181881A029692772
1516A028933272A028573016A029351945A030821943A031727055A031466677A030578924
1509A029974781A030126401A030804451A031339426A031240683A030595681A029767414
1502A028919318A028079300A027445982A027294630A027644203A028187925A028479079
1495A028183051A027411199A026861268A027288220A028729443A030469165A031732062
1488A032187522A031963597A031512210A031286082A031287284A031164639A030917548
1481A031089263A031995577A033142840A033765476A033732028A033600504A033838115
1474A034257923A034359537A034062173A033762739A033668402A033583546A033532338
1467A033980054A035041058A036020278A036217497A035767311A035300835A035154756
1460A035196817A035149883A034861331A034423163A034159380A034383238A035093134
1453A035977149A036725767A037219282A037473851A037606911A037783100A037981052
1446A038007625A037930380A038105233A038568104A038845373A038587866A038012499
1439A037610249A037658852A038015904A038328290A038511956A038800040A039177521
1432A039193611A038599216A037744644A037104783A036777776A036618612A036545172
1425A036563398A036611535A036350824A035049938A031953182A026960011A020696132
1418A013795262A006434726I98653113I90671944I82715878I74831115I66966315
1411I59059053I51118877I43192054I35164150I27096122I19962181I15197608
1404I13241372I13375300I15136319I19023487I25612772I34705552I45280147
1397I55441676I62707809I65035783I61818987I54811964I48045088I44720135
1390I44468771I45330887I46406580I47885323I49934293I52079403I53692608
1383I54927865I56530188I58605529I60436717I61663161I62834392I64777676
1376I67998411I72628389I78278513I83819411I88034654I90733566I92758836
1369I94931652I97523275A000663827A004532168A008931145A013104060A016281065
1362A018384514A020099533A022212530A024917584A027727257A029916429A031101881
1355A031602274A032157210A033170013A034458147A035780463A037088892A038167390
1348A038704969A038855788A039055678A039294691A039240012A038905927A038597680
1341A038443323A038390180A038372955A038305857A038223538A038433509A039154488
1334A039988229A040135643A039341492A038314203A037890789A038217129A039162432
1327A040746128A042531115A043671635A044214689A045117398A046526774A047438228
1320A047421738A047305236A047740734A048176031A047735259A046503340A045420570
1313A045193441A045785232A046696286A047291883A047255297A046982768A046979430
1306A047044925A046827877A046597810A046593137A046452600A046058295A046055491
1299A047063552A049006435A051320189A053372163A054738744A055312509A055186794
1292A054513751A053400004A051931074A050521765A049928705A050390241A051095997
1285A050895573A049276760A046700626A044157406A042149829A040453771A039453988
1278A040590035A044268634A048693381A052022874A054133266A055316782A055045856
1271A053241240A051387353A050987173A051568482A051365388A049805527A048319306
1264A048727965A051355373A054308520A054952187A053237435A051723574A051726711
1257A052614865A053789368A054931757A055565276A055734788A055731583A054875676
1250A052444085A049174612A046114576A043430686A041769144A042710843A046379694
1243A050463814A052779504A053224816A052754334A051986288A051097533A050126859
1236A049246516A048946281A049471709A050082461A049829228A049058177A048932461
1229A049535735A049768740A049142966A048462580A048606388A049479187A050281216
1222A050482308A050355257A050401190A050484110A050086133A049282569A048746458
1215A048819965A049253660A049763265A050223866A050452665A050408334A050477033
1208A050935898A051335411A051173242A050916537A051420134A052586892A053601763
1201A054214785A054713775A055011406A054892033A054779002A055221577A055958045
1194A056241322A055674768A054235214A052179635A050450461A050456871A052704996
1187A055678106A056632022A054190883A050224801A048498098A050937167A056033020
1180A061338244A065912474A069514361A070944502A068893395A064175423A059608470
1173A057254591A057043084A058300641A060571933A062561283A062786142A061914879
1166A062281277A064588888A066656019A065978503A062797359A060040896A060323640
1159A063443362A066782936A067636239A065630732A063119759A062289556A062362061
1152A061065982A058018164A055141595A054548602A056541624A059039645A059440493
1145A057481987A055367990A055034373A056355421A058074112A059060809A058548265
1138A056549502A054234280A053317284A055147336A060090835A066658956A071450368
1131A071873315A068808939A065109911A062314258A060229904A058890228A058886824
1124A059765898A060226232A060225965A061170801A063582897A065848448A065849516
1117A063022351A058809645A055736323A055730582A058567761A061927698A063534427
1110A063211626A062455196A062342099A062622772A062869263A063182584A063474941
1103A063259896A062451057A061600623A061244107A061501213A062029579A062133997
1096A061515701A060870966A060912960A061152307A060907753A060843527A062004810
1089A063751008A064460836A063800813A063018079A063171367A063818906A064012719
1082A063758352A063683376A063994494A064420779A064789847A065171600A065633069
1075A066138802A066535377A066558878A066028843A065178544A064795989A065742628
1068A068086959A070662560A071826513A071215962A070128719A069774005A070048670
1061A070269256A070215578A070058751A069757247A068921836A067569743A066803432
1054A067584631A069468028A071253082A072058583A071803280A071064742A070591857
1047A070792548A071512525A072224557A072438000A072060252A071382069A070676179
1040A070108289A070127183A071094452A072433393A073354862A073720058A073741822
1033A073462685A072679950A071189256A069147096A067529819A067600454A069219267
1026A071023950A072104917A072568122A072750519A072648371A072399945A072431724
1019A072692768A072568055A071805817A070781332A069947323A069564101A069710713
1012A070089195A070124914A069574716A068846193A068529267A068669804A068779230
1005A068399880A067320982A065686747A064363963A064263083A064842991A064774892
998A063300220A060619535A057691691A055544646A054709502A055081040A056115874
991A057210393A057897923A058077383A058295233A059210493A060811480A062695344
984A064225562A064743713A064210407A063320183A062825466A062719980A062539451
977A062098078A061451875A060374380A058346507A055468001A053197777A052766485
970A053568114A054424088A054802770A054815188A054762045A054735539A054585722
963A054055487A052815156A051097800A050295303A051051399A052736175A054663168
956A056102387A056449691A055769705A054508210A052559452A049379576A045202987
949A041787571A040504511A040468993A040343812A039409724A037298597A033575000
942A027897704A021170953A014878232A007959870I96848497I80192287I61495585
935I40948535I16054584H90710647H69014865H48641266H27144973H06365852
928G87490626G65731686G36182520G07065514F88205909F76948458F70156146
921F69097278F76536995F91379176G08521091G26751850G49327240G75388617
914G98127311H15308148H30479340H47126537H64737999H80004528H91644601
907I00227575I06612497I13400603I24719010I36744842I43793392I48863742
900I56582597I68162583I79314214I87122599I92297433I95857394I98248393
893A000018292A002552966A006539678A010106916A011943444A012256632A011527041
886A010320759A009085635A007899448A007007156A006785635A006753455A005977730
879A004252630A002498353A001467860A000385624I98326306I95240566I91684612
872I88032718I84042735I79340652I73865783I67692167I60673527I52407812
865I42551525I31116416I18502799I05208662H91510473H77676353H64323531
858H51986715H40430698H28829214H16511493H03631556G91266967G80369103
851G71022288G63803491G60508515G60751333G62410405G65246916G70342369
844G77201111G83922120G89763387G94499252G97616771G99430066H02856766
837H11358957H20611636H27207797H32579584H37556865H42265424H46895335
830H51093554H54149650H56151552H57910702H60202691H64770512H73952822
823H84249815H91083521H95334214H99816246I06143551I12851073I18062160
816I21982176I25532122I28764607I31170228I33213055I36133288I39764352
809I42714628I44691627I45894504I45450995I41986573I35009459I24983860
802I12591631I00334464H93616859H91116635H87759970H82537867H77055453
795H74167200H76610942H83792352H91502127H96856689H99588582I00341273
788I00134373H99997842I00410641I01488603I02321344H99686324H89257741
781H69865832H46003576H26383402H20083070H31002431H52389099H72224183
774H86292977H96971255I07195008I18040262I27861765I34685523I38442970
767I40157855I40735560I38870723I31504913I18424018I02562693H88485421
760H79733402H76038646H74394663H73211147H73737444H77887659H85984730
753H97237842I11640719I28097774I41405197I47520862I46027297I35836859
746I15609271H87712701H57928795H33488368H21413599H23466307H35738963
739H53936608H73587026H90076060I02678795I12952554I21862870I29730541
732I36482261I41811920I45864127I49194354I51587824I51563922I47134301
725I36947135I22166376I06752366H94863533H88962780H88813831H92567805
718H99657148I10900646I25317410I38884677I48654505I54868446I58864571
711I61385225I62105469I59467379I50259632I29859127H95768712H52201360
704H11101384G89095753G96231830H26835524H67572441I07218309I38336282
697I58940882I71788105I80245230I86493888I91743097I96406389A000370402
690A003518031A005951626A007835623A009197330A009829714A009338402A007466889
683A004502257A001024550I96864988I90931720I82263823I70642377I56640014
676I41830547I28717873I19679171I15684781I16081423I19329331I23810827
669I28261879I31824376I33897180I33993987I31690916I26649341I18624776
662I07379876H92801544H75473560H57122360H40179734H26787188H18013804
655H13456398H11304145H08969961H03981063G94682518G80510575G61801723
648G39332085G14031745F87178354F60687955F36970910F18537056F07620365
641F05634754F12646651F27412521F47956434F72230620F98561187G25743722
634G52859694G79121027H03943475H27073603H48506137H68246017H86148500
627I01943796I15436554I26719710I36142368I44044422I50571484I55736637
620I59654984I62704471I65341894I67686025I69395236I69967198I68983639
613I66088309I61010549I53700820I44344391I33301116I21150303I08646646
606H96334399H84037173H70713060H54901140H35411556H11667805G83571746
599G51332280G15534924F77284078F38255505F00623623E66744314E38611401
592E17352486E03035132D94889191D91780617D92602944D96423248E02432559
585E09838160E17942641E26442829E35498923E45355610E56013059E67294244
578E78996808E90918288F02892111F14816062F26593601F38101549F49204109
571F59750796F69665835F79065327F88093814F96581517G04045269G10097242
564G14752590G18409558G21796801G25969716G31980562G40208956G50077394
557G60580018G70976021G80925777G90312784G99222699H07919839H16603893
550H25211904H33507796H41290544H48418743H54608716H59320346H61987078
543H62354610H60523957H56779195H51556892H45482354H39116660H32397587
536H24150900H12059973G93400860G66664972G33410101F98809947F69964468
529F53036664F51144722F63676954F86689111G14236041G40273049G60063870
522G70263789G68144183G51367264G19237958F74757415F25406814E80991232
515E49486598E34000551E32899555E42131737E57443799E75491393E94187627
508F12537226F30068171F46399777F61279746F74707944F86797869F97591047
501G07057302G15182012G22024531G27778538G32757622G37182369G40989154
494G44016209G46421095G48723365G51347102G54325018G57563980G61138428
487G65090423G69205655G73284567G77413953G81706442G86059819G90436763
480G95069412H00108049H05280814H10077099H14191530H17785940H21334284
473H25105884H28773333H31520449H32297642H29791342H22396824H08648629
466G88061253G62053220G34394528G10310418F94213218F87718470F89610279
459F97341619G08301639G20227793G31532847G41666803G50822408G59199818
452G66725259G73310071G79075695G84309014G89261994G93967348G98261038
445H02038247H05469554H08893050H12464560H15982192H19122344H21784603
438H24139283H26421658H28741153H31043624H33236670H35320290H37327600
431H39211397H40921943H42534948H44187143H45918119H47640615H49271112
424H50860216H52534977H54326106H56140470H57870644H59446929H60861913
417H62197583H63521569H64779125H65899282H66923233H67926354H68915721
410H69886395H70912148H72096999H73427528H74738828H75879482H76821581
403H77575807H78172606H78746171H79427625H80239068H81271231H82690622
396H84341414H85747586H86751575H87707827H88826582H89829503H90527448
389H91260110H92436282H93946337H95291153H96099325H96374590H96391748
382H96407505H96334532H95635385H93561780H89326440H81527001H67256049
375H43332237H10987886G79584900G62523235G66989709G88461166H15817420
368H40045940H57736116H69376322H76858234H81922642H85320165H86768933
361H85576203H81479933H75373615H69298341H65348617H64498251H66480257
354H70317553H74677406H78304664H80738592H82475243H84204216H86144762
347H88144460H89995677H91569826H92924322H94265600H95664361H96966048
340H98074655H99100208I00133839I01105181I02014966I03122705I04637434
333I06275342I07459925I08007119I08306619I08839659I09812469I11133450
326I12448022I13382243I13999004I14791620I16022070I17265672I17829356
319I17570915I17101501I17044953I17274085I17201446I16817222I17007231
312I18409664I19818506I17872352I08802138H91216380H67826208H44525166
305H27153385H18320515H16578056H17683325H15755397H03696651G75233659
298G30144635F79005106F40553302F30170519F48889920F84325351G21858156
291G53521787G77991590G96408686H09983163H19866155H27344195H33511268
284H38773028H42942405H45958444H48206235H50036889H51470166H52589522
277H53796472H55414684H57269773H58872897H59972624H60794883H61652993
270H62399208H62484666H61700062H60687461H60407789H61110541H62162265
263H62964628H63618643H64436295H65227976H65519932H65273508H64956582
256H64910382H64984623H64908579H64725581H64621563H64578568H64500655
249H64403380H64201421H63661104H62856471H62289983H62274094H62492343
242H62337853H61503176H60233202H58982923H57796804H56345233H54686162
235H53383206H52550666H51411748H49219638H46192650H43279828H41276257
228H40179333H39199914H37515138H35099236H32658365H30784449H29492376
221H28566701H27889185H27243516H26289733H25052139H24046415H23638557
214H23588952H23098441H20763723H15082288H06576625H01041602H05327414
207H14341147H19571061H20017241H18435348H17054880H16134880H15113066
200H13919602H12853457H11916899H10707279H09138272H07989139H08135552
193H09423752H10949831H12107976H12738023H12652432H11755198H10472005
186H09465479H08959613H08710852H08537801H08453346H08334373H07956626
179H07439075H07222294H07339130H07012991H05480036H03255010H02022357
172H02798816H04567780H05233745H03371246G98622429G91091913G80820558
165G67560203G51053209G32000258G12956053F97929671F90306555F90548305
158F96115641G03610840G10757599G16938358G22593556G28110686G33192252
151G37329716G40569546G43360324G45722749G47201359G47702485G47736735
144G47814314G48248677G49366564G51162234G52817700G53228095G52202073
137G50691485G49626207G48993957G48270375G47350842G46555022G45820958
130G44696328G43327277G42575988G42724069G42795506G41704324G39664968
123G37853542G36920590G36636244G36882268G37913095G39359458G40115621
116G39816721G39457267G40003993G41224963G42255456G42672861G42775143
109G43218052G44432345G46063910G47048671G46458616G44478812G42687149
102G42755581G44696061G47113698G48825446G49626140G50005223G50569241
95G51687862G53421175G55291619G56131503G55192609G53601503G53264815
88G54657033G56817097G58912000G60973589G63157755G65156519G66600345
81G67359178G67222180G65887578G63674571G61744640G61079542G61479990
74G61736294G60710673G58119652G54542266G51406521G50445461G52111142
67G54834356G56386540G55889886G53604774G49299867G42463091G33783509
60G25412175G19465822G16791546G17620080G21466389G26355208G30460626
53G34042017G38323223G43515683G48939077G54078060G58322212G60365574
46G59109821G55508934G52799874G53316690G55975544G58360533G60004985
39G62108567G64762748G66411538G66042336G64153330G61691563G60592703
32G63265177G67683582G69145902G65090690G55578435G42074060G24553797
25G00313594F67367904F28279979E89168018E54989041E27116472E06743574
18D98967202E06631679E22878062E39927609E55177080E68062959E77438349
11E82476986E85390474E91414875F03254704F16222234F23737194F24205339
4F20852212F19517076F24102790F29696899
##END=


$$ === CHEMSPECTRA PEAK TABLE EDIT ===
##TITLE=X8029
##JCAMP-DX=5.00
##DATA TYPE=INFRAREDPEAKTABLE
##DATA CLASS=PEAKTABLE
##$CSTHRESHOLD=0.93
##MAXX=3997.453
##MAXY=0.9586084485342632
##MINX=373.96442
##MINY=0.4390487961095667
##$CSSOLVENTNAME=- - -
##$CSSOLVENTVALUE=0
##$CSSOLVENTX=0
##NPOINTS=29
##PEAKTABLE= (XY..XY)
398.0454621657541, 0.44546479011851536
454.7067378498823, 0.6399326334832247
599.1929908444095, 0.616287530338538
790.424796278342, 0.5625996595768451
801.757051415168, 0.7290194042281466
876.8332416966377, 0.7718012935438162
899.4977519702888, 0.6807606822216872
1025.5690903674745, 0.6139769561430543
1099.228748756841, 0.47575870211670795
1120.476727138389, 0.5813248761839642
1206.8851725566847, 0.4390487970023404
1280.5448309460512, 0.5406947741208222
1325.8738514933539, 0.817499280810212
1368.3698082564501, 0.7044839271691385
1392.4508504222044, 0.7935096036249064
1423.6145520484752, 0.7333364497954104
1444.862530430023, 0.7795799378563224
1474.6097001641906, 0.7321485885104283
1498.690742329945, 0.780433476820968
1575.1834645035183, 0.6789619932129703
1677.1737607349492, 0.5973524458490158
2341.527218131352, 0.843196869775435
2361.3586646207973, 0.8153178695411026
2905.3069111884283, 0.8599748621511635
2936.4706128147077, 0.8748631481332534
2978.966569577795, 0.8368119603608247
2997.381484175137, 0.865294576493024
3362.846712337764, 0.7414985904030982
3462.003944784988, 0.7423531417731082
##END=


$$ === CHEMSPECTRA PEAK TABLE AUTO ===
##TITLE=X8029
##JCAMP-DX=5.00
##DATA TYPE=INFRAREDPEAKTABLE
##DATA CLASS=PEAKTABLE
##$CSTHRESHOLD=0.93
##MAXX=3997.453
##MAXY=0.9586084485342632
##MINX=373.96442
##MINY=0.4390487961095667
##NPOINTS=62
##PEAKTABLE= (XY..XY)
3735.394599960907, 0.8877498515722898
3462.003944784988, 0.7423531417731082
3362.846712337764, 0.7414985904030982
3306.1854366536354, 0.8714167479673094
3296.269713408913, 0.8760232334431921
3282.104394487881, 0.8774501089932346
3273.605203135262, 0.87981939377212
3263.6894798905396, 0.8789079789674729
3250.9406928616104, 0.8809298283660632
3242.441501508991, 0.8842511187981853
3233.942310156372, 0.8860082634760117
3226.859650695856, 0.8860328210019025
3201.362076637998, 0.8897043474453854
2997.381484175137, 0.8652945756002504
2978.966569577795, 0.8368119603608247
2937.8871447068022, 0.8736801158611607
2929.387953354183, 0.8784075980624754
2905.3069111884283, 0.8599748621511635
2869.893613885848, 0.8854875576851876
2361.3586646207973, 0.8153178695411026
2341.527218131352, 0.843196869775435
1677.1737607349492, 0.5973524458490158
1575.1834645035183, 0.6789619932129703
1498.690742329945, 0.780433476820968
1487.3584871931193, 0.803494394394377
1474.6097001641906, 0.7321485885104283
1444.862530430023, 0.7795799378563224
1423.6145520484752, 0.7333364497954104
1392.4508504222044, 0.7935096036249064
1368.3698082564501, 0.7044839271691385
1325.8738514933539, 0.817499280810212
1280.5448309460512, 0.5406947741208222
1206.8851725566847, 0.4390487961095667
1120.476727138389, 0.5813248761839642
1099.228748756841, 0.47575870211670795
1025.5690903674745, 0.6139769561430543
899.4977519702888, 0.6807606822216872
876.8332416966377, 0.7718012935438162
821.5884979046127, 0.8187136065856866
817.3389022283031, 0.8185102943404892
801.757051415168, 0.7290194042281466
790.424796278342, 0.5625996595768451
749.3453714073494, 0.7681494366902715
735.180052486317, 0.7721692332574496
718.1816697810787, 0.7698156246917869
668.6030535574664, 0.7151488668610514
648.7716070680217, 0.721351445104953
624.6905649022669, 0.7206668260646448
617.607905441751, 0.7160244591213873
599.1929908444095, 0.616287530338538
553.8639702971068, 0.6629523049121557
543.9482470523844, 0.6576494577436204
535.4490556997653, 0.6601679928569052
518.4506729945265, 0.6630515465283098
498.61922650508177, 0.6724950084347173
480.20431190774025, 0.67947179109485
470.2885886630179, 0.6699779633607211
454.7067378498823, 0.6399326334832247
434.8752913604376, 0.672079921342515
419.29344054730245, 0.679037154044384
398.0454621657541, 0.44546479011851536
376.7974837842062, 0.5530885459585304
##END=

##END=

