##TITLE=S. Graessle SGV-2710 21-35
##JCAMP-DX=4.24
##DATA TYPE=INFRARED SPECTRUM
##DATE=29/8/2017
##SAMPLING PROCEDURE=Diamant-ATR
##ORIGIN=Angelika Moesle
##XUNITS=1/CM
##YUNITS=TRANSMITTANCE
##RESOLUTION=4
##FIRSTX=3997.453
##LASTX=373.96442
##DELTAX=-1.4165319
##MAXY=1
##MINY=0.45728207
##XFACTOR=1
##YFACTOR=9.3132258e-010
##NPOINTS=2559
##FIRSTY=0.99842298
##XYDATA=(X++(Y..Y))
3997+1072048511+1071877823+1071836095+1072051071+1072389887+1072583935
3989+1072447039+1072013183+1071608447+1071610815+1071969151+1072189119
3980+1071976063+1071582271+1071368127+1071366975+1071426175+1071506623
3972+1071660735+1071853759+1071965631+1071950783+1071888191+1071871295
3963+1071901055+1071921343+1071956671+1072119423+1072352895+1072343487
3955+1071919423+1071374015+1071162495+1071490559+1072284991+1073212159
3946+1073741823+1073573183+1072925247+1072263615+1071788543+1071365055
3938+1070887871+1070407999+1070001215+1069779519+1070002623+1070748095
3929+1071446143+1071427903+1070763199+1070079679+1069761407+1069687423
3921+1069756863+1070097343+1070704127+1071255999+1071369919+1070961727
3912+1070318463+1069848895+1069683583+1069587071+1069372351+1069221759
3904+1069444351+1069954751+1070399807+1070671103+1070729023+1070422527
3895+1069825023+1069392191+1069671423+1070539967+1070981183+1070610303
3887+1070276415+1070824319+1071712831+1071806847+1071263935+1070879231
3878+1070660799+1070336255+1070194943+1070449919+1070737535+1070905407
3870+1071354367+1071895487+1071899775+1071529343+1071397311+1071594815
3861+1071608703+1071128127+1070284735+1069429631+1069120511+1070167935
3853+1072482495+1073741823+1073046847+1071398591+1069700095+1068592383
3844+1068369343+1068676735+1068860927+1068917823+1069446911+1070345151
3836+1070674751+1070282239+1069886911+1069908351+1070058687+1070020287
3827+1069907647+1069689599+1068855359+1067301695+1066120831+1066534847
3819+1067760191+1068676607+1069553727+1070516543+1070965247+1070666751
3810+1069845055+1068875519+1068288511+1068197375+1068022591+1067896895
3802+1068954175+1071103871+1072327103+1072009727+1071246655+1070773439
3793+1070430463+1070016383+1069728063+1069759999+1070012159+1070385343
3785+1070924095+1071417279+1071481983+1071203199+1070963263+1070646335
3776+1069908223+1069013055+1068434239+1068265407+1068419263+1068838207
3768+1069229439+1069233407+1068896127+1068500991+1068231807+1068241855
3759+1068695551+1069448959+1070070335+1070297343+1070093823+1069757247
3751+1070099967+1071206975+1071837439+1071719039+1071794111+1072575935
3742+1073008767+1072365055+1071067519+1069616511+1068429759+1068166527
3734+1069375679+1071453631+1073114047+1073741823+1073673407+1073473791
3725+1073344895+1072809791+1071665151+1070623487+1070411519+1070913407
3717+1071464447+1071461951+1070700607+1069688447+1069711231+1071246719
3708+1072835519+1073252415+1072582079+1071637695+1071340479+1071941375
3700+1072653439+1072739455+1072203263+1071307839+1070351423+1069752575
3691+1069930751+1070920383+1071948415+1072175103+1071851903+1071573247
3683+1071496319+1071325695+1070656511+1069611903+1069231999+1070611455
3674+1072450815+1072499519+1071469439+1071128895+1071565695+1071344575
3666+1070330495+1069485887+1069274495+1069300607+1068965951+1068271807
3657+1067811135+1067955455+1068175999+1067871935+1067318655+1067388479
3649+1068417791+1068994495+1068233599+1066946943+1065868479+1065254527
3640+1065088319+1065141183+1065138047+1065020159+1064914175+1064817855
3632+1064640127+1064659903+1065325439+1065998143+1065681983+1064781375
3623+1063835775+1062845759+1061924799+1061636287+1061959039+1061989887
3615+1061525439+1061155135+1061075647+1060809471+1060051903+1059048383
3606+1058135423+1057313599+1056377023+1055260351+1054179647+1053367423
3598+1052730495+1052104191+1051631231+1051426239+1051124415+1050303551
3589+1048995839+1047562047+1046317503+1045313791+1044538879+1043964607
3581+1043375167+1042489727+1041279935+1039956543+1038679167+1037461311
3572+1036258303+1035022847+1033849343+1033267647+1033973375+1035394239
3564+1036001471+1035420479+1034336063+1033329407+1032376639+1031318207
3555+1030359359+1029747519+1029290879+1028639039+1027976383+1027889535
3547+1028507647+1029065023+1028733119+1027727359+1026819519+1026369151
3538+1026230207+1026050687+1025524991+1024596351+1023467967+1022423487
3530+1021679935+1021194111+1020575935+1019573823+1018532223+1017862079
3521+1017343615+1016526719+1015430911+1014305023+1013144447+1011952447
3513+1011108543+1010931327+1011036735+1010628031+1009435775+1007918143
3504+1006649407+1005892351+1005445951+1004786111+1003579967+1001948607
3496+1000229311+998718079+997649599+997088895+996713855+996027967+994921535
3486+993710463+992530943+991104319+989286847+987513599+986315775+985642559
3476+985080703+984407999+983565951+982393727+980850175+979277887+978052159
3466+977167487+976376959+975472255+974335295+973035327+971894399+971131327
3456+970507071+969640703+968586815+967708671+967042815+966252479+965221247
3446+964233919+963447551+962644351+961656191+960632511+959805055+959217535
3437+958718079+958085695+957187775+956086591+955016511+954218751+953754367
3427+953437247+952994559+952374271+951835071+951580735+951379071+950857407
3417+950110975+949583551+949404799+949264383+948904511+948364799+947800319
3407+947316735+946906175+946484095+946084287+945871487+945848191+945813823
3397+945669183+945469247+945200383+944790079+944293375+943896767+943771967
3387+943918783+944119167+944155263+944079103+944086015+944188991+944225535
3377+944111807+943931839+943802239+943765631+943796799+943819135+943742655
3367+943610687+943661375+944030271+944468287+944638143+944624767+944810175
3357+945291775+945739455+945846975+945693183+945638079+945980479+946685247
3347+947385023+947747647+947860735+948124607+948772095+949635647+950380031
3337+950833599+951080191+951298495+951567871+951883263+952305791+952947071
3327+953807871+954746111+955601727+956262975+956684287+956994623+957502399
3318+958385087+959439231+960363839+961168447+962015487+962857279+963570431
3308+964269567+965165887+966268095+967372543+968199423+968571391+968638271
3298+968812543+969376255+970328703+971593023+973096575+974645567+975975167
3288+976981567+977799743+978633983+979573503+980569855+981504447+982237119
3278+982731583+983173631+983824383+984774719+985997183+987457471+988967935
3268+990157183+990815935+991140223+991543871+992300287+993303871+994154047
3258+994634623+995043775+995830591+997054271+998431231+999696703+1000705919
3248+1001425023+1002041919+1002883071+1004022783+1005166335+1006071423
3240+1006862143+1007717759+1008509759+1009067839+1009598463+1010431807
3231+1011493375+1012425599+1013122879+1013794751+1014576191+1015398911
3223+1016205119+1017053055+1017965119+1018774719+1019225279+1019281343
3214+1019279295+1019663167+1020564543+1021738687+1022887487+1023920703
3206+1024891519+1025819583+1026636607+1027234495+1027580671+1027881535
3197+1028546431+1029758271+1031162751+1032212351+1032743231+1033027583
3189+1033395455+1034014143+1034929471+1036046271+1037082943+1037762303
3180+1038092351+1038338495+1038752255+1039440767+1040403647+1041478591
3172+1042342655+1042805951+1042994559+1043093695+1043137727+1043204223
3163+1043517311+1044188159+1045071679+1045930175+1046531007+1046648063
3155+1046238975+1045613759+1045261439+1045482751+1046229567+1047206847
3146+1048068543+1048594623+1048805631+1048954239+1049333887+1050027007
3138+1050842175+1051524799+1051978559+1052241279+1052344639+1052384191
3129+1052655551+1053437247+1054567551+1055464831+1055681343+1055284031
3121+1054704639+1054410687+1054684927+1055489919+1056474943+1057209087
3112+1057450879+1057247615+1056868287+1056640639+1056719935+1056907263
3104+1056722751+1055799487+1054263423+1052649535+1051479103+1051019711
3095+1051267007+1051932415+1052577023+1052911935+1052849343+1052255615
3087+1050878335+1048571135+1045407359+1041556287+1037246527+1032901887
3078+1029167743+1026684671+1025794047+1026391423+1028052543+1030343935
3070+1032951487+1035470143+1037286335+1037926655+1037406271+1035996415
3061+1033798463+1030836095+1027447615+1024226303+1021540351+1019407359
3053+1017919103+1017436991+1018196799+1020040511+1022725631+1026119807
3044+1029853375+1033207487+1035684543+1037409919+1038720895+1039633151
3036+1039944511+1039601215+1038672063+1037094591+1034747903+1031859455
3027+1029200959+1027719615+1027854271+1029231871+1031092543+1032860031
3019+1034208447+1034964991+1035352127+1036095103+1037844095+1040526847
3010+1043502911+1046222079+1048501311+1050336575+1051763391+1052872959
3002+1053689855+1054005311+1053547263+1052345215+1050683199+1048655487
2993+1046053183+1042775999+1039030143+1034905663+1030006079+1023770815
2985+1016024575+1006935423+996580095+984876415+971840831+957597119+942178879
2975+925585535+908022143+889947071+871873727+854162815+837036479+820880639
2965+806521663+795079231+787538687+784549951+786548991+793830527+806306751
2955+823176703+842961919+863949887+884554751+903329343+918966783+930518719
2945+937575807+940196671+938702527+933518719+925082495+913723775+899573439
2935+882780415+864008959+844610751+826123135+809677247+795980735+785651007
2925+779285247+777251647+779560511+785827391+795236351+806648703+818864383
2915+830814207+841653183+850871039+858345599+864231935+868811135+872472895
2905+875746943+879196223+883175039+887683007+892512959+897567231+902949503
2895+908694591+914512767+919924863+924628031+928643711+932125247+935115711
2885+937525439+939299903+940509567+941205247+941221055+940239999+938098111
2876+934969471+931248767+927372799+923865087+921478079+921060863+923126719
2866+927508223+933413311+939784255+945741951+950902079+955327295+959168767
2856+962407807+964996223+967138047+969258431+971661631+974315455+977001087
2846+979518079+981687359+983331775+984389631+984968255+985262335+985523967
2836+986064191+987154879+988936575+991426687+994508159+997925631+1001409279
2826+1004801727+1008028223+1011025407+1013728383+1016073791+1018041855
2817+1019737343+1021355839+1023004735+1024590207+1025924671+1026943743
2809+1027789695+1028655743+1029603711+1030611263+1031698047+1032837055
2800+1033824191+1034464703+1034873663+1035387903+1036169983+1037075327
2792+1037901119+1038573247+1039093183+1039502463+1039917695+1040442047
2783+1041066431+1041764735+1042559935+1043367871+1043933951+1044085823
2775+1043938047+1043761599+1043769407+1044074239+1044690175+1045469823
2766+1046150975+1046594879+1046915583+1047277951+1047657855+1047918399
2758+1048024383+1048073407+1048195967+1048459839+1048778431+1048959359
2749+1048950079+1048926399+1049039359+1049233599+1049429887+1049706431
2741+1050121215+1050468863+1050431679+1049964863+1049366975+1048959103
2732+1048824063+1048800127+1048605887+1048096767+1047521279+1047337407
2724+1047664831+1048133119+1048323391+1048156735+1047843135+1047647615
2715+1047704959+1047927807+1048077823+1047993855+1047768511+1047675839
2707+1047902527+1048380799+1048899391+1049291135+1049494463+1049548095
2698+1049557439+1049585343+1049609727+1049624831+1049661759+1049693439
2690+1049668543+1049625535+1049653503+1049764031+1049872255+1049869567
2681+1049708927+1049448127+1049202175+1049065535+1049067071+1049148671
2673+1049237439+1049397375+1049765695+1050243327+1050467967+1050246463
2664+1049823359+1049591103+1049679487+1049933503+1050148799+1050231295
2656+1050211135+1050211007+1050347903+1050589375+1050767039+1050805887
2647+1050850495+1051072639+1051437375+1051765311+1051955519+1052064127
2639+1052184191+1052332223+1052497279+1052736191+1053084927+1053403071
2630+1053506687+1053497791+1053718847+1054246847+1054691775+1054726143
2622+1054577727+1054706623+1055179455+1055645823+1055803199+1055695423
2614+1055642047+1055934463+1056531839+1057130431+1057539903+1057773311
2605+1057823359+1057658367+1057389567+1057175487+1057046591+1056948159
2597+1056799423+1056522943+1056243583+1056360575+1057140991+1058322239
2588+1059303039+1059678911+1059516287+1059176831+1058915583+1058654015
2580+1058195327+1057621375+1057303231+1057456703+1057845183+1058064703
2571+1058039423+1058050815+1058294783+1058627967+1058833791+1058991359
2563+1059433087+1060385983+1061728895+1063020095+1063702463+1063461567
2554+1062565759+1061757119+1061589823+1061889983+1062032191+1061707519
2546+1061210815+1060987135+1061097087+1061181887+1060869311+1060233215
2537+1059806911+1059966783+1060393535+1060463679+1060071423+1059695039
2529+1059735039+1060152319+1060721343+1061301503+1061749439+1061778111
2520+1061194815+1060289919+1059674623+1059677759+1060161471+1060825535
2512+1061387327+1061647871+1061656191+1061611455+1061541183+1061368767
2503+1061182463+1061111871+1061123903+1061219583+1061587455+1062323007
2495+1063156991+1063674751+1063785151+1063752447+1063667007+1063277183
2486+1062635391+1062385407+1062899711+1063611775+1063688255+1062956607
2478+1061846015+1060867455+1060385279+1060516735+1061067007+1061748031
2469+1062447615+1063114303+1063515199+1063419263+1062991231+1062688127
2461+1062670271+1062615743+1062244287+1061720511+1061332927+1061094015
2452+1060888959+1060733247+1060693951+1060819199+1061193727+1061768255
2444+1062194623+1062183487+1061915327+1061813311+1062035007+1062345343
2435+1062360767+1061925695+1061339711+1061053119+1061111807+1061199679
2427+1061216703+1061420863+1061962303+1062588799+1062877119+1062631679
2418+1062079423+1061661951+1061543743+1061437055+1061024255+1060384767
2410+1059869823+1059758527+1060128511+1060819583+1061419455+1061521727
2401+1061078079+1060397183+1059863167+1059742463+1060094335+1060726655
2393+1061293311+1061483391+1061181695+1060585855+1060101951+1059936127
2384+1059887103+1059709247+1059505983+1059553791+1059892287+1060305855
2376+1060653247+1060998655+1061362047+1061522111+1061242559+1060604415
2367+1059961535+1059671743+1059903999+1060470975+1060845247+1060655295
2359+1060162239+1059956415+1060212927+1060510719+1060414015+1059957567
2350+1059420159+1058912447+1058384511+1057900415+1057791679+1058306687
2342+1059044799+1059189439+1058470271+1057579455+1057341823+1057747647
2333+1058177151+1058268799+1058142975+1057978303+1057807935+1057687231
2325+1057722239+1057908799+1058135615+1058352191+1058563071+1058711871
2316+1058771839+1058820479+1058896127+1059010047+1059297023+1059771903
2308+1060062463+1059875071+1059490431+1059312063+1059282047+1059193087
2299+1059127295+1059167999+1059081919+1058618623+1057880383+1057266623
2291+1057159359+1057550527+1057952319+1057942591+1057742591+1057844415
2282+1058179071+1058254783+1058077055+1058235519+1058971263+1059803775
2274+1060297471+1060689215+1061448511+1062471295+1062980735+1062307391
2265+1060742975+1059412287+1059175359+1059918783+1060981055+1061839295
2257+1062259327+1062231487+1061933055+1061522367+1061061567+1060774207
2248+1060978687+1061537919+1061820543+1061490175+1061014143+1061136447
2240+1062016959+1063101375+1063790271+1063956479+1063744447+1063270527
2231+1062687295+1062221311+1062104255+1062596735+1063658815+1064518719
2223+1064296703+1063126719+1061994559+1061669183+1062261887+1063303103
2214+1063968575+1063850239+1063363455+1062894399+1062274303+1061592575
2206+1061531711+1062389311+1063578495+1064408447+1064777407+1065005887
2197+1065407231+1066123647+1067052287+1067697087+1067400703+1066147519
2189+1064837695+1064311423+1064510655+1065033407+1065785919+1066499455
2180+1066441279+1065294783+1063671807+1062333567+1061608959+1061744575
2172+1062913087+1064612287+1065880511+1066209599+1065663487+1064477759
2163+1063249215+1062961407+1063963199+1065294591+1065827199+1065766399
2155+1066112639+1067115135+1068052799+1068551423+1069280959+1070669183
2146+1071844799+1071775743+1070594303+1069185727+1068259967+1068025215
2138+1068096383+1067769727+1066712063+1065269183+1064108031+1063709695
2129+1063969023+1064145791+1063479871+1061918399+1060129279+1058879935
2121+1058409023+1058273151+1057809727+1056751295+1055385215+1054318399
2112+1054157567+1055103423+1056635647+1057855231+1058348095+1058426111
2104+1058342975+1057763967+1056505279+1055331135+1055315583+1056663039
2095+1058664127+1060552127+1061921983+1062537087+1062198911+1060992383
2087+1059553343+1058703743+1058606335+1058691775+1058654143+1058869055
2078+1059536511+1060197823+1060479935+1060583231+1060666687+1060431423
2070+1059769279+1059304447+1059683327+1060606143+1061206591+1061346943
2061+1061736127+1062658879+1063380991+1063115967+1062005631+1060767103
2053+1059834879+1059297663+1059168319+1059211711+1059057663+1058906687
2044+1059262975+1059897791+1060284223+1060800191+1062091775+1063710719
2036+1064690303+1064758015+1064008511+1062563263+1061333183+1061544895
2027+1062864575+1063482303+1062604671+1061467903+1061316607+1061664191
2019+1061326207+1060340031+1060068351+1061652031+1064918591+1068700223
2010+1071795391+1073572287+1073741823+1072287615+1069736191+1067489279
2002+1066396671+1066081983+1065874751+1065672383+1065515391+1064977215
1993+1063494783+1061194175+1059117951+1058287487+1058658175+1059086271
1985+1058256895+1055805503+1052808639+1051313087+1052966335+1057244799
1976+1061318911+1062907519+1062539839+1062069823+1062266879+1062691583
1968+1062849919+1062580799+1061815871+1060540863+1058840255+1057003071
1959+1055647999+1055307455+1055768575+1056253119+1056193855+1055477823
1951+1054203583+1052789823+1052082879+1052688255+1054210431+1055576511
1942+1056202623+1056560895+1057317887+1058477311+1059531327+1059923839
1934+1059385471+1058248895+1057481151+1057931775+1059361599+1060657023
1925+1061156031+1061235775+1061422783+1061556607+1061326399+1060867839
1917+1060359807+1059758655+1059233087+1059108095+1059269247+1059221823
1908+1058836607+1058433919+1058129087+1057689535+1056963519+1056131263
1900+1055549887+1055476351+1055841471+1056172927+1055954367+1055201471
1891+1054335679+1053565631+1052881791+1052557375+1052880255+1053487487
1883+1053659263+1053224895+1052606911+1052181823+1052110079+1052441087
1874+1053003967+1053505535+1053893823+1054444479+1055420223+1056671039
1866+1057803007+1058611967+1059131263+1059557759+1060123647+1060808639
1857+1061285439+1061344959+1061179455+1061088319+1061137791+1061225343
1849+1061255871+1061221823+1061242623+1061410111+1061512511+1061311295
1840+1060911039+1060506879+1060153407+1059828351+1059568127+1059474815
1832+1059551551+1059468799+1058769983+1057603263+1056604479+1056102207
1823+1055856191+1055577215+1055378495+1055464383+1055699199+1055759103
1815+1055585279+1055329471+1054981759+1054409599+1053747647+1053345535
1806+1053318655+1053510015+1053846975+1054503039+1055547135+1056581375
1798+1057143551+1057253887+1057336319+1057915007+1059131519+1060278591
1789+1060702399+1060636031+1060625343+1060868287+1061150655+1061313407
1781+1061370687+1061197631+1060631487+1059826623+1059239167+1059353279
1772+1060077375+1060476735+1060073087+1059274239+1058409663+1057550783
1764+1056949119+1056955199+1057342463+1057451583+1057139071+1056669631
1755+1056208959+1055895999+1056025983+1056795007+1057797887+1058330367
1747+1058342847+1058266751+1058387327+1058713983+1059125119+1059341375
1738+1058997247+1058150335+1057524095+1057978751+1058985407+1059433919
1730+1059530367+1059688319+1059824511+1059791487+1059605503+1059238399
1721+1058653823+1058095935+1058160575+1059130303+1059981567+1059822975
1713+1058946879+1057906559+1057068799+1056673983+1056911359+1057567871
1704+1057881215+1057585087+1057529471+1058739391+1060653183+1062142399
1696+1063135551+1063646015+1063709823+1063605503+1063378431+1062782335
1687+1061882943+1061328959+1061720063+1062318335+1062161983+1061588991
1679+1061105151+1060985407+1061255423+1061468991+1061120255+1060383999
1670+1059874623+1059776767+1059558847+1059085183+1058874431+1059359103
1662+1060146495+1060413503+1059998143+1059209855+1058475583+1058659583
1653+1060480575+1061727295+1061054719+1059834879+1059346495+1059873663
1645+1060233215+1059875775+1059232127+1058605567+1058066623+1057882431
1636+1058534911+1059546495+1059798783+1059442303+1059190143+1059531647
1628+1060422271+1061394047+1062325375+1063423295+1064366975+1064632383
1619+1064406079+1064322751+1064685823+1064966911+1064746687+1064187583
1611+1063355199+1061747967+1058210559+1051003135+1037605375+1015227967
1602+983669439+948597695+920079295+906832831+911669823+929859199+951392191
1592+967331327+974153023+972671871+965457087+955380479+945089023+936764799
1582+931727551+930115007+931542015+936547071+945982911+956347327+962554111
1572+966037439+971192703+980218431+990111999+997301311+1002123903+1005472639
1562+1007430911+1008996799+1013342399+1021373631+1026397055+1028004415
1554+1029135807+1030576447+1032259903+1034059263+1035629247+1036710463
1545+1037535231+1038568639+1040337983+1043922623+1049167743+1052515455
1537+1053270335+1053446335+1054558143+1056627903+1058208319+1058764415
1528+1059047103+1059745727+1060879295+1062175487+1063720639+1065492927
1520+1066828031+1067509503+1068008895+1068429759+1068474175+1068204159
1511+1068019647+1068265983+1069430975+1071934335+1073741823+1073341887
1503+1072059263+1070711551+1069082367+1065953663+1058638335+1045249343
1494+1027272959+1005313983+977262783+945660031+926194687+930683583+949195711
1485+969150335+986398015+1000795455+1012120767+1020086143+1025388671+1028968127
1475+1030891903+1030289023+1026480575+1020232383+1012358975+1002139711
1466+987644607+968480319+948828415+932829055+920297215+909476095+900231231
1456+894726399+892676671+892052095+892663295+895561279+902124031+912200255
1446+922103935+926175615+919803711+902184959+879686399+864164095+866952767
1436+888897535+912750527+925473791+930308159+932704383+934101759+933549055
1426+929925247+922476031+911953023+901477951+894925567+895963071+905563455
1417+918602047+930281407+939873727+947677887+953755199+958206015+961391935
1407+963864767+965857727+967016575+967180287+966872703+966748543+967085119
1397+967857343+969138687+970883071+972576703+973856575+974899455+975896383
1387+976391039+975363583+971858175+964905151+953482367+937481087+918532415
1377+899234431+882082175+869550847+863313343+862866815+866926847+874708287
1367+885119295+896989055+910104063+923946815+936167615+945006143+951319103
1357+956710015+961991423+967161919+971864639+975867775+979233919+982083327
1347+984336127+985807295+986485247+986548415+986120447+985127103+983475135
1337+981379839+979318143+977661375+976503167+975766847+975406207+975482303
1327+976080191+977192319+978678079+980370815+982200255+984127423+985995327
1317+987577983+988756671+989523071+989832831+989589631+988837311+987885439
1307+987111743+986661247+986433727+986305727+986260927+986409407+986926271
1298+987841599+988892671+989708287+990015487+989442751+987069119+981198655
1288+969655999+950516223+922965119+888190463+850268223+816162751+793739903
1278+788309247+799885695+823284479+851124799+877344127+898903679+915458495
1268+928022591+937698687+945100671+950459327+954000639+956184383+957620415
1258+958781311+959940607+961365375+963241727+965290111+966712511+966621183
1248+964539519+960850175+957066623+955363583+957362495+963245951+971907775
1238+981649023+990834815+998444031+1004303743+1008751359+1012082239+1014411199
1228+1015913023+1016876991+1017487231+1017766911+1017752639+1017512383
1220+1017016319+1016200703+1015160383+1014125439+1013264191+1012622527
1211+1012243647+1012263167+1012859967+1014137983+1016048767+1018415231
1203+1021065343+1023946431+1027048447+1030225023+1033208767+1035834495
1194+1038172415+1040398015+1042555455+1044444287+1045758143+1046347071
1186+1046262655+1045553919+1044224063+1042488063+1040916543+1040196543
1177+1040771263+1042644479+1045403327+1048426495+1051151231+1053206079
1169+1054381887+1054533567+1053443327+1050721151+1045861695+1038384127
1160+1027947711+1014600447+999097919+982774079+966862847+952103743+939203967
1150+929378815+923941887+923262463+926253439+930855359+934991999+937310335
1140+937377471+935370111+931544575+925905599+918319167+908863935+897975359
1130+886311999+874628415+863717631+854290431+846884095+841880703+839464383
1120+839484543+841420095+844452991+847564607+849773183+850492287+849662783
1111+847568063+844682303+841712895+839623103+839392895+841530687+845690495
1101+850803519+855645119+859358655+861681855+862951103+863898879+865249855
1091+867420927+870572479+874776959+879983807+885935231+892271999+898524351
1081+903749567+906336447+904536639+897561599+886855167+876752959+873038783
1071+879341695+894418111+913251903+930737279+944239679+953457727+959027391
1061+961627071+961935679+960802879+959133311+957598911+956474623+955607231
1051+954429951+952110143+947858943+941133247+931563327+918929599+903585407
1041+887048255+871937215+860811903+854547327+851684735+849550783+846248959
1031+842010623+839312063+841673855+851158591+866044863+881311615+892179775
1021+897361535+899052735+900435263+903409407+907987455+912869375+916342527
1011+917101119+914791743+910046847+904104639+898406975+894343679+893123839
1001+895777727+902997311+914501247+928487359+942116415+952787391+958987135
992+960247871+956831807+949629887+940135679+930257471+921933439+916639423
982+915052991+917190399+922899519+932094143+944375295+958502463+972503999
972+984544063+993806015+1000589055+1005652415+1009558527+1012457215+1014100799
962+1013928447+1011288255+1005667391+996735423+984383999+969022783+951971071
952+935522303+922438783+915018367+914285119+919865727+930475647+944383807
942+959630463+974351743+987261503+997825407+1005971263+1011666687+1014575807
932+1013928895+1008820607+998759999+983937599+965183103+944059391+922917183
922+904334527+890144575+880881215+875975295+874466239+875815871+880278783
912+888495039+900671807+916087807+933239167+950434175+966402047+980527039
902+992644287+1002703231+1010602175+1016252031+1019656447+1020714175+1018907775
892+1013524095+1004606271+993824959+984248703+978922559+979306751+984844543
882+993807807+1004318079+1014767743+1023982271+1031394303+1036923775+1040594175
873+1042344127+1042104255+1039948607+1036266175+1031821567+1027502911
864+1023831487+1020646975+1017334271+1013504575+1009455167+1005787519
856+1002374015+997508351+987999999+970391295+942748351+906111359+864936895
846+826266175+797722047+784975807+789690303+808805311+835660159+862726015
836+884511359+899020095+907502015+913099327+919094975+927645631+939429311
826+953839103+969439999+984619327+998068159+1008954879+1017128639+1023138239
816+1027741439+1031534399+1035033919+1038479999+1041473983+1043462975
807+1044573375+1045385087+1046038015+1045968511+1044199807+1039701183
799+1032184575+1023053055+1015144895+1011113151+1012009663+1017142271
790+1024798655+1033120191+1040794047+1047285759+1052555263+1056715583
782+1059991359+1062684735+1064951551+1066774591+1068265727+1069716735
773+1071220287+1072544959+1073452095+1073741823+1073087231+1070772671
765+1066318079+1058902207+1046561215+1026377727+995896127+954715135+905262463
755+852346175+801530559+757072895+720998271+694320127+679195071+679532223
745+698733055+736066623+785263999+837091903+883598079+920708991+948123391
735+967768447+982340351+994224895+1004644543+1013527871+1020480447+1025894911
725+1030827199+1035898111+1040827071+1045038655+1048185087+1049943679
717+1049509375+1044960383+1032626495+1007452927+964899711+903289535+825111935
707+736700543+647215167+568080511+512118560+491002880+510422048+564854847
697+637676799+709058175+765748927+804939199+830529727+847224959+857914687
687+864405055+868555519+872422655+877839295+885759103+895749951+906144959
677+914748991+919768383+920687231+918620543+915422527+912471231+910881599
667+911862911+915446527+921029759+928264959+936125247+942792511+946627455
657+946262207+940355583+928201791+910361343+888581439+864661759+839185087
647+812583231+788588351+775317951+780274047+803653311+837630783+871906623
637+899609023+919002175+931499199+939296127+944121215+946884415+948108223
628+948623295+949564031+951662463+954847935+958534719+961950463+964170239
618+964245503+961885311+958355007+956214015+957414527+961623743+966834495
608+971420031+974881151+977067839+977880127+977680319+977205311+977044991
598+977398079+978076479+978609023+978564543+977932351+977206783+977004159
588+977510975+978481791+979834815+981851007+984460735+986698047+987140799
578+984561215+978304191+968956991+958675263+950177535+945513663+945419903
568+949110783+955043839+962026303+969177087+975467903+980195711+983614207
558+986513983+989230207+991161919+991047231+987583231+979914111+968060799
548+953399871+938493375+926053759+918245503+916889535+923176639+936070975
538+951665535+965623615+976204671+984214015+990723583+995914815+999768511
528+1002816703+1005863295+1009058367+1011433791+1011924543+1010750783
520+1009402303+1009153663+1009505855+1008699967+1005705663+1001036479+996317823
510+993234943+992072319+991428863+989958335+987843519+985930047+984258175
500+982209023+979676863+977332351+975993215+975977983+976867967+978028223
490+979543039+982178815+986178239+990797759+995376191+1000120063+1005072255
480+1009118847+1010704831+1009018687+1004552831+999040447+994985535+994209407
470+996176895+999007999+1001067135+1001114175+999056255+996391295+994573311
460+993362367+991678335+989612159+988197823+987360831+986268351+984835263
450+983651839+983170111+983660735+985603455+989550143+995184831+1000334847
441+1002428223+1001566975+1000075583+999493439+999700415+1000822335+1003598655
431+1007310911+1010011903+1010872319+1009595327+1004758143+996763391+990632255
421+992307391+1003086463+1015477439+1022430399+1025628223+1027319999+1027534975
411+1026341119+1025134399+1025365183+1026597951+1027047423+1026191231
402+1025204927+1024477247+1022836991+1021037183+1023046655+1028280511
394+1032520767+1035319871+1038371583+1041858943+1045734591+1052305919
385+1063050815+1072459647+1073741823+1071941119+1069356159+1068074303
377+1067399871+1067881407+1073741823
##END=
