##TITLE=JB 205.1
##JCAMP-DX=5.0
##DATA TYPE=LINK
##BLOCKS=1


$$ === CHEMSPECTRA SPECTRUM ORIG ===
##TITLE=JB 205.1
##JCAMP-DX=5.00
##DATA TYPE=INFRARED SPECTRUM
##DATA CLASS=XYDATA
##ORIGIN=Rieke
##OWNER=
##XUNITS=1/CM
##YUNITS=TRANSMITTANCE
##XFACTOR=1
##YFACTOR=8.3773066e-010
##FIRSTX=3997.453
##LASTX=373.96442
##MAXX=3997.453
##MAXY=0.8995064460513932
##MINX=373.96442
##MINY=0.4546653912063775
##NPOINTS=2559
##XYDATA= (X++(Y..Y))
2559I88168994I88057999I87971552I88023919I88044837I87865040I87739958I88065186
2551I88662847I88880210I88437799I87702747I87142297I86973671I87250019I87844264
2543I88432605I88747800I88773129I88653313I88541038I88463199I88261347I87824912
2535I87362720I87218570I87450804I87812603I88097772I88270738I88349003I88359818
2527I88344663I88270738I88052450I87743445I87497052I87303168I87069226I86929985
2519I87127569I87580511I87931850I88019294I88094428I88538547I89349374I89968380
2511I89836326I88983876I87926799I87290716I87406833I88023349I88650395I89111377
2503I89501778I89816118I89891467I89680436I89362537I89203517I89339129I89682143
2495I90058882I90322423I90309332I89967313I89553290I89346315I89280643I89105258
2487I88714431I88203573I87777526I87600718I87657851I87925375I88464907I89091597
2479I89342473I89072316I88597531I88356830I88626276I89220023I89667273I89704342
2471I89555283I89546318I89615688I89602313I89629990I89773002I89791786I89484204
2463I89105258I89058868I89408287I89926971I90303213I90081082I89025143I88130075
2455I88273584I89085977I89871403I90207872I90130887I89976136I89953225I89941272
2447I89829140I89843512I90153228I90443236I90368600I90000611I89692033I89679440
2439I89969448I90464154I91001409I91276689I90860532I89825440I89135426I89268263
2431I89598755I89398183I88824002I88432249I88411189I88662776I88956554I88998533
2423I88792838I88734139I89064703I89387440I89154209I88553204I88250034I88665123
2415I89529669I90194353I90265148I89871474I89497651I89568943I90130176I90795145
2407I91115036I90982199I90615277I90304351I90203744I90302075I90458747I90429077
2399I89972649I89115860I88360032I88323745I89065770I89932094I90267994I90076813
2391I89834191I89901713I90194851I90495460I90824885I91343428I91871433I91799216
2383I91104221I90378419I90002461I90047357I90354654I90704357I91023964I91381635
2375I91772250I91806544I91068219I89931596I89141401I89003229I89484417I90422034
2367I91436350I92071792I92237571I92187979I92142586I92177094I92340099I92651237
2359I92981802I93039647I92610327I91886588I91237628I90832072I90692475I90694183
2351I90546760I90095953I89632125I89523977I89748171I90075461I90464653I91063025
2343I91826253I92338676I92287234I91938314I91619775I91394656I91319593I91426388
2335I91606256I91753751I91863037I91820632I91444817I90950821I90779705I91201910
2327I91935041I92219570I91859266I91323435I91093691I91251431I91564135I91850799
2319I92082820I92224338I92161583I91827889I91310413I90860176I90811225I91255629
2311I91965209I92604492I92846474I92617371I92232804I92054858I92080330I92071436
2303I91900889I91607252I91277329I91035134I91108348I91633293I92400150I93186856
2295I93873881I94206794I93786794I92482613I90913539I89997552I90152944I91223398
2287I92528291I93326595I93539477I93470105I93076289I92250948I91393944I91040328
2279I91198353I91393873I91348551I91230797I91316248I91685731I92149061I92431242
2271I92459133I92414237I92482470I92618225I92736405I92856435I92926091I92771980
2263I92376741I92043687I92010958I92079405I91978229I91863606I92047245I92410893
2255I92472864I92161868I91953113I92154966I92666109I93112505I93123318I92692932
2247I92123874I91632440I91297109I91358085I92094346I93288103I94163391I94098574
2239I93331789I92567779I92153259I92016081I91935681I91700245I91319023I91066085
2231I91083659I91147623I90981345I90579204I90140777I89892534I89997908I90415488
2223I90864587I91086220I91065017I90963628I90934528I90946339I90771808I90278026
2215I89733443I89588652I89871403I90093035I89832128I89258516I89017744I89485698
2207I90305063I90794647I90640393I90078877I89533013I89307467I89527534I90026297
2199I90360702I90213777I89753009I89470685I89708682I90295956I90686783I90552523
2191I90089975I89743261I89830136I90398127I91174944I91692135I91742438I91632867
2183I91743220I91983138I91942583I91431298I90663731I89993141I89650553I89665565
2175I89888479I90092110I90146113I90092039I90056109I90136721I90334234I90491618
2167I90396918I90080798I89900859I90136508I90627515I90952458I90853132I90416911
2159I89983250I89909682I90282793I90838545I91249723I91395581I91266016I90859322
2151I90406096I90388664I90967613I91617071I91663248I91020406I90115163I89300565
2143I88735420I88634600I89158336I90033554I90645516I90650639I90330748I90227865
2135I90500797I90763768I90618550I90195919I89968523I90124982I90423314I90618835
2127I90689772I90600051I90213137I89620670I89267338I89516506I90243091I91017560
2119I91560293I91858340I91983779I91987621I91917752I91777444I91489855I91027877
2111I90575860I90402325I90549179I90785824I90907562I90935666I90978855I91035348
2103I91020620I90908487I90760779I90646014I90610937I90691265I90875260I91103865
2095I91361073I91678758I92048454I92454579I92889449I93190485I93086179I92557249
2087I91870650I91189957I90472550I89718999I89040440I88578605I88456796I88613611
2079I88745879I88614749I88215099I87539315I86523718I85296236I84155913I83327085
2071I82932486I83030460I83488382I83966654I84205291I84306181I84612626I85220603
2063I85740142I85799267I85655473I85915598I86713191I87587697I88118974I88275363
2055I88199588I88020930I87861483I87755825I87599152I87307437I86934966I86603406
2047I86473700I86707712I87223978I87604204I87473144I86864385I86090770I85400756
2039I84820597I84229055I83620295I83297985I83604499I84425785I85197907I85463439
2031I85252834I84901353I84668976I84622586I84780184I85166885I85648073I85877035
2023I85592434I84924263I84327527I84232969I84753787I85621036I86393727I86805258
2015I86926214I87000851I87181288I87384278I87356957I86995586I86625036I86687506
2007I87106936I87336537I87103876I86713759I86524571I86521584I86520943I86507923
1999I86631155I86952112I87288938I87379156I87184062I86874986I86508563I85978423
1991I85395633I85199756I85646579I86412297I87016575I87426044I87859491I88210972
1983I88156756I87730851I87378658I87471794I87959385I88442281I88544809I88295072
1975I88060561I88036227I88054727I87995387I88003000I88115844I88061628I87649598
1967I87081891I86683165I86543711I86580994I86763707I87102738I87514697I87854937
1959I88103678I88378744I88693726I88828982I88579245I88039500I87559450I87490577
1951I87937187I88580811I88846770I88461136I87733057I87144645I86896402I86968976
1943I87309998I87746931I87923455I87575530I86849728I86181628I85867216I85888063
1935I86122787I86492697I86874986I87098042I87096334I86968193I86909352I87092136
1927I87481114I87772403I87689798I87290147I86813370I86350112I85858749I85365607
1919I84890965I84293019I83458784I82565494I81918811I81600414I81430009I81158073
1911I80640883I80000817I79629057I79847417I80575994I81406245I81945705I82065238
1903I81882880I81546767I81050138I80288121I79254096I78140952I77274201I76912261
1895I77059043I77490711I77906441I77949558I77208174I75329882I72165907I67930553
1887I63359940I59502322I57106768I56280075I56738709I58139014I60104537I62198699
1879I64053582I65500420I66542343I67216561I67547552I67671424I67865735I68315617
1871I68904598I69345871I69457150I69290161I69118973I69290659I69931935I70786163
1863I71484431I71944274I72377507I72998007I73866039I74873311I75721919I76084073
1855I75957710I75743620I75852551I76344625I77019199I77703521I78341097I78885681
1847I79265836I79477436I79609847I79736067I79851330I79909531I79847203I79640014
1839I79432042I79458297I79721837I79933082I79907183I79779397I79702910I79595617
1831I79340330I78991481I78662837I78405773I78283608I78382507I78645122I78791193
1823I78551062I78021349I77665385I77794380I78140312I78194955I77912774I77758378
1815I78055359I78605136I78997244I79032961I78771556I78370696I77970761I77585981
1807I77094547I76444022I75790721I75276590I74833538I74400092I74138046I74200658
1799I74470104I74709381I74838377I74948160I75177620I75610569I76214705I76865585
1791I77426534I77799645I78007475I78246041I78690373I79236024I79623009I79798679
1783I79946814I80178905I80378410I80379976I80197404I80023229I80032407I80257953
1775I80665501I81209515I81748975I82084733I82183774I82215008I82289574I82329062
1767I82262821I82178722I82191244I82301598I82441693I82546355I82552545I82435645
1759I82253144I82080891I81937594I81833573I81782345I81688213I81375508I80847147
1751I80388229I80299576I80627009I81208803I81855843I82401778I82726507I82856142
1743I82954187I83131138I83358533I83587779I83821934I84071671I84382953I84840519
1735I85416551I85932034I86242817I86329834I86229655I86060531I86025169I86202760
1727I86436132I86511480I86332751I85941639I85518438I85308474I85430425I85807734
1719I86291271I86721729I86917534I86789748I86496966I86336736I86435848I86649796
1711I86813299I86952042I87150693I87352688I87446678I87446606I87465675I87582502
1703I87810682I88116912I88419300I88629335I88736985I88812902I88913722I89043144
1695I89223937I89504482I89821028I89967242I89828926I89566809I89464709I89651192
1687I90015482I90325625I90415915I90302217I90104206I89884139I89645715I89458234
1679I89449056I89661012I89959771I90104206I89974713I89757136I89781398I90125764
1671I90544483I90818909I90960710I91034850I91003899I90828159I90602826I90532032
1663I90742138I91097818I91299599I91251858I91230228I91539233I92086520I92442911
1655I92319750I91863678I91441330I91247446I91243177I91363919I91576373I91778013
1647I91842902I91777728I91702380I91677478I91654425I91597220I91586548I91750264
1639I92072290I92313844I92207830I91748343I91230228I90992302I91156588I91573527
1631I91946852I92032446I91792741I91373738I90943279I90616131I90511612I90717662
1623I91141076I91515753I91631586I91492060I91264380I91130974I91156232I91236276
1615I91213081I91064804I90941430I90974372I91112474I91204756I91220125I91288571
1607I91492558I91726358I91820417I91742366I91618210I91592382I91686585I91799287
1599I91868089I91984704I92258205I92618580I92882263I92968141I92944946I92935768
1591I93055442I93342462I93683057I93939127I94209142I94754080I95545056I96102873
1583I96019414I95526272I95271128I95554804I96064381I96387260I96483598I96539237
1575I96663750I96912704I97367780I98003364I98617177I99001672I99134438I99172432
1567I99268770I99392571I99401820I99277308I99146889I99086269I99049983I99003095
1559I99030203I99291822I99823598A000391234A000700666A000700879A000481595
1552A000079881I99669985I99655542A000201192A000916678A001295908A001268871
1545A001104514A000937952A000664877A000293260A000123283A000387676A000915610
1538A001307932A001285022A000861394A000430936A000536167A001227461A001868097
1531A001885885A001462541A001193950A001326716A001613593A001768274A001781650
1524A001772543A001769127A001792678A001937611A002148358A002152982A001857140
1517A001542585A001450232A001461190A001440841A001585845A002109225A002830687
1510A003395477A003684418A003747599A003602666A003322904A003057016A002852530
1503A002743244A002917916A003453820A004082786A004572656A005085719A005837421
1496A006626902A006969775A006607834A005791458A005074762A004837760A004995999
1489A005152387A004986750A004572585A004383041A004837050A005764277A006479123
1482A006478341A005941015A005455131A005372526A005563847A005732971A005739376
1475A005591881A005349970A005108701A004921505A004755512A004640960A004724490
1468A005040539A005438126A005866450A006491859A007336981A007986510A007914435
1461A007110581A006195163A005790745A005902808A006071576A006015936A005889929
1454A005927639A006100890A006242336A006312703A006358382A006334831A006168696
1447A005927141A005769899A005794090A006000568A006356959A006840068A007414321
1440A007983166A008439167A008782253A009087487A009314599A009292257A008921850
1433A008339913A007859080A007713151A007838233A007982953A008029414A008058514
1426A008132724A008214333A008261150A008266557A008254817A008264351A008282637
1419A008264280A008289183A008553506A009078807A009557363A009646086A009363834
1412A009056537A008956144A008916016A008763398A008798974A009514175A010667234
1405A011203065A010591316A009723427A009686216A010172883A010106428A009349889
1398A008674816A008470331A008508112A008604164A008807369A009075748A009071977
1391A008547102A007886687A007766941A008278367A008806800A008846644A008558415
1384A008356419A008297934A008124470A007744671A007371773A007166078A007018726
1377A006807481A006659845A006744869A006974257A007173122A007358610A007622791
1370A007894798A008025999A008044711A008141333A008402098A008746109A009134162
1363A009616062A010119449A010390317A010211090A009633422A009039817A008886702
1356A009222032A009628371A009766686A009644024A009262730A008594061A008071819
1349A008501495A010136809A012183585A013470051A013487696A012620162A011537755
1342A010781003A010843401A011909871A013336573A014097381A013952164A013650273
1335A013968315A014955808A015962938A016159952A015270149A013950741A013327324
1328A014058818A015776382A017404368A018126044A018001744A017536067A016896570
1321A015927292A014721083A013774644A013531169A013987881A014824251A015751195
1314A016544163A016909590A016666968A016008118A015322160A014868364A014731471
1307A014933395A015469156A016210256A016785647A016863769A016640074A016568425
1300A016618017A016507236A016597881A017618601A019379923A020565355A020144715
1293A018601256A017468190A017830629A019473982A021251811A022007639A021505319
1286A020824911A021311363A022745608A023439891A022425646A020462330A018779842
1279A018137286A019008092A021238578A023547185A024504938A023923855A022796481
1272A022201096A022463285A023118791A023517374A023426444A023111533A022933374
1265A022818395A022220520A021110294A020913421A023261803A027524264A031408279
1258A033749403A034659555A034042043A031780038A028742995A026287391A024923513
1251A024239619A023872200A023943847A024746065A026246693A027741770A028284361
1244A027823451A027329811A027323621A027141619A026177962A024983636A024487577
1237A024716894A025019353A025190896A025560592A026068035A026059496A025221206
1230A024140364A023577140A023526196A023462304A023376781A023892193A025129565
1223A026182658A026198738A025365570A024352534A023482937A022901996A022864571
1216A023365611A024002404A024529200A025131770A025947933A026708101A027097506
1209A027206721A027304268A027287975A026702125A025377523A023825240A022810142
1202A022607008A022964324A023723852A024955603A026396535A027380114A027588371
1195A027401886A027329598A027506619A027812494A028099727A028199550A027996417
1188A027607937A027421168A027891613A029372745A031921627A034795665A036411200
1181A035768074A033689850A031907326A031350505A031978049A033658187A036235957
1174A039036640A041226499A042689203A043792884A044176454A042881451A040161451
1167A037811791A036810850A036174270A035129288A034459196A034580507A034431804
1160A033564909A033235201A033952536A034106221A032420247A030154827A029300385
1153A029769336A030058632A029711704A029472711A029785985A030377527A030949289
1146A031479856A032052188A032920788A034386196A036088321A037001817A036687263
1139A035900413A035468319A035084179A033795295A031389993A029087860A028800484
1132A031080561A034009456A035235587A034596232A033542356A032914527A032702713
1125A033066646A034080820A035194320A035976046A036528598A036746815A036294301
1118A035523033A035338256A036047979A037063290A037682439A037719082A037426086
1111A037064003A036647561A036091665A035512645A035298483A035819018A037024016
1104A038342855A039255000A039888236A040538477A040897429A040528018A039802144
1097A039575816A040166860A041244784A042384111A043226315A043407819A042946909
1090A042523850A042688705A043123503A043205539A042830863A042468140A042552381
1083A043037910A043604692A044126934A044714563A045337838A045668045A045343316
1076A044289725A042956372A042210932A042575007A043651366A044583219A044975968
1069A045088812A045138617A044942882A044279551A043353888A042796782A043182131
1062A044515485A046193205A047496461A048167620A048438276A048515117A048231727
1055A047389096A046142261A044760454A043477404A042628583A042553520A043324004
1048A044732706A046491252A048254424A049564867A050099347A050002867A049802152
1041A050005215A050797258A051836192A052459041A052564770A052626884A052855418
1034A053056844A053108855A053098253A052966270A052456124A051520286A050609920
1027A050220302A050315928A050515717A050613691A050757912A051165958A051972587
1020A053219422A054700625A056033339A057011582A057660827A058024760A058135398
1013A058069086A057872783A057587542A057384195A057537239A058155035A058964367
1006A059546874A059725176A059550645A059093434A058372684A057396645A056212850
999A055006500A054133985A053902961A054256506A054799097A055092449A054994760
992A054845203A055108600A055962260A057267936A058546148A059256937A059491306
985A059693657A059998179A060347171A060798476A061343344A061772664A062046236
978A062363637A062785983A063193318A063526514A063870454A064356124A064944963
971A065450627A065924345A066557652A067329631A068121674A068935988A069748451
964A070463225A071080168A071537805A071615003A071432361A071421688A071700028
957A072197509A072790546A073304748A073629975A073741823A073636236A073326093
950A072711995A071463240A069633899A067845185A066475545A065659453A065470194
943A065745545A066157646A066546126A066901094A067109919A066880460A065670339
936A062791107A057299811A048612167A038648587A030286811A024608319A022157126
929A023405739A027870125A035109437A044479624A052250855A055620454A055916154
922A054413250A050346807A041468196A026802304A007089378I79416887I37288896
915H83375882H32766511G92188525G57539764G25870984F98593945F76062050
908F55808313F36792089F20142389F08190947F05467107F11758699F20128231
901F29858509F44488185F64667998F85483609G04684253G23580447G42158315
894G59381485G75664832G91761553H04726102H11988965H16270851H20960783
887H27673157H36133050H45076194H54181917H63818917H73002335H80269183
880H85808576H90313304H93105662H93261765H91595216H89204002H86583757
873H84140817H82303436H81210214H80528667H79566789H77656621H74411464
866H69352405H61500917H49951045H35227238H20008652H07950555H01147109
859G98049730G94142165G86427854G77385385G72901717G76182306G85000512
852G95381316H06124274H18338901H30869790H40618781H47899574H54974529
845H62401962H67970669H69841349H68710417H66581392H65484257H67213773
838H74050163H84789137H92614513H97046241I00559563I03843853I06999290
831I10114527I12895003I14998343I16485381I17440429I17635594I17010113
824I16373604I16570263I17357539I18519492I20145771I21967854I23448204
817I24692548I26288730I28536363I31086312I33550668I36206631I39327490
810I42365173I44985063I47678665I50688315I53623116I56146882I58207176
803I59892154I61651981I64171976I66784965I68230237I69013814I69920124
796I71147891I72503158I73791402I75008070I76140139I77137166I78026472
789I78845196I79531155I79982317I80118783I79864208I79321831I78946229
782I79239368I80209500I81368251I82095405I81771530I79635888I74832044
775I67071344I56839244I45531852I36692160I35204553I41323606I49806765
768I57071264I63068793I68842769I74118835I77794593I80154643I81931404
761I83561454I85363117I87481399I89606724I91257621I92331490I92977177
754I93075293I91533256I84727391I66632490I36637872I03041208H75488107
747H62603672H67862948H84257005I02374176I18555921I32081205I42502564
740I50683904I58200417I65008986I70014611I73394954I75846574I77549551
733I78486883I78854232I79008201I79271741I79838025I80760629I82085231
726I83966938I86432290I89081352I91434998I93464200I95331535I97028394
719I98596330A000253558A002158247A004213134A006207045A008093449A009974872
712A011948861A013959492A015739526A017025351A017757486A017925472A017321976
705A015537033A012016880A006333835I98665559I89512308I78939897I66733523
698I52800121I36662419I17444271H95371082H73249369H55980805H47694092
691H49285365H58686645H72694469H88727510I05441529I22020648I37563607
684I51113508I61509254I67485509I68610179I65135420I56366024I40571194
677I17949295H94005355H78289430H77700592H91067140I10916532I29666227
670I43569603I52312815I56950807I58554887I57742210I54599936I48741505
663I39425534I25722091I06722374H82133956H53328044H23829485G98248737
656G80224275G70862412G68608589G70127787G71236590G68035404G58666782
649G44391576G28288807G12498601F97081293F81825283F68644081F61445182
642F63469759F74848657F92577774G12499598G31357441G47784654G62187006
635G75893580G90133424H05349022H21108064H36479765H50327358H60896497
628H64728856H56490239H31971977G93109421G49469133G13348845F92686208
621F87821104F93508419G02746053G09513427G10422227G05636172F98470927
614F93437624F93817495G00442426G12140859G26764558G41947782G55751476
607G67225288G76434605G83915259G90070812G94893439G98096547G99595182
600G99921975H00090387H00949880H02600563H04365229H05283137H04714291
593H02763640H00409068G99124880H00025640H03181291H07728567H12612881
586H17243829H21614582H25993516H30569893H35316104H40080388H44735882
579H49238975H53597276H57827294H61908821H65756691H69271080H72442099
572H75365943H78161929H80908324H83634726H86327332H88951917H91512113
565H94072450H96643246H98893654I00007936H99215324H96751110H93959108
558H91980209H90620744H89094787H87650510H87680465H90151295H94553781
551H99575129I04253820I08239650I11425396I13769438I15318661I15969827
544I14915026I10540076I01818636H90533016H81409577H78772824H82976232
537H90672897H98094211I03307878I05994864I06407036I04988516I02658776
530I00981056I01525426I04835757I10221324I16517327I22744458I28214266
523I32535569I35540025I36694010I34227733I25271497I08189417H85754929
516H65215808H53662592H52945256H59315043H67291115H73195295H76037529
509H76833129H77563770H79948010H84441284H90221592H96022817I00859034
502I04238593I06273203I07700190I09405801I11740450I14392856I16818506
495I18581606I19380621I19106054I18136064I17468249I18168580I20541508
488I24046576I27999251I31990986I35480687I37031048I34056759I24131103
481I07855226H90619819H80114645H80829419H90966889I04777627I17235517
474I26417797I32867983I38016122I42919504I47574216I51027559I51807080
467I47850563I36360885I14809155H83393455H47592205H17771123H03748927
460H07880757H23900208H42878082H59389608H72361771H82481454H90284275
453H95980910H99969444I03069455I06143639I09558276I13158044I16760447
446I20586474I25170393I30809325I37160612I43453059I49004547I53482452
439I56930529I59751703I62462808I65151215I67120651I67067786I63474563
432I54859136I39938029I17827344H88598444H54756098H22637080H00763823
425G94686108H03172112H20057034H39223669H57304198H73097534H86307979
418H96967762I05123061I10689207I13741689I14834698I14550880I12261127
411I05324558H90226501H65726737H35672211H08238428G91254750G87648222
404G95088817H09065691H25646019H42272381H57508541H70648974H81437254
397H89947521H96475261I01394012I05145046I08267541I11228809I14213202
390I17123028I19750532I21988416I23915518I25666024I27277645I28701858
383I29887646I30862901I31809198I32966170I34343921I35634442I36499699
376I36791912I36321183I34692486I31958471I29406316I28882295I31005130
369I34649938I38372157I41633393I44489147I46870684I48571457I49554965
362I50003068I50187347I50345656I50517911I50370060I49304374I46949803
355I43437476I39081025I34257901I30065735I28548316I31300403I37807082
348I45745445I52942209I58685092I63344571I67359431I70845431I73891582
341I76768395I79581315I81819200I82201846I78445688I67531899I48378924
334I25584202I08535777I04335571I12082682I25136241I37554001I47226292
327I54592181I60618596I66010496I71004381I75319494I78618796I81194573
320I83922327I87352902I90676609I91415005I87088081I78726447I72007384
313I72550402I80237960I90109115I97929368A002460066A003322690I99276383
306I88331216I68606266I40705098I10516241H87978797H81097157H90644010
299I10377285I31680629I47794426I55038149I52155289I38907418I14667780
292H79977681H41886961H15338927H12746714H29474252H43494314H34039386
285H01127613G65409395G49482581G60870159G91613774H29221882H64897340
278H94321049I15645738I27622866I27072236I07344653H62060369G93318246
271G15344891F46523862E96703865E64340696E45772931E42734572E58515243
264E90427997F29747871F68151224G02175287G32092778G58675391G81710957
257H00122120H12284594H16920879H14526819H07540446G99104317G92605038
250G91991510H00302343H16898964H37205069H55195735H65023275H61477580
243H43021093H16671426G97101084G96365891H14089815H39807954H63008943
236H78509498H84499414H78819997H57695879H18850541G68147963G21834637
229F97356218G00382375G22440622G50504795G76476086G98491715H17244185
222H33011196H45272142H53903933H60028109H64964504H67925560H65862562
215H57195765H44975802H34561486H28788863H27577959H32220078H46341527
208H66685983H82604614H92042252H98773197I04903421I10580916I15630299
201I20209877I24634917I29140214I33729967I37932163I40226756I38101715
194I29696822I15411370H97856214H80934934H67924066H58424101H47852117
187H32445552H15059022H04050247H05751090H19409497H39254477H59178577
180H75462066H87224819H95601822I02326292I08619877I15003822I21538463
173I27988009I34072341I39796867I45317263I50526163I55217163I59670165
166I64543095I69989068I75163746I78524451I77936467I69594114I46770718
159I02246319H36341235G63698377G08319385F87328888F98749693G26908424
152G57618527G84753550H06958722H24476026H38491748H50271292H60329217
145H68849018H76342477H83421418H90191068H96280737I01477329I05983266
138I09952376I13150432I15303079I16482322I17104316I17772629I18971865
131I20740230I22684905I24121711I24217408I22569357I19673120I16331554
124I12961529I10137224I09256741I11707650I17474795I24855696I31387562
117I35460551I37412057I38636835I39699818I40103809I39826537I40026540
110I41795261I44702811I47018890I47680586I47522063I48078670I50043837
103I53000338I56051825I58516181I60053664I60556767I60402300I60530086
96I61684923I63633441I65390280I66104912I65791211I65583879I66836691
89I69568358I72354241I73615164I72838418I70970086I69726880I70224148
82I72292625I75037882I77438843I78817874I79620163I81203965I84249760
75I87935621I90741498I91619561I90277101I86590813I79516426I65428061
68I38039316H93891729H41294849H00291528G88271710H05247917H33748667
61H53025371H54973320H49963995H53228861H68954533H90703634I09699011
54I22435524I30949491I38073682I44801425I50326375I53287145I53768049
47I53793165I55422503I59033229I63372178I67237551I70631483I73979737
40I77144637I79417528I79686546I76982557I72119730I67661321I64733493
33I60577614I51624864I40249382I31647900I28899442I32652611I39923230
26I44340087I39796867I25562786I08568506H98276000H99383380I11349978
19I32404511I58958735I82465599I96471858A001857496A001137172I96004615
12I87781083I76544841I60222077I35502245I01123570H60583009H20650995
5G89224197G72527894G69295971G65721388G48628281
##END=


$$ === CHEMSPECTRA PEAK TABLE AUTO ===
##TITLE=JB 205.1
##JCAMP-DX=5.00
##DATA TYPE=INFRAREDPEAKTABLE
##DATA CLASS=PEAKTABLE
##$CSTHRESHOLD=0.93
##MAXX=3997.453
##MAXY=0.8995064460513932
##MINX=373.96442
##MINY=0.4546653912063775
##NPOINTS=158
##PEAKTABLE= (XY..XY)
3994.6199362157936, 0.8276540603181843
3988.953808647381, 0.8274600469237123
3979.0380854026585, 0.8268181048094528
3962.0397026974197, 0.8270232642103562
3942.208256207975, 0.8267815077078401
3925.2098735027366, 0.8270837031265525
3911.0445545817042, 0.8286861151707312
3891.2131080922595, 0.8273434013066139
3879.880852955434, 0.8279768195114078
3871.381661602815, 0.8289732900787099
3868.5485978186084, 0.8290201988070166
3860.049406465989, 0.8285649382684929
3851.5502151133696, 0.8277868598955995
3838.801428084441, 0.8292102187394325
3828.8857048397185, 0.8290848104596305
3818.969981594996, 0.8286290732523611
3810.470790242377, 0.8280223577123548
3803.3881307818606, 0.8282929028290017
3796.3054713213446, 0.8278873532278425
3787.8062799687254, 0.8289325202406796
3776.4740248319, 0.8295240368333217
3766.5583015871775, 0.8279491031925217
3759.4756421266616, 0.829214450116996
3745.310323205629, 0.8293554150551543
3729.728472392494, 0.8285183277723012
3719.8127491477717, 0.8311482633838868
3705.6474302267397, 0.8299334609387835
3698.564770766224, 0.8289545743380349
3682.982919953088, 0.8304588169148214
3671.6506648162626, 0.8300065361842554
3663.1514734636435, 0.8302695718832661
3648.9861545426115, 0.8300329414546586
3639.0704312978887, 0.8310747709485463
3630.5712399452696, 0.8302205168890084
3616.4059210242376, 0.8293513026353443
3602.2406021032057, 0.8302248680620565
3596.574474534793, 0.830384429783136
3588.0752831821737, 0.8313758337554065
3575.3264961532445, 0.8310379945725723
3571.076900476935, 0.8309145532843599
3563.994241016419, 0.8309895360425446
3552.6619858795934, 0.8304399813786619
3534.2470712822515, 0.8302464454906661
3525.7478799296323, 0.8292633258368924
3515.83215668491, 0.8301362361582285
3508.749497224394, 0.8290087545684703
3501.666837763878, 0.8285304874328311
3491.7511145191556, 0.8287731972728383
3483.2519231665365, 0.8289099299957021
3474.7527318139173, 0.8291382752680823
3466.2535404612977, 0.8307212561496022
3456.3378172165753, 0.829060610934055
3447.838625863956, 0.829400357629602
3439.339434511337, 0.829270299944637
3429.423711266614, 0.8292776912422501
3418.0914561297886, 0.8296789491492382
3406.759200992963, 0.828209515956836
3398.260009640344, 0.8295442428968409
3391.177350179828, 0.8293269841520152
3379.8450950430024, 0.8287395799791831
3361.430180445661, 0.8296903933877845
3345.8483296325253, 0.8298651540562284
3320.350755574668, 0.8280605640945654
3306.1854366536354, 0.8234326802322207
3292.0201177326035, 0.8257138099289022
3272.1886712431588, 0.826399263773642
3256.6068204300236, 0.8237388699507201
3245.2745652931976, 0.8248485296584174
3233.942310156372, 0.8245221347141295
3218.360459343237, 0.8265260425808038
3205.6116723143077, 0.8264279334300192
3191.446353393276, 0.825332041825719
3178.697566364347, 0.8271573748362543
3168.7818431196247, 0.8277082405486198
3165.9487793354183, 0.8276740276284654
3156.033056090696, 0.8264579141348792
3137.618141493354, 0.8272511328139909
3127.7024182486316, 0.8267533741990853
3116.370163111806, 0.8258911935320425
3105.0379079749805, 0.8267642228111324
3076.707270132916, 0.8206652964757877
3058.2923555355746, 0.8183893531696222
3041.2939728303363, 0.8011051383745995
3017.2129306645816, 0.8118606768698122
2998.79801606724, 0.8174103467733892
2977.5500376856917, 0.8205002509698077
2960.5516549804533, 0.8195381725970213
2952.052463627834, 0.8190202682352041
2944.969804167318, 0.8190981713224695
2923.7218257857703, 0.8160653082066903
2891.1415922673964, 0.8209955064455011
2874.1432095621576, 0.8228012290190165
2851.4786992885065, 0.8212270108002002
2821.7315295543394, 0.8260235156029816
2811.815806309617, 0.8254231182276128
2800.483551172791, 0.8262845248315258
2789.1512960359655, 0.82721429695914
2765.0702538702108, 0.828904923717278
2750.904934949179, 0.828891810719257
2743.822275488663, 0.8291498987809898
2729.656956567631, 0.8297990529185011
2722.574297107115, 0.8303839531143905
2711.2420419702894, 0.8303948008887069
2697.076723049257, 0.8306824533031617
2687.1609998045346, 0.8301846352093794
2674.412212775606, 0.829781946458424
2664.496489530883, 0.8303008049954629
2657.413830070367, 0.8301420181752438
2641.831979257232, 0.8306873406238321
2627.6666603362, 0.8318127362642469
2612.084809523065, 0.8337691389383844
1653.0927185691944, 0.5072183591554006
1583.6826558561374, 0.6474834654975432
1562.4346774745895, 0.7250426978362197
1539.770167200938, 0.7676742640854987
1481.6923596247066, 0.8200932705246812
1464.6939769194682, 0.783449527419695
1430.6972115089911, 0.7226295443007141
1352.787957443315, 0.7101393311692608
1327.290383385457, 0.7352766962185507
1298.9597455433932, 0.6438869805446388
1283.3778947302576, 0.5541129088706801
1252.2141931039873, 0.5762088274158487
1242.298469859265, 0.5809139584223518
1209.718236340891, 0.6694514131448208
1158.7230882251756, 0.7436120475916366
1136.0585779515245, 0.7361749378395839
1123.3097909225953, 0.754779454690377
1100.6452806489442, 0.714538392252749
1068.0650471305703, 0.7685912817638143
1051.066664425332, 0.7372990224315157
1025.5690903674745, 0.6733251190900018
974.573942251759, 0.6657329177476713
946.2433044096947, 0.6598370648638865
898.0812200781857, 0.7781531780526647
869.7505822361218, 0.7778733936045685
842.8364762861606, 0.7575896347553068
817.3389022283031, 0.8142803873231934
798.9239876309616, 0.7381221028577336
781.9256049257228, 0.6808628411320512
773.4264135731037, 0.6278645372396334
749.3453714073494, 0.4546653912063775
726.6808611336978, 0.6634755703866966
712.5155422126659, 0.667140123468918
696.9336913995307, 0.5841966847602439
671.4361173416728, 0.693287429794523
634.6062881469898, 0.6735775440924731
592.1103313838935, 0.575796482981306
545.3647789444876, 0.761712249747379
531.1994600234557, 0.7873215051265244
522.7002686708365, 0.7937682832015516
511.3680135340105, 0.804558452644518
501.45229028928816, 0.8088992202400301
491.5365670445658, 0.8123699392021408
463.20592920250147, 0.6603593798776286
456.1232697419855, 0.7120408985075867
413.6273129788897, 0.7781675426202918
403.71158973416686, 0.75251334634216
##END=

##END=

