##TITLE=X7429
##JCAMP-DX=5.0
##DATA TYPE=LINK
##BLOCKS=1


$$ === CHEMSPECTRA SPECTRUM ORIG ===
##TITLE=X7429
##JCAMP-DX=5.00
##DATA TYPE=INFRARED SPECTRUM
##DATA CLASS=XYDATA
##ORIGIN=ComPlat
##OWNER=
##XUNITS=1/CM
##YUNITS=TRANSMITTANCE
##XFACTOR=1
##YFACTOR=8.7158875e-010
##FIRSTX=3997.453
##LASTX=373.96442
##MAXX=3997.453
##MAXY=0.9358612933312912
##MINX=373.96442
##MINY=0.38743493125575623
##NPOINTS=2559
##XYDATA= (X++(Y..Y))
2559I57128439I58224670I59158689I59389629I59144875I58697560I58130639I57783510
2551I58098087I58936160I59713369I60248218I60857539I61609445I62088832I61952812
2543I61332071I60666810I60289249I60154734I59997856I59780730I59783123I60135859
2535I60559922I60749557I60808574I61085812I61624490I61934348I61444839I60264562
2527I59297307I59383064I60362217I61182989I61116175I60570522I60515676I61344380
2519I62414898I62962808I62974023I62743562I62284417I61623054I61177381I61221148
2511I61354091I61203983I61007099I61074596I61219028I61052986I60592337I60212725
2503I60231531I60617571I61053465I61396217I61923885I62912407I63978959I64194580
2495I63115925I61482589I60663117I61170884I62258498I63182533I63677375I63650773
2487I63259467I62881223I62813794I63003019I63106556I62973613I62734330I62418522
2479I61839154I61082393I60755370I61325027I62270192I62724140I62447586I61593305
2471I60528601I60051881I61053328I63249483I65167647I65916134I65548422I64508336
2463I63360816I62530949I62192848I62356017I62985375I63949621I64740576I64940332
2455I64875570I64888974I64973841I64985877I64772374I64208121I63385571I62786987
2447I63023945I64133785I65294094I65766437I65545071I65081891I64827426I64903266
2439I65173802I65446184I65535496I65397767I65224408I65194045I65192677I65301001
2431I65920922I67019546I67931202I68133557I67492915I66262989I65307566I65354205
2423I65643547I65008034I63716219I63274375I64413416I66448316I68462905I69599072
2415I69570693I68977716I68515973I68393767I68508040I68727491I68857083I68640094
2407I67998973I67186340I66686710I66755438I67070767I67271617I67411672I67681046
2399I68011283I68077344I67802226I67681251I68206046I69088639I69474337I68879719
2391I67630098I66604647I66383486I66725075I67023375I66892416I66463361I66022954
2383I65396194I64537537I63976018I64190477I64753774I64911131I64435573I63492733
2375I62568698I62173700I62348153I63186910I64971995I67271139I69170087I70106020
2367I70136110I69709722I69308295I69200519I69383315I69710406I69986481I69929652
2359I69412037I68923349I69430843I71012274I72485518I73040541I72775954I72283779
2351I72244252I72787101I73302665I73428085I73425418I73548787I73909728I74706565
2343I75959606I76972747I76691817I75190260I73471715I72067542I71106510I70704947
2335I70849242I71208406I71370276I71321106I71366446I71449672I71489678I71833046
2327I72769184I73877246I74581145I74669910I74141422I73213558I72256630I71587607
2319I71557723I72385469I73447507I73735892I73075418I72240969I72168206I72647936
2311I73051824I73568961I74387133I75278137I75969180I76414237I76544992I76069024
2303I74807298I72969419I70906002I69031810I68288110I69315407I70777436I71447347
2295I71572904I71810341I72462404I73262591I73631261I73297263I72535645I71977682
2287I72238302I73351561I74951661I76757468I78236866I78622496I77791125I76341543
2279I74865153I73587425I72630976I72040256I71607166I71226528I71080524I71177153
2271I71320696I71560937I72141672I72935978I73469664I73367427I72689925I72113702
2263I72211016I72459805I71903825I70661111I69700695I69397608I69365945I69405062
2255I69715193I70132554I70208258I69952015I69547442I69018611I68511254I68370037
2247I68592292I68642214I68149970I67513089I67370777I67771794I68126308I67716264
2239I66516223I65469641I65454391I66218128I66626462I65920306I64477767I63125157
2231I62160433I61383838I60559853I59633973I58779350I58201555I57865916I57633607
2223I57417371I56922528I55746559I54069387I52667265I51908247I51294070I50241948
2215I48831688I47550609I46562292I45574111I44395817I43232363I42257928I41258053
2207I40035650I38750467I37658545I36824644I36121634I35325140I34298252I33165914
2199I32151541I31231405I30121633I28570019I26565824I24287128I21837807I19226480
2191I16747686I14927313I13728708I12328022I10091725I07175874I03900790I00272560
2183H96396294H92647499H89122600H85465785H81436812H77189345H72852223H68214955
2175H63064653H57677462H52634458H48057027H43333319H37854215H31765246H25710605
2167H20284228H15907032H12618066H09939789H07408747H05137915H03528172H02654538
2159H02249282H02165645H02636553H03922965H05696972H07114550H07761552H08154430
2151H08990520H10403105H12255072H14474888H16765142H18633932H20045423H21575496
2143H23709693H26320404H28975636H31476177H33872293H36129516H38090558H39742565
2135H41291238H42938115H44719165H46547470H48337548H50109297H51972753H53966211
2127H55971977H57879543H59795177H61927596H64199933H66215753H67763059H69045369
2119H70181332H70945137H71245626H71398333H71770490H72565001H73820093H75229396
2111H76322071H77174026H78419339H80275956H82136471H83358601H83953766H84319290
2103H84777341H85499568H86439673H87236372H87562164H87602307H87818270H88310104
2095H88814589H89219982H89708123H90473638H91538138H92795350H94107271H95336376
2087H96325582H96986330H97460725H98024296H98745702H99404124H99768349H99866962
2079H99994228I00460007I01314082I02352732I03291606I03815034I03689886I03064564
2071I02494360I02499078I03164886I04086049I04655979I04598056I04232805I04076474
2063I04337299I04963512I05899172I07039170I08130614I08975662I09630733I10235609
2055I10771894I11227141I11849045I12895696I14188058I15254815I15905783I16377579
2047I16949083I17670968I18437304I19084989I19439777I19490930I19533876I19919233
2039I20635236I21343991I21810863I22091247I22327795I22556752I22729564I22882133
2031I23304418I24377603I26048072I27634359I28511617I28961666I29831676I31226891
2023I32152704I31822809I30756873I30052700I30139892I30756599I31565266I32297956
2015I32756691I33060941I33517419I34006995I33973213I33326416I32838412I33155519
2007I33945585I34567420I35028001I35687313I36534823I37307040I37932090I38499148
1999I39036869I39476866I39783646I40142948I40878441I42033416I43206785I43916635
1991I43981192I43602126I43191810I42993353I42912247I42862598I43020844I43540374
1983I44332081I45237583I46122158I46802875I47112527I47073684I46939921I47013299
1975I47347159I47748040I48112334I48501793I48874703I49072681I49043070I48866907
1967I48670297I48499400I48160478I47526879I47076967I47456373I48459804I49261085
1959I49568755I49722487I49888665I49903437I49655605I49226277I48966067I49427947
1951I50718532I52056371I52497257I52023683I51534174I51805052I52756304I53722327
1943I54226402I54300054I54127652I53745374I53183649I52617275I52291688I52362741
1935I52675608I52674651I51830150I50303701I48954920I48514171I48860068I49254178
1927I49213557I48891116I48559579I48173471I47670354I47204986I46763553I46022041
1919I44913569I43949871I43739720I44411887I45562759I46583013I47066640I47085720
1911I47101791I47508689I48249243I48983300I49603084I50301718I51059232I51441579
1903I51119207I50308488I49641518I49759826I50832053I52274728I53270568I53631305
1895I53743322I53787089I53677056I53672679I54309628I55611907I56887173I57529251
1887I57720116I58021494I58551693I59075394I59659139I60532977I61467680I62062572
1879I62511391I63376613I64758288I66174566I67100720I67389310I67344175I67389173
1871I67595563I67797986I68041509I68369558I68431721I67998358I67524304I67543793
1863I67956368I68461127I69119002I69987165I70738113I71032995I70864081I70310358
1855I69287574I67691235I65577212I63055540I59998813I55964574I50512758I43517943
1847I35108629I25516095I15070651I04088647H92703370H80973016H69066021H57233840
1839H45874550H35658540H27221871H20811759H16700654H15721842H18703344H25349047
1831H34165806H43578552H52856781H61902430H70500011H78160634H84568353H89724330
1823H93659751H96386788H98050214H98797675H98666168H97834387H96706767H95521019
1815H94111305H92136107H89327417H85591684H81181047H76747091H72921977H69806233
1807H67117220H64902327H63845487H64680414H67388234H71078696H74680050H77692120
1799H80187738H82192958H83374466H83414746H82446602H81015963H79748014H79003836
1791H78734873H78709775H78816594H78970805H78878415H78187715H76818213H74998388
1783H73112843H71603081H70858629H71052025H72075630H73652752H75511694H77448528
1775H79290169H80900185H82239461H83340684H84209325H84784180H84952752H84580525
1767H83603765H82183316H80777911H79962200H80016430H80738383H81800626H83190029
1759H85112228H87636705H90626413H93852327H97044663I00003529I02719829I05256342
1751I07529225I09332706I10585063I11472646I12309353I13258895I14212130I14894146
1743I15101766I14970670I14976962I15485892I16385511I17380737I18427046I19572104
1735I20643237I21459905I22168728I23070195I24202808I25290558I26074743I26567466
1727I26947351I27343717I27827208I28449522I29151028I29796799I30433474I31317571
1719I32552284I33853263I34806909I35261472I35343125I35191445I34905932I34744336
1711I35069717I35954224I37029050I37853308I38327089I38693434I39248593I40096240
1703I41110817I42051880I42712149I43021801I43054217I42937618I42767952I42558690
1695I42219700I41681979I41112732I40817167I40890614I41239725I41886864I42840236
1687I43756885I44215551I44242222I44184572I44250428I44487317I44955763I45628205
1679I46319589I46891093I47361795I47793312I48255466I48822661I49395464I49666547
1671I49540511I49436974I49858370I50765308I51662535I52206752I52437829I52497804
1663I52477835I52523175I52748850I53033268I53191856I53317002I53657566I54209100
1655I54699566I54917787I54858291I54656415I54538517I54726237I55249870I55869517
1647I56223006I56074402I55460910I54587208I53578373I52412663I51128439I49947546
1639I49070766I48464728I47988418I47588632I47170792I46461422I45335375I44184982
1631I43618403I43793403I44324422I44824941I45263706I45750479I46278900I46826947
1623I47486394I48329118I49302185I50315190I51286001I52133579I52861824I53539326
1615I54129636I54542893I54867660I55340687I56129590I57250918I58507515I59452954
1607I59718635I59424779I59030191I58824622I58782496I58789403I58786052I58714725
1599I58482486I58040848I57505794I57150596I57187935I57520087I57803548I57841776
1591I57802385I57884243I57940866I57730443I57415729I57416824I57804779I58252913
1583I58612556I59105621I59868469I60747710I61672018I62774404I63994072I64983894
1575I65569211I65918870I66166496I66234609I66162598I66289181I66892211I67814125
1567I68632503I69063473I69051232I68690836I68265474I68158313I68565690I69398907
1559I70385925I71153150I71459041I71448373I71406931I71394758I71471077
1552I71913263I72727195I73409279I73742525I74300967I75541493I76867227
1545I77277340I76653521I75732222I75080500I74792117I74896679I75352952
1538I75832886I75989422I75740633I75167420I74533959I74346307I74899209
1531I75909205I76893351I77585966I77850826I77694906I77436268I77406453
1524I77567365I77713438I77806102I77878523I77890832I77786475I77431550
1517I76604009I75412790I74563570I74741853I75788777I76865518I77393117
1510I77529890I77793996I78494477I79513363I80467146I81031947I81083989
1503I80593455I79671130I78769732I78470132I78933106I79828897I80755051
1496I81415320I81570899I81254134I80907553I80965202I81451838I82167021
1489I82904430I83325689I83137490I82647024I82587732I83137148I83648198
1482I83607577I83346205I83495150I84127654I84771168I85132316I85487377
1475I86170760I86890114I86992831I86382415I85641930I85169176I84767954
1468I84246167I83855545I83857939I84078005I84180722I84092025I83907382
1461I83630418I83189874I82543282I81715331I80924102I80580051I80906800
1454I81703158I82663574I83672065I84586388I85134776I85252265I85119391
1447I84746002I84061524I83500210I83757820I84757764I85563901I85557677
1440I85078154I84771031I84885168I85248367I85492848I85362093I84970924
1433I84541459I83933779I82869484I81459019I80066813I78928730I78287267
1426I78456523I79392730I80620946I81714168I82391260I82353442I81695635
1419I81197442I81512018I82335935I82908875I82984237I82835497I82715274
1412I82744953I83003727I83424233I83690392I83322475I82202377I81211119
1405I81524807I82988545I84317973I84994517I85596521I86389049I86936070
1398I86908510I86505442I86239078I86513922I87252630I87840751I87752533
1391I87272872I86903723I86501818I85860287I85381105I85502422I86004308
1384I86353214I86359096I86063257I85308068I84020356I82694211I81987644
1377I82029292I82592315I83675895I85234485I86691521I87462096I87552503
1370I87217069I86575948I85913560I85843737I86811744I88579322I90264153
1363I90982345I90702782I90385880I90957179I92250430I93261862I93305423
1356I92622520I92024072I92244891I93506548I95399273I97236126I98620810
1349I99537459A000023958A000111082I99934167I99594493I99132202I98749513
1342I98623477I98554134I98292693I98022568I98079123I98520214I99218711
1335I99931774A000178921I99577533I98409292I97398749I96874637I96656006
1328I96788197I97560755I98609732I99172208I99535749A000752203A002589740
1321A003514117A003075624A002505762A002573875A002556983A001780595A000826676
1314A000661113A001435791A002598220A003603908A004247695A004790819A005797532
1307A007304627A008399011A008303681A007442699A006768206A006613310A006764102
1300A007086954A007669604A008549119A009501807A010281820A011041523A011988740
1293A012646205A012356658A011510037A011232594A011843556A012403160A011885408
1286A010299532A008423152A006740099A005285182A004406967A004652815A005798011
1279A007236104A009314497A012746391A016847785A019983224A021530530A021963140
1272A021405930A019637395A017285115A015491344A014490238A013799470A013651002
1265A014884827A017756843A021954730A026621883A029520432A028872062A026534554
1258A025887210A027797442A030653728A032760570A033476368A032738345A030494935
1251A026989801A023394875A021068786A019837493A018407127A016898596A017204829
1244A020195631A024253258A027184565A028178148A027639470A026298143A024673902
1237A023011160A021720165A021503176A022447726A023471057A023552846A023127485
1230A023265146A023881374A023898606A022961443A021851877A021251651A021076377
1223A021055656A021239546A021771591A022450598A022703832A022202083A021467820
1216A021376182A022021817A022692001A022913026A022912205A023134528A023751304
1209A024503414A024743382A023946204A022499563A021640974A022197979A023652964
1202A024890823A025639789A026479571A027665525A028837733A029829811A030900534
1195A032063510A032797772A032583587A031369800A029483230A027480335A026195700
1188A026330011A027388902A027628186A026134426A024546635A025549792A029699877
1181A034878901A038862056A041251812A042727244A043107950A041196282A037166351
1174A033802297A033686451A036248882A039417420A042456503A044964635A045414685
1167A043391547A041418058A041977458A044044704A044810151A043669743A042425661
1160A042665012A044646639A047345501A048564827A047052124A044700801A044062348
1153A044475948A043628301A041447738A039813992A040118037A042318089A044834907
1146A045400803A043389496A040821936A040199827A041900865A044333567A045765780
1139A045289607A043006260A039978734A037879141A038424316A042542191A049291636
1132A055813354A059457381A059769496A057859880A054803974A051505570A049271256
1125A048976922A049863891A050611694A051207201A052610897A054923444A056775480
1118A056449893A053308094A048657422A045332485A045603226A049060695A052902906
1111A054672536A054303113A053199223A052272317A051730698A051921974A053004938
1104A054240061A054671783A054238420A053504020A052901880A052786102A053365744
1097A054190002A054475036A053989562A053080846A052132125A051631606A052244005
1090A053868587A055149324A054888020A053414981A052251527A052434665A053389884
1083A054045297A054341956A054749744A055132022A054953671A054115120A053025180
1076A052211316A052025853A052346789A052660066A052655690A052550512A052932927
1069A054406923A057017362A059750006A061158078A061031769A060636018A060969605
1062A061768767A062366394A062663668A063019755A063628666A064066133A063594815
1055A062442234A061870594A062541804A063963622A065140890A065378601A064775366
1048A064065175A063905083A064353833A065019368A065479060A065573501A065573570
1041A066014798A067100360A068255061A068701144A068623321A068810836A069530601
1034A070189844A069900980A068521014A066739760A065227946A064301860A064189091
1027A064977310A066256338A067165806A067085657A066246764A065368616A065113536
1020A065733935A066800555A067619411A067943288A067931389A067796874A067884340
1013A068585640A069803872A070970746A071687638A072037023A072335598A072791733
1006A073325351A073684857A073741823A073593015A073381154A073125868A072819909
999A072477772A072012678A071245727A070173226A069100999A068320302A067812055
992A067418766A067063432A066611604A065797535A064548597A063254457A062308197
985A061678770A061012142A059920424A058228960A055982336A053401851A050689791
978A047794251A044694441A041725660A039141208A036607157A033580384A030269261
971A027488267A025292865A023084265A020517047A017534382A013992866A009913697
964A005786180A001654217I96281181I88422854I79745056I72397847I65743664
957I58880083I51701994I44004101I35694425I27468249I19746831I11572286
950I01512813H89895091H79132402H70192068H62196217H54238661H45649218
943H35330423H21483448H03926727G85609551G67290050G44757685G17335501
936F94428791F80465969F70735296F62542971F55544738F48193016F39180124
929F29380382F20048811F10090754E98293245E88576386E84787927E85353344
922E88380391E93952703F03205973F15588731F28989418F44308406F65078390
915F90363915G13540341G32634452G51284464G72270822G93480461H10855480
908H23895498H34212583H43736456H56724090H77327348H96267591I06203012
901I12649642I20120083I28117302I33287641I34988474I34434613I32582511
894I29844327I25540989I18127377I08140940H98173993H87701193H73531025
887H52617361H24815429G92334171G54645236G10499890F66524006F31210328
880F03256031E77098788E54125229E41813559E40436089E44368741E47834143
873E45058176E32760319E13040406D91343036D72529547D58963195D50581440
866D46156203D44515755D44956436D47116448D50444326D54043423D57473812
859D61179318D65895744D72129898D80048371D89416426D99632880E09835418
852E19430481E29052043E40089884E51365230E59723768E65218736E69898815
845E75189718E81178640E87620484E94823807F02577914F10155037F18976447
838F35052880F59750968F79436552F91795101G02315703G12716082G23233469
831G33960119G43862373G51838666G57875731G61838849G62999773G61962833
824G62151921G65676067G70223818G72903463G69456319G54184176G26431619
817F90069854F47952706F06123397E75586222E62189330E63925109E76569478
810E92970747F07659829F20874506F32903981F42319461F48905121F53496571
803F56759755F60069032F66403919F75914867F84162859F90506090F96663377
796G03869437G12970752G24295165G36154632G45563274G51241381G53099571
789G50910597G46210208G43628629G46429454G54421750G66108336G79573032
782G92362962H02535615H09648395H14024360H15815737H15112521H12667783
775H09874480H07749926H06976410H08246273H11146669H13195177H12258218
768H07858728G99149677G84808406G68105829G54590869G43403023G31896702
761G19070665G04812141F89693935F75377078F63393217F54182142F48051456
754F45384121F46246608F51288517F61421506F74579490F87139779F97443733
747G03913819G04487854F99588939F92118636F84629116F78591572F74337129
740F71018005F67686571F64404717F61519640F58435491F54208745F48206146
733F40234366F30559428F19554036F07490779E95655862E87112853E84563005
726E88892535E99901620F15869388F34225954F53690582F73000384F89847325
719G03436690G14909433G25135220G33300671G37728404G37779625G33843247
712G26355573G15871968G03868070F93108253F87322165F89788240G00584028
705G16682208G35084046G52816931G65987703G71649739G68737307G57675223
698G41480208G24035298G05846346F84484548F58463666F30230354F05357745
691E88506974E80856746E80913574E86511328E95617566F05766215F14018173
684F18212846F18451241F17504981F18525713F22077009F26479644F29733596
677F30449053F28185880F23738451F18923379F15732205F15505778F18567702
670F24356799F31940761F40423179F48977611F56879021F63710461F69473776
663F74496538F79157810F83575421F87481163F90181323F90458288F86818979
656F78631031F67600883F57986399F54630346F60011451F72851097F89510386
649G06365329G20734432G30347549G32938908G26939933G12778518F93467828
642F73702847F57774265F47571180F42173867F39221703F36697227F33789787
635F30713502F28186632F27024614F27879031F31151789F37025549F45420434
628F55876547F67530377F79298412F90209703F99623269G07214070G12976975
621G17326268G21068089G25132554G30138766G35972109G41675108G45713245
614G46291040G41666492G30816062G14227622F93953301F72785378F53408626
607F38048059F28301589F24846445F27213633F34030233F43721379F55110075
600F67488046F80381581F93376464G06070037G18123994G29352393G39667905
593G48914403G56774372G62719800G65786305G64137651G55010623G36186363
586G08795501F78419307F52035842F33610547F23357335F20549056F25209370
579F36935758F53655432F72352562F90551224G06904417G20962227G32830037
572G42846427G51246305G58051963G63185099G66417305G67270628G65503734
565G61936162G58396834G56584190G57154736G59917128G64513775G70665046
558G77988250G85924333G93878058H01318956H07781315H12789784H15601209
551H14823043H08254001G93303409G68186798G33642944F93994538F56198509
544F27027828F10318890F06138783F11899364F24036342F39216643F55049621
537F70408957F85168957F99507629G13404868G26649087G39087990G50800563
530G62078679G73223510G84312607G95167548H05556917H15427098H24935789
523H34217985H43057928H50828925H56784338H60297064H60676949H56831114
516H47257251H30451136H05508363G72794865G34307111F93025779F51466732
509F11000084E72808682E39068229E12610769D95385755D87335195D86506456
502D90007078D95136556E00309391E05434971E11444785E19179469E28518665
495E38509924E48221790E57347724E66055271E74494709E82582130E90172315
488E97295900F04110996F10676208F16989007F23221520F29614399F36160326
481F42709947F49297042F55995539F62553229F68482313F73459528F77472363
474F80654852F83088785F84756862F85698676F86187432F86648971F87374549
467F88321629F89112789F89140827F87763256F84708853F80654715F77469765
460F77462994F81858859F89879125F99456202G08808426G17227178G24500324
453G29744246G30577053G23605832G07042626F83942997F62141339F49497414
446F48703313F56756268F68664357F80818295F91555886G00206536G06370389
439G09742445G10240501G08325619G05183820G02376020G01122500G01809508
432G04019750G06957758G09972017G12844716G15703943G18770654G22179706
425G25914961G29846962G33838255G37816827G41789724G45829365G49986973
418G54209342G58420291G62614211G66739062G70572929G73832763G76226417
411G77202014G75840787G71534918G65149972G59310269G56900544G58934692
404G64002246G69748944G74601355G78196692G80806514G82821651G84630808
397G86490639G88263483G89503940G89999329G90037352G89972317G89777006
390G89262537G88548721G88080960G88250421G89127542G90447670G91618783
383G91690452G89487117G84012665G75017691G63522859G51860686G42843417
376G38455554G39044428G43464502G49920501G56971597G64065709G71278128
369G78687568G86031015G92815747G98741822H03987727H08900182H13518918
362H17695947H21462864H24933806H28120193H31096907H34029444H36931344
355H39704405H42314091H44579863H45945809H45655030H42829176H36326400
348H25384061H11238922G97803221G89751156G89335300G94975862H02774146
341H09205526H12442177H11307171H03375808G84760946G52561371G08793312
334F63076384F30196092F21299252F35261732F59349199F78408981F82960082
327F70994343F46543882F18079903E95661538E86318752E90636589F03372288
320F17247028F26493321F27957607F20900834F07667352E94543766E89738473
313E98190118F17922478F42083324F64358488F82119069F95493632G05026122
306G10386643G10222174G02423890F85055846F58428515F26804615E97133962
299E75287716E63641751E61823772E68329249E81095961E97650278F15609725
292F33300826F49966065F65386675F79346145F91459872G01305023G08476069
285G12608032G13681421G12535064G10852558G10169243G10854131G12358901
278G14302300G16885110G20341212G24494374G29098749G34315180G40376249
271G46650205G50810616G48396720G34448465G08886249F80926414F64431388
264F66498634F82319577G01687507G17688785G28586263G35202765G39173404
257G42378666G46103047G50476002G54967061G59108324G62471831G64479719
250G64932914G64567663G64611636G65905845G68633155G72515850G76994052
243G81324403G84412861G84204967G77549690G62425329G42030101G25496027
236G21389914G30061422G44258055G56625290G64687886G69729454G73784619
229G78003090G82342947G86214906G89432066G92445504G95792735G99458030
222H02879939H05695946H08100132H10264692H12052102H13476587H14882333
215H16644509H18853110H20956328H21411506H16445300G97239377G54800199
208G05133488F80406884F83294764G00223495G20812051G39118012G53046298
201G62939935G69927364G75342183G80046949G83896955G86021236G85079831
194G79481942G68809249G55724985G45394908G41719012G44373765G50082645
187G56078200G61597651G66842119G71916103G76783012G81232629G84693586
180G86729101G87790250G88850373G90135008G90893137G90686543G90270344
173G90759100G92292319G94070155G95460447G96297904G96285116G95113797
166G93360580G92471764G93443737G95753618G97825583G98602929G98496657
159G98558136G99054347G99288638G98412064G96156550G93363452G91726765
152G92308116G94519931G96886572G98404473G98853907G98274129G96553600
145G93115142G86678290G75526826G58120622G33837913G04172457F73828883
138F49714198F37395723F38049153F48407612F63098609F77531928F89350431
131F97854461G03114043G05854826G07168935G07572550G06518445G03232146
124F97935771F91650738F84815879F76973759F67921273F58318140F49055981
117F40757521F33876432F28530546F24235414F20585437F18322606F19140984
110F24297509F33421117F44219846F53743240F60384429F64044732F65216325
103F64759368F63627987F62147357F60004202F57035762F53690856F50660116
96F48278293F46770993F46811888F48670693F50910478F51639407F51339328
89F52137395F54530023F57004304F58238537F58351786F58344058F59371698
82F62112070F66044276F69629628F71648184F72291630F72438455F71924669
75F68969633F61581051F49579683F34817632F20234889F09306227F04389601
68F05161613F09467687F14817266F19470536F22631757F23873035F23431261
61F23156553F25715907F31534410F38542218F45549342F52565151F58976562
54F64043912F68340138F72480649F74611563F70897714F59302765F41478311
47F19776770E95647655E72833232E58271724E56123098E63573501E74834452
40E86808466E99466136F12470046F23966725F32236736F36645663F37730269
33F39304040F46943121F58478369F67161639F70139584F68210409F63810373
26F58711907F52654668F44651568F35208049F26572786F20746008F17591147
19F14843663F11141234F09775630F13963806F21446898F28930605F35674237
12F41658440F45909327F48555736F52472761F60150001F70006163F78623577
5F83305228F81362991F70807034F55682741F47115317
##END=


$$ === CHEMSPECTRA PEAK TABLE EDIT ===
##TITLE=X7429
##JCAMP-DX=5.00
##DATA TYPE=INFRAREDPEAKTABLE
##DATA CLASS=PEAKTABLE
##$CSTHRESHOLD=0.93
##MAXX=3997.453
##MAXY=0.9358612933312912
##MINX=373.96442
##MINY=0.38743493125575623
##$CSSOLVENTNAME=- - -
##$CSSOLVENTVALUE=0
##$CSSOLVENTX=0
##NPOINTS=45
##PEAKTABLE= (XY..XY)
396.6289302736509, 0.5314735791321625
433.4587594683344, 0.4847106358319475
470.2885886630179, 0.5267791768485888
507.11841785770093, 0.5637183213251288
531.1994600234557, 0.5389230272602825
566.6127573260355, 0.5555469414649162
641.6889476075057, 0.646473946520315
665.76998977326, 0.593034985516955
706.8494146442531, 0.6287553334058675
747.9288395152462, 0.579110922927685
793.2578600625484, 0.489679279157765
817.3389022283031, 0.5140094185089787
830.0876892572319, 0.51102882815724
842.8364762861606, 0.541517438426615
859.8348589913994, 0.687975767457875
905.1638795387021, 0.6436295532414175
922.1622622439404, 0.6868824988252
947.6598363017979, 0.65970599901928
987.3227292806878, 0.611090483371875
1004.3211119859261, 0.5654025096985288
1024.1525584753713, 0.5904691241117175
1085.063429835809, 0.42403355385197
1140.308173627834, 0.5283037442014913
1170.0553433620012, 0.6594302684318625
1195.552917419859, 0.54086357603272
1229.5496828303358, 0.5446091319394938
1269.2125758092257, 0.5465075995354925
1297.54321365129, 0.5705684449822075
1324.4573196012507, 0.5364679116647975
1338.6226385222826, 0.5382103945085638
1349.9548936591086, 0.5062682051752075
1375.452467716966, 0.5990622666396438
1402.3665736669273, 0.5094985388241937
1440.6129347537135, 0.5625095392922388
1487.3584871931193, 0.6481383472143237
1524.1883163878028, 0.4899978953980375
1597.8479747771694, 0.38743493125575623
1613.4298255903045, 0.47103801526639877
1681.4233564112587, 0.5096945783090212
2871.310145777951, 0.76696515394525
2895.391187943706, 0.7590305838768238
2908.1399749726347, 0.7658735544050312
2929.387953354183, 0.7529180082074712
2970.4673782251757, 0.7109739806164775
3429.423711266614, 0.6991585518184937
##END=


$$ === CHEMSPECTRA PEAK TABLE AUTO ===
##TITLE=X7429
##JCAMP-DX=5.00
##DATA TYPE=INFRAREDPEAKTABLE
##DATA CLASS=PEAKTABLE
##$CSTHRESHOLD=0.93
##MAXX=3997.453
##MAXY=0.9358612933312912
##MINX=373.96442
##MINY=0.38743493125575623
##NPOINTS=151
##PEAKTABLE= (XY..XY)
3987.5372767552776, 0.8347933322515125
3967.7058302658324, 0.8365340867347875
3952.1239794526973, 0.8361127406864962
3943.624788100078, 0.837174657400245
3932.2925329632526, 0.8377513920340638
3926.62640539484, 0.8376029761585363
3919.543745934324, 0.8369106087168438
3903.9618951211883, 0.8373031653171338
3892.6296399843627, 0.8391776711952175
3881.297384847537, 0.8373835719940875
3871.381661602815, 0.8367704188959387
3858.6328745738856, 0.83863646164726
3850.1336832212664, 0.8409746919618375
3840.217959976544, 0.8391543065155963
3830.3022367318217, 0.8409327301930575
3818.969981594996, 0.8412510788555837
3807.6377264581706, 0.8413512148154825
3800.555066997654, 0.8395791084132812
3789.2228118608286, 0.8440411128873212
3779.3070886161063, 0.8425532612105125
3766.5583015871775, 0.8434200919575262
3756.642578342455, 0.8422889745833825
3745.310323205629, 0.8401906525585975
3735.394599960907, 0.838619772465875
3721.229281039875, 0.8447442688545612
3712.7300896872557, 0.8445026906007238
3702.8143664425334, 0.847397152295365
3697.1482388741206, 0.8484266432928474
3681.566388060985, 0.8460555113745463
3675.900260492572, 0.8465925486271575
3657.4853458952307, 0.8467987813424163
3648.9861545426115, 0.8473308714572825
3629.1547080531664, 0.8439490234347625
3613.572857240031, 0.8471648128822775
3592.3248788584833, 0.846382860062505
3579.576091829554, 0.8472833663840525
3569.6603685848318, 0.8448884522951188
3556.911581555903, 0.8440204300862838
3549.828922095387, 0.8431494863119587
3541.329730742768, 0.8414791858337013
3429.423711266614, 0.6991585518184937
3306.1854366536354, 0.78660393111445
3296.269713408913, 0.7879828838780675
3233.942310156372, 0.810623470227125
3218.360459343237, 0.813051465467065
3185.780225824863, 0.8217884332125726
3173.0314387959343, 0.8253421820694887
3153.1999923064895, 0.8254616298213212
3139.034673385457, 0.8271081481289463
3130.535482032838, 0.8293464812989425
3116.370163111806, 0.83000672197931
3106.4544398670837, 0.8267142806591763
3088.0395252697417, 0.82255292288015
3065.3750149960906, 0.8276968636217225
3052.626227967162, 0.8312103781987612
3025.7121220172007, 0.8431263003080313
3014.379866880375, 0.84328329871798
2970.4673782251757, 0.7109739806164775
2929.387953354183, 0.7529180082074712
2908.1399749726347, 0.7658735544050312
2895.391187943706, 0.7590305838768238
2871.310145777951, 0.76696515394525
2840.146444151681, 0.7974781425519625
2797.6504873885847, 0.81471264738382
2769.3198495465203, 0.8200056585640713
2757.987594409695, 0.822940650878765
2738.15614792025, 0.8275185853724425
2728.2404246755277, 0.8301689656103562
2711.2420419702894, 0.8319650328588838
2682.911404128225, 0.8224471843477662
2643.248511149335, 0.83566403721052
2633.332787904613, 0.834241691529395
2626.250128444097, 0.8348097834891688
2620.584000875684, 0.8344727784694488
2597.919490602033, 0.8420964510875725
2585.1707035731038, 0.8438358938297787
2573.838448436278, 0.8466567428817725
2555.4235338389362, 0.8496178427658837
2544.0912787021107, 0.8492292797852462
2532.759023565285, 0.8518964686122038
2518.593704644253, 0.8494186437718375
2497.3457262627053, 0.852823559262215
2487.430003017983, 0.8549479879848287
2476.097747881157, 0.856412413099215
2470.431620312744, 0.8570734896331937
2450.600173823299, 0.8575174246471188
2435.018323010164, 0.8546625409260262
2419.4364721970287, 0.8572077186586375
2410.9372808444095, 0.8583153519455012
2393.938898139171, 0.8526641761854462
2382.6066430023457, 0.8552006519759775
2374.1074516497265, 0.8565235772715675
2364.1917284050037, 0.8552125726953113
2350.0264094839717, 0.8595948851951725
2337.2776224550425, 0.8588470855805688
2324.528835426114, 0.855889383149405
2308.9469846129787, 0.8592503104271587
2300.4477932603595, 0.86320919116685
2291.9486019077403, 0.86463702088439
2269.2840916340892, 0.86986524251491
2255.118772713057, 0.8686741624495325
1681.4233564112587, 0.5096945783090212
1613.4298255903045, 0.47103801526639877
1597.8479747771694, 0.38743493125575623
1541.1866990930412, 0.6641182331609288
1524.1883163878028, 0.4899978953980375
1487.3584871931193, 0.6481383472143237
1467.5270407036746, 0.7033515604713875
1440.6129347537135, 0.5625095392922388
1402.3665736669273, 0.5094985388241937
1375.452467716966, 0.5990622666396438
1349.9548936591086, 0.5062682051752075
1338.6226385222826, 0.5382103945085638
1324.4573196012507, 0.5364679116647975
1297.54321365129, 0.5705684449822075
1269.2125758092257, 0.5465075995354925
1229.5496828303358, 0.5446091319394938
1195.552917419859, 0.54086357603272
1170.0553433620012, 0.6594302684318625
1140.308173627834, 0.5283037442014913
1085.063429835809, 0.42403355385197
1024.1525584753713, 0.5904691241117175
1004.3211119859261, 0.5654025096985288
987.3227292806878, 0.611090483371875
947.6598363017979, 0.65970599901928
922.1622622439404, 0.6868824988252
905.1638795387021, 0.6436295532414175
859.8348589913994, 0.687975767457875
842.8364762861606, 0.541517438426615
830.0876892572319, 0.51102882815724
817.3389022283031, 0.5140094185089787
793.2578600625484, 0.489679279157765
770.5933497888973, 0.6189755227948163
747.9288395152462, 0.579110922927685
725.2643292415946, 0.6663885736845913
706.8494146442531, 0.6287553334058675
665.76998977326, 0.593034985516955
641.6889476075057, 0.646473946520315
619.0244373338542, 0.68879074128903
606.2756503049254, 0.690709474195055
599.1929908444095, 0.6959607031538088
589.2772675996871, 0.6900601414478937
566.6127573260355, 0.5555469414649162
531.1994600234557, 0.5389230272602825
507.11841785770093, 0.5637183213251288
500.03575839718496, 0.56770003071736
491.5365670445658, 0.5738052745821475
470.2885886630179, 0.5267791768485888
458.9563335261919, 0.5431362410835787
433.4587594683344, 0.4847106358319475
396.6289302736509, 0.5314735791321625
##END=

##END=

