##TITLE=F. Mohr LL-16
##JCAMP-DX=4.24
##DATA TYPE=INFRARED SPECTRUM
##DATE=14/6/2017
##SAMPLING PROCEDURE=Diamant ATR
##ORIGIN=Angelika Moesle
##XUNITS=1/CM
##YUNITS=TRANSMITTANCE
##RESOLUTION=4
##FIRSTX=3997.4121
##LASTX=373.82813
##DELTAX=-1.4160156
##MAXY=0.96181864
##MINY=0.48089394
##XFACTOR=1
##YFACTOR=8.9576341e-010
##NPOINTS=2560
##FIRSTY=0.92327136
##XYDATA=(X++(Y..Y))
3997+1030708945+1029839658+1029378998+1029444940+1029807786+1030124718
3989+1030184206+1030032427+1029802462+1029424179+1028779068+1028142074
3980+1028036275+1028562744+1029299083+1029889364+1030280889+1030426480
3972+1030276298+1030046134+1030072484+1030419626+1030824992+1030936780
3963+1030533477+1029753023+1029161210+1029290432+1030047531+1030835106
3955+1031189235+1031084500+1030733565+1030371385+1030229320+1030376242
3946+1030468334+1030100963+1029545482+1029559855+1030267182+1030787729
3938+1030466604+1029670712+1029088947+1029046228+1029582080+1030564552
3929+1031500379+1031796352+1031375682+1030646929+1030053786+1029766730
3921+1029693336+1029747633+1030024908+1030673279+1031576701+1032256613
3912+1032338458+1031935821+1031368961+1030703555+1029830343+1028926256
3904+1028499264+1028878945+1029859554+1031050631+1032130918+1032674422
3895+1032385103+1031426852+1030367525+1029972141+1030539865+1031208332
3887+1031056753+1030350624+1030019119+1030407250+1031064605+1031720096
3878+1032172373+1031957513+1031174463+1030596957+1030649058+1030883415
3870+1030859260+1030866247+1031085432+1031206602+1031302088+1031752435
3861+1032323220+1032296737+1031552613+1030588507+1029928756+1030056182
3853+1031445816+1033468051+1034140112+1033331510+1032284161+1031687824
3844+1031560931+1031522471+1031153836+1030448172+1029961894+1030346964
3836+1031443221+1032182354+1031928967+1031014633+1030103226+1029696729
3827+1029999822+1030849080+1031588013+1031546891+1030993073+1031077314
3819+1032292545+1033508508+1033935100+1033829034+1033380351+1032595704
3810+1031676446+1030870106+1030481908+1030872036+1031655419+1031691949
3802+1030869907+1030406651+1031059681+1032020061+1032707958+1033347613
3794+1033739870+1033444363+1032735373+1032331937+1032536616+1033003731
3785+1033229503+1033039929+1032624250+1032267459+1032134112+1032150148
3777+1031994443+1031487337+1030840296+1030360272+1030215280+1030445311
3768+1030896922+1031284322+1031544229+1031684963+1031409019+1030536938
3760+1029550806+1029242124+1029750827+1030345766+1030481443+1030335453
3751+1030604210+1031841666+1033162697+1033242479+1032445389+1032034168
3743+1032520180+1032942780+1032690791+1032201185+1031936154+1032087533
3734+1032784214+1033994587+1035147337+1035538396+1035037811+1034051812
3726+1033174208+1032869186+1033091698+1033291719+1033089702+1032750278
3717+1032699907+1032760924+1032381510+1031612766+1031491130+1032924082
3709+1034956033+1035953942+1035689709+1034760071+1033909216+1033848331
3700+1034610753+1035286606+1035210750+1034620269+1034004835+1033554222
3692+1033142801+1032727787+1032701703+1033255654+1033527605+1032938122
3683+1032081345+1031698005+1031881524+1032152211+1032150680+1032294408
3675+1033394790+1034999351+1035843485+1036269544+1037099173+1037661707
3666+1036990578+1035735556+1034817628+1034324030+1034002040+1033931041
3658+1034363156+1035147137+1035523624+1034914312+1033806610+1033151651
3649+1033520485+1034566171+1035079399+1034556057+1033546436+1032751409
3641+1032574744+1032931934+1033404904+1033694090+1033807276+1033771610
3632+1033331976+1032268524+1031154235+1031342012+1032936126+1034051080
3624+1033945148+1033226243+1032418506+1031799279+1031680238+1032194198
3615+1033062021+1033966441+1034619603+1034704908+1034314382+1034044227
3607+1034263611+1034625060+1034673701+1034492178+1034415590+1034590525
3598+1034950310+1035419488+1035922069+1036241531+1036102660+1035468928
3590+1034683549+1034305798+1034698920+1035426874+1035632218+1035216340
3581+1034652341+1034247774+1034000110+1033895841+1034107773+1034693064
3573+1035251806+1035230313+1034513737+1033546969+1033024625+1033360256
3564+1034132526+1034639898+1034782029+1034759871+1034618672+1034342528
3556+1034040168+1033830698+1033723701+1033684508+1033675259+1033676590
3547+1033769081+1034044626+1034314980+1034145701+1033415418+1032579801
3539+1032254417+1032684270+1033556750+1034262347+1034432890+1034232270
3530+1034060596+1034042164+1033955661+1033682046+1033442700+1033471245
3522+1033743995+1034100254+1034373270+1034421312+1034266406+1034173249
3513+1034378327+1034727998+1034760470+1034262214+1033612178+1033330579
3505+1033445494+1033575115+1033426530+1033071603+1032823938+1032884690
3496+1033138077+1033335436+1033433317+1033578176+1033804082+1033978618
3488+1033949140+1033645781+1033224446+1033084711+1033490675+1034203924
3479+1034748093+1035020910+1035295656+1035650717+1035785395+1035480240
3471+1034939531+1034520458+1034412396+1034652541+1035096633+1035354478
3462+1035126377+1034584270+1034143306+1033992791+1034065120+1034219095
3454+1034302537+1034286634+1034375532+1034792077+1035518367+1036319383
3445+1036888505+1037039951+1036871271+1036609168+1036287776+1035797771
3437+1035207223+1034748426+1034513671+1034406607+1034298811+1034092868
3428+1033807409+1033653567+1033803350+1034085016+1034108039+1033616371
3420+1032612007+1031336223+1030185337+1029392506+1028787452+1028093766
3411+1027395356+1027065580+1027297874+1027918565+1028564541+1028881141
3403+1028674532+1028081922+1027549796+1027496298+1027965143+1028634941
3394+1029187960+1029636577+1030239035+1031130147+1032142895+1033010252
3386+1033617901+1033977619+1034065320+1033849862+1033487282+1033320398
3377+1033583167+1034154884+1034656733+1034751354+1034331083+1033540182
3369+1032728719+1032304389+1032451244+1032964139+1033463394+1033772674
3360+1033980813+1034195008+1034393033+1034506152+1034448927+1034055139
3352+1033210939+1032159930+1031485008+1031620485+1032434476+1033381881
3343+1034002772+1034214704+1034186424+1034078229+1033979017+1034007164
3335+1034244647+1034553528+1034690403+1034637436+1034561247+1034491712
3326+1034374202+1034363422+1034674566+1035186197+1035512246+1035437188
3318+1035092374+1034780299+1034706106+1034815765+1034879511+1034771649
3309+1034590991+1034521922+1034674632+1035005539+1035320076+1035451627
3301+1035431199+1035347158+1035139884+1034734852+1034222689+1033733083
3292+1033314210+1033075661+1033224513+1033797428+1034511475+1035026965
3284+1035274429+1035417691+1035546447+1035551704+1035310827+1034855623
3275+1034337471+1033912942+1033617834+1033342489+1033068808+1033070139
3267+1033618500+1034579546+1035557427+1036278793+1036585546+1036344136
3258+1035697095+1035135160+1035028163+1035275694+1035545316+1035594290
3250+1035261387+1034458109+1033403441+1032720867+1033018104+1034276453
3241+1035777476+1036722287+1036829284+1036344070+1035679861+1035106348
3233+1034625525+1034101917+1033608984+1033523413+1034067582+1034914578
3224+1035534004+1035768560+1035795376+1035732495+1035604138+1035520097
3216+1035588967+1035770623+1036015026+1036390715+1036880254+1037202444
3207+1037050997+1036489727+1035984950+1036025673+1036684691+1037533350
3199+1038033203+1038004657+1037658380+1037264460+1036917583+1036593797
3190+1036319184+1036225694+1036375344+1036599320+1036686022+1036665461
3182+1036685090+1036724216+1036691811+1036644966+1036689416+1036830016
3173+1037061244+1037419300+1037867517+1038256247+1038387665+1038100276
3165+1037431942+1036714701+1036320980+1036313395+1036502570+1036775918
3156+1037127985+1037415440+1037377512+1036985854+1036553673+1036374213
3148+1036412207+1036469166+1036507627+1036636782+1036872336+1037108621
3139+1037256009+1037226798+1036886642+1036230418+1035520563+1035031224
3131+1034754880+1034549536+1034399820+1034330484+1034223886+1033914140
3122+1033389400+1032788805+1032243704+1031833681+1031729013+1032204645
3114+1033259181+1034317176+1034656999+1034139579+1033281006+1032677283
3105+1032563432+1032793862+1033026288+1033004663+1032776628+1032594506
3097+1032617729+1032785345+1032899329+1032756267+1032286423+1031620884
3088+1030985089+1030532080+1030311831+1030287943+1030270043+1029957435
3080+1029209585+1028235431+1027465689+1027303796+1027872385+1028791178
3071+1029331288+1029051352+1028176343+1027239784+1026600728+1026370364
3063+1026498654+1026811661+1027093195+1027169583+1026952395+1026526934
3054+1026116778+1025828990+1025555242+1025194991+1024830814+1024636382
3046+1024675641+1024804664+1024825358+1024754692+1024794749+1025019922
3037+1025272910+1025333262+1025032964+1024348794+1023529679+1022934140
3029+1022643624+1022455381+1022268135+1022245112+1022583471+1023255332
3020+1023967383+1024372083+1024394308+1024328765+1024524328+1025006747
3012+1025502209+1025767839+1025767240+1025583788+1025305249+1024953249
3003+1024423120+1023582978+1022493974+1021396986+1020472537+1019771465
2995+1019332829+1019155033+1019070460+1018825258+1018260328+1017335347
2986+1016012786+1014148983+1011461341+1007636321+1002534319+996259207+989030967
2976+981219831+973671398+967683541+964178248+962890954+962628251+962223418
2967+961015507+958658838+954930235+949789507+943471742+936558239+929946897
2957+924449378+920142204+916192021+911449272+905235377+897798000+890457040
2947+885254762+883870251+886486296+891622299+896904027+900050533+899656612
2937+895462158+887879589+877336496+864209963+849108105+832737451+815524593
2927+797821397+780814415+767133932+760099192+761792451+771520555+786108386
2917+801813368+816134172+828149876+837798397+845406451+851780842+858028806
2907+864843163+872127896+879443504+886559756+893414571+899833278+905608936
2897+910820064+915823918+920860044+925746853+930061080+933640433+936860599
2887+940308401+944172614+948044878+951243685+953115539+953022848+950247772
2877+944069210+934178746+921453586+908383147+898225923+893178684+893032894
2867+895375988+897030321+895491503+889466517+878854088+864894799+850211016
2858+837959692+830522780+828980103+833469065+843387143+857199377+872717712
2848+888023783+902073633+914453048+924922881+933358966+939901039+944953668
2838+949056096+952759547+956516696+960557441+964821230+969015418+972815153
2828+976083162+978898296+981377200+983581890+985597605+987512843+989273374
2818+990727087+991863534+992858583+993848175+994790988+995607442+996364607
2808+997225044+998237393+999293991+1000292367+1001180218+1001877231+1002390392
2798+1002960179+1003810834+1004822651+1005705578+1006364996+1006870638
2790+1007262828+1007625142+1008136240+1008839175+1009527405+1009979083
2781+1010152354+1010100785+1009918398+1009787512+1009896905+1010286101
2773+1010883968+1011634480+1012471295+1013276569+1013988288+1014683038
2764+1015442466+1016169356+1016631547+1016717517+1016607858+1016608657
2756+1016824914+1017050620+1016998718+1016608391+1016121846+1015836054
2747+1015779228+1015666841+1015162264+1014127690+1012634852+1010835460
2739+1008938654+1007319920+1006477583+1006688250+1007737729+1009112058
2730+1010434420+1011656971+1012908799+1014229896+1015428093+1016220725
2722+1016552696+1016693563+1016975096+1017512944+1018201905+1018869640
2713+1019408420+1019830620+1020222544+1020622852+1020980841+1021254922
2705+1021482291+1021714917+1021950005+1022168524+1022376996+1022569099
2696+1022717883+1022819025+1022876982+1022865404+1022773179+1022635240
2688+1022442805+1022130929+1021753843+1021534658+1021604992+1021812865
2679+1021923854+1021920328+1022007097+1022359096+1022905262+1023370248
2671+1023560221+1023572464+1023637608+1023803760+1023889264+1023735223
2662+1023438984+1023281083+1023414164+1023693502+1023876688+1023904236
2654+1023917611+1024079437+1024388851+1024622675+1024563055+1024328100
2645+1024286379+1024588140+1024989247+1025197187+1025227928+1025356418
2637+1025777687+1026380412+1026879267+1027118414+1027181561+1027257883
2628+1027458969+1027741966+1028030153+1028365518+1028778602+1029068919
2620+1028994327+1028666947+1028494141+1028716253+1029177380+1029563781
2611+1029735722+1029740979+1029607365+1029324568+1028987939+1028743668
2603+1028646851+1028715322+1028949944+1029220365+1029392373+1029589665
2594+1030046267+1030738955+1031387393+1031742454+1031792359+1031784907
2586+1031993645+1032342783+1032467680+1032278505+1032177031+1032503678
2577+1033080053+1033513898+1033634004+1033410427+1032821743+1032044149
2569+1031427051+1031095613+1030867046+1030608269+1030430073+1030532745
2560+1030975973+1031528526+1031809394+1031695875+1031472232+1031532452
2552+1032113551+1033191043+1034421046+1035375238+1035947355+1036267282
2543+1036276398+1035824188+1035124048+1034716486+1034906992+1035416361
2535+1035673607+1035445505+1035023505+1034675497+1034232004+1033488546
2526+1032700971+1032318696+1032471606+1033012514+1033844738+1034942858
2518+1036168136+1037248822+1037932660+1038138737+1038032870+1037948430
2509+1038146588+1038600528+1039018270+1039097387+1038796557+1038372960
2501+1038129421+1038168880+1038418141+1038762422+1039061588+1039159270
2492+1039026388+1038823772+1038739532+1038802878+1038875275+1038789171
2484+1038510033+1038181522+1037999267+1038047842+1038252455+1038424129
2475+1038365108+1038045181+1037711014+1037706888+1038154507+1038839942
2467+1039371069+1039401877+1038858174+1038101407+1037731774+1038028945
2458+1038628076+1038880199+1038506573+1037815017+1037289678+1037053260
2450+1036814379+1036342739+1035876289+1035896717+1036490925+1037136169
2441+1037314631+1037198651+1037412912+1038165952+1038951663+1039122872
2433+1038529596+1037580195+1036829683+1036524594+1036493853+1036450069
2424+1036331693+1036292301+1036440354+1036708380+1037002090+1037351894
2416+1037800976+1038244536+1038508237+1038476630+1038109725+1037527894
2407+1037053592+1036924171+1037052661+1037230657+1037364470+1037426353
2399+1037452038+1037607277+1038003992+1038511164+1038922186+1039192607
2390+1039411459+1039621528+1039700378+1039443398+1038818116+1038061150
2382+1037456695+1037138099+1037141359+1037474595+1038067871+1038767013
2373+1039468684+1040253996+1041271202+1042347497+1042907769+1042628564
2365+1041970810+1041680960+1042003415+1042652586+1043288980+1043823966
2356+1044326747+1044655724+1044435408+1043593869+1042539799+1041619476
2348+1040877415+1040361925+1040300974+1040791245+1041421584+1041622803
2339+1041335214+1041022274+1041116961+1041594590+1042070089+1042182410
2331+1041865077+1041323038+1040764163+1040236962+1039884230+1040103015
2322+1041080963+1042265718+1042760315+1042265851+1041305271+1040663687
2314+1040784391+1041472421+1042129244+1042403324+1042483839+1042649990
2305+1042788994+1042573935+1042030497+1041651149+1041841855+1042393609
2297+1042671283+1042243893+1041263084+1040342429+1040079061+1040557687
2288+1041323304+1041903471+1042293200+1042844156+1043697273+1044467747
2280+1044716343+1044622653+1044706561+1044941982+1044795592+1044141964
2271+1043471168+1043208732+1043392118+1043958578+1044910907+1046162736
2263+1047408443+1048187833+1048153897+1047373509+1046294819+1045375294
2254+1044779889+1044390493+1043956183+1043231622+1042188199+1041202266
2246+1040869963+1041463106+1042688185+1044097781+1045540581+1046977858
2237+1048106187+1048575565+1048446277+1048074847+1047753323+1047743674
2229+1048237539+1048991111+1049614530+1050383606+1051877510+1053605503
2220+1054159853+1053159614+1052054574+1052335908+1053611292+1054197714
2212+1053381461+1052215736+1052034479+1053055744+1054647595+1056122934
2203+1057054769+1057318070+1056906383+1055721960+1053947987+1052375832
2195+1051682346+1051660055+1051784752+1052080325+1052743536+1053191221
2186+1052268170+1049803306+1047520098+1047454156+1049421096+1051262941
2178+1051778497+1051867329+1052547906+1053388847+1053442079+1052833166
2169+1052724505+1053828015+1055464315+1056478460+1056721799+1056953094
2161+1057877277+1059991073+1063166790+1065834336+1066342707+1064903101
2152+1062883327+1061222606+1060176388+1059687115+1059579519+1059735956
2144+1060144049+1060638446+1060825026+1060460783+1059836499+1059615584
2135+1060200476+1061298596+1062134878+1061970190+1060528987+1058213972
2127+1055878197+1054188399+1053220100+1052633211+1052144604+1051857947
2118+1052074204+1052684514+1053083425+1052886265+1052315946+1051761596
2110+1051448722+1051546803+1052097959+1052815333+1053216706+1053010031
2101+1052412297+1052043129+1052268103+1052815599+1053287173+1053623535
2093+1053800999+1053646226+1053229083+1052930714+1052968576+1053245119
2084+1053698194+1054351822+1054893064+1054659107+1053426176+1051960020
2076+1051392162+1052088177+1053316916+1054107286+1054385226+1054876695
2067+1055811524+1056484582+1056408326+1055962504+1055587748+1055339085
2059+1055352793+1055787636+1056394885+1056782085+1056805707+1056507006
2050+1056141765+1056163124+1056760193+1057740336+1058985444+1060259897
2042+1060886243+1060622343+1060344536+1060768333+1061288149+1061107558
2033+1060797744+1061601422+1063598372+1065556197+1066382897+1065969547
2025+1064830305+1063664514+1063151485+1063297409+1063234595+1062597136
2016+1062390860+1063206049+1063787081+1063142636+1062632668+1064174082
2008+1067420931+1070269002+1071494414+1071376105+1070331417+1068687864
1999+1067351728+1067063807+1067197288+1066686455+1065787026+1065652215
1991+1066654982+1068064578+1068823806+1068191271+1066544391+1065390843
1982+1065457583+1065541890+1064400852+1062943413+1063350908+1066336785
1974+1070293023+1073071293+1073741823+1072761946+1071232177+1070147432
1965+1069791706+1069885329+1070475012+1071829180+1073334927+1073679474
1957+1072368358+1070134989+1068050738+1066845887+1066647330+1066957342
1948+1067077248+1066587776+1065528250+1064502593+1064477174+1065823291
1940+1067654688+1068841839+1069186453+1069116385+1068884491+1068466683
1931+1067994710+1067728415+1067584887+1067252982+1066793852+1066514248
1923+1066238637+1065414399+1064027759+1062525405+1060757953+1057970168
1914+1054097903+1050122102+1047156320+1045890917+1046589594+1048999562
1906+1052215802+1055128884+1057264438+1058946718+1060502570+1061667231
1897+1062140734+1062256581+1062521213+1062849325+1062834752+1062442096
1889+1062038461+1062041987+1062614835+1063511337+1064174747+1064129699
1880+1063435215+1062636062+1062184850+1061999135+1061686527+1061088128
1872+1060442551+1060111578+1060161616+1060127481+1059704748+1059506923
1863+1060155761+1061317759+1062225373+1062659684+1062929439+1063221819
1855+1063557383+1064032683+1064684315+1065282182+1065513078+1065390444
1846+1065365691+1065842854+1066537937+1066663432+1066090052+1065479143
1838+1065347791+1065544885+1065520198+1065116696+1064722376+1064691235
1829+1065012094+1065361299+1065377801+1065005373+1064550968+1064381755
1821+1064618772+1065153826+1065696664+1065895088+1065669449+1065204529
1813+1064630284+1064000876+1063406403+1062911340+1062540310+1062291049
1804+1062035666+1061586251+1060902080+1060092880+1059204762+1058082289
1796+1056508204+1054462879+1052154984+1049766509+1047409507+1045343089
1787+1043817445+1042908900+1042580722+1042582319+1042388752+1041523591
1779+1039858944+1037528093+1034672570+1031244930+1027069972+1022560049
1770+1018868110+1016359396+1014509766+1013037023+1011930719+1011294990
1762+1011477511+1012474156+1013557104+1014252720+1014584624+1014513027
1753+1014037927+1013283423+1012073848+1010061926+1007325243+1004031550
1745+1000199476+996009081+991513930+986445199+980899638+975461806+970249014
1735+964642369+957793144+949497859+939698889+927098958+910079534+887657677
1725+858787568+823520379+785638609+749248414+713029694+672021780+627300767
1715+589113775+562416285+545483662+537250293+536853744+542983199+555114185
1705+571197782+586249601+598935303+613743317+632361979+648579589+660405919
1695+671310461+680760758+687409496+693367942+700619138+708138626+714412741
1685+721132078+731074310+741503420+748523987+753723670+759478700+767351519
1675+778401786+791007439+801630647+810072854+818879770+828058648+834911932
1665+839190493+842456573+845399797+847871847+850164038+852890274+856188159
1655+860554821+868940601+883964739+896874084+901794496+903688774+906323782
1645+908963381+908749586+905561892+900667697+895195197+890905657+891064290
1635+899652221+914391764+926737576+934661964+940902010+947112910+952866411
1626+957252302+960584723+963687777+966361446+967860073+968114458+967206911
1616+964408945+958719190+949890182+937761426+922059039+902957958+880994766
1606+856365291+829096882+800773870+776018501+760745966+758050074+766627092
1596+782639092+801835592+820755417+837570030+852146549+865011311+876393549
1586+886252006+894672521+901868089+907905319+912692983+916504828+920557551
1576+926343856+932812734+937151448+939471719+941766106+945126141+948642413
1566+951264113+953189865+954634462+955585194+956882935+960580930+966016167
1556+968363254+968105409+967814826+968528807+970423550+973169016+975903702
1546+977945900+979390031+980584967+981719817+983375614+985914870+987772418
1536+988217308+988403023+989623378+992036207+994323940+995789896+997052038
1526+998711961+1000517873+1001978173+1003280040+1004726500+1005910058
1518+1006549779+1007071790+1007760619+1008418572+1008925545+1009383744
1509+1009847399+1010422443+1011109142+1010679556+1008208703+1004366582
1501+999648586+994199442+987747798+978452341+963470456+942318526+916513146
1491+888659113+866631975+862764435+878239385+901070134+922057309+938716417
1481+951231442+959920714+965026575+966920121+965327471+957567771+938048948
1471+906011706+872137145+846142989+830464424+824982676+827252575+831588894
1461+834275604+835841504+838599214+845332391+855162702+862979560+867570996
1451+870132144+871034568+870414875+869138426+868375139+868627461+869597690
1442+870378144+869823262+867246144+862661962+856765133+850135825+841550689
1432+828869645+812478830+798271544+793985198+802250540+820363027+842347446
1422+862344563+879279681+895357956+910086254+920669272+927437317+932548036
1412+937350272+942362510+947622944+952952714+958381363+963905033+968891519
1402+972771369+975885204+978739463+981098195+982360737+982213349+980463198
1392+977225465+973204549+968874951+963007200+951505855+929294998+895250426
1382+855502791+822934090+810081371+819239688+842498560+870105794+894789499
1372+912368597+922953545+929204104+933079629+935575234+938067579+942221310
1362+948505472+955436609+961330510+965992145+969922100+973290785+975927524
1352+977748075+979016139+980243680+981811111+983653820+985400112+986789613
1342+987868902+988843056+989825329+990750177+991616269+992704208+994309301
1332+996385767+998578014+1000526656+1002072727+1003203385+1003851158+1003758267
1323+1002559538+999978095+996005288+991182425+986772446+984259207+984445055
1313+986951440+990465849+993565643+995299159+995094879+992741937+988820233
1303+984817749+982395205+982372847+984408125+987531208+990803276+993584408
1293+995615626+997081982+998439477+999995462+1001629500+1002891776+1003268329
1283+1002279802+999347823+993220630+980835692+957609825+922210020+882944871
1273+856409474+855611519+879000876+912828659+942850452+960879897+962447527
1263+944519091+909141378+867841550+837535096+828688854+838977630+859088731
1253+881371385+902246905+920110331+933900607+943154742+947829220+947401963
1243+940280587+925134680+904127343+884428195+874582047+878305859+892240195
1233+909716887+925765152+938725999+948927340+957127139+963862513+969387846
1223+973836818+977392415+980317674+982862253+985128959+987033684+988454991
1214+989395476+989940843+990150712+990046310+989612665+988814710+987702351
1204+986507547+985586160+985221783+985433382+985941686+986309123+986078959
1194+984890411+982644599+979517390+975662892+970980163+965240769+958270241
1184+949799488+939050251+924391554+903490815+874307634+836834823+794771708
1174+755584810+727681138+715925342+719165204+731827616+747796365+763416374
1164+778040004+792659975+808218367+824769213+841553484+857460150+871504610
1154+883125662+892197876+898943430+903947484+908068144+912029240+916059073
1144+920023961+923846720+927654373+931611343+935803003+940269142+944981282
1134+949776997+954405562+958607069+962062257+964290835+964685022+962739308
1124+958135828+950097856+936603220+915736351+889500452+865545233+852702363
1114+854004363+864996872+878706035+890946180+901107730+910005873+918270217
1104+926061324+933237596+939532937+944701612+948588914+951169825+952462509
1095+952199275+949517821+942998438+931142764+913500320+891825248+869071686
1085+845840362+818748818+784734722+747256987+716098480+699646314+697858169
1075+703309508+708473392+711423337+715217283+723250066+735950206+751276439
1065+767120490+782678417+798086295+813573223+829099676+844312390+858530189
1055+870925508+880884242+888167843+892820296+895135244+895749414+895565829
1045+895333336+895105035+894111717+891482697+887506563+884195236+884202955
1035+888888212+897357701+907087668+914991495+917910365+912818279+897673902
1025+873237528+844585540+820008366+806898534+807761233+819781329+837709898
1015+856990107+875005245+890613876+903090108+911456192+914527507+910960598
1005+898795311+875802335+842171646+803608966+770212766+750088423+743456986
995+743807521+745139931+747433652+754884138+770021395+790738149+812481691
986+831858650+847924747+861247575+872620363+882412480+890573220+896929911
976+901305954+903510179+903717053+903054109+903384483+906071726+910986682
966+916813044+922115932+925880933+927311755+925931171+922461610+919171243
956+918462253+920963714+925413152+930214789+934595956+938484589+941976574
946+945122880+947945533+950452650+952643167+954542835+956237491+957827147
936+959387590+960975782+962548070+963916943+964977867+965920015+967035968
926+968390202+969742840+970720987+971084698+970836169+970038081+968652572
916+966570184+963444438+958077805+947434568+926324492+890523248+843461469
906+799190337+774696605+777521919+801792141+835244103+867852928+894824100
896+915230908+929978903+940439686+947727014+952533575+955372397+956972699
886+958397267+960569152+963636275+966989789+969955703+972288085+974011287
877+975140814+975750126+976113970+976588338+977359078+978331104+979226940
867+979809902+980113926+980536393+981614683+983572374+986101783+988637446
857+990691488+991899932+992002538+990893372+988377072+983331364+973192638
847+955910245+934173756+916649354+912057586+921258889+936408722+947189831
837+945832603+927063093+887831880+831473246+772330820+732064701+726535575
827+754661959+800696417+846826894+883082610+907993685+924152207+934505794
817+941103162+945333415+948313170+950812036+953146747+955443396+957878982
807+960595968+963590229+966773798+970063832+973426462+976816506+980019971
797+982715531+984799849+986468288+987924530+989165379+989988952+990150313
787+989560963+988126747+985310815+979954162+969780236+951002808+921821756
777+889423065+869926533+875274003+900968327+931085074+953588310+966821175
767+974083750+977872639+979436144+979987166+980435450+979706365+974044757
758+960883490+944870758+936664637+942789035+958865712+974988236+985113322
748+988473689+984229929+969908726+947088423+924858070+912725588+911027005
738+912999668+915559752+922333253+935834876+952337879+965930396+973793966
728+976247517+973897037+965141224+945103517+908948543+860604194+817692153
718+801037105+816714339+852402198+890351706+920122308+940602976+954828361
708+965431607+973547632+979652667+984348704+988218839+991434614+993985115
698+996027978+997494267+997127961+992287398+981140182+966298898+955090065
688+953870642+962096193+973561606+982688316+987844282+989767904+989110084
678+985722901+979230067+969603238+957467561+944323661+932190446+923697070
668+923087624+931725061+943267462+953647065+963590096+973192705+980956530
658+986204921+989922478+993162474+996044414+998365217+1000291368+1002040255
649+1003530898+1004773145+1005990705+1007202010+1008296470+1009418212
640+1010775241+1012244058+1013384897+1013829122+1013793523+1013986025
632+1014638190+1015118014+1014797421+1013595099+1011435191+1007730808
623+1001536277+992065818+979383643+965025843+952210254+944890720+945361162
613+952564782+963211014+974183694+983743051+991395887+997441700+1002340154
603+1006147475+1008655923+1009948274+1010571560+1011175549+1012062336
595+1013185741+1014336295+1015026654+1014729483+1013565688+1011737551
586+1007763480+997334836+973942351+933992699+886367654+853547362+854121940
576+884679518+924278235+955394023+974958360+987304704+995700532+1001264325
566+1004643058+1006871836+1009116783+1011749928+1014215124+1016033613
558+1017287704+1018073548+1018259330+1018026371+1018057911+1018780675
549+1019502441+1017864411+1009765221+992232635+969377066+953062440+953265655
540+968414357+987752323+1001903514+1008538412+1010131660+1010096194+1010720412
530+1012633255+1015440470+1018678136+1022060196+1025197386+1027350840
521+1027651604+1025969324+1023357405+1020598232+1016618239+1010159474
513+1002699939+998109036+999158781+1005093871+1012730936+1019145385+1023300912
503+1025911101+1028041132+1029680161+1030211022+1029958700+1029995896
494+1030604676+1031048968+1030726578+1029177579+1024731868+1014104334+993507819
484+960630769+917479914+872276548+837096860+821821198+828243964+849499231
474+876238243+901348141+920074000+931659120+939807017+947881388+955769977
464+962222420+967704235+973410559+979336333+984539742+988337880+991110295
455+994175821+998499164+1003427028+1006196049+1002319992+987584773+963178609
445+939635875+931031309+942019892+962893149+981289632+993107844+1000369820
435+1005437686+1009020565+1011147270+1011784396+1010561246+1006475653+997292184
425+979762858+953109484+921863077+894412147+882708053+893830782+916509819
415+937665807+954512692+968224516+979675756+988728407+994951950+998393830
405+999274029+998045357+996474200+997119111+1000303812+1001338119+995544428
395+987415760+984459427+988188097+995182447+1002188707+1009175205+1017360566
385+1024666459+1025377977+1017725341+1006801835+998165729+994520501+996702900
375+1003440469+1009700411
##END=
