##TITLE=X7978
##JCAMP-DX=5.0
##DATA TYPE=LINK
##BLOCKS=1


$$ === CHEMSPECTRA SPECTRUM ORIG ===
##TITLE=X7978
##JCAMP-DX=5.00
##DATA TYPE=INFRARED SPECTRUM
##DATA CLASS=XYDATA
##ORIGIN=ComPlat
##OWNER=
##XUNITS=1/CM
##YUNITS=TRANSMITTANCE
##XFACTOR=1
##YFACTOR=8.4445756e-010
##FIRSTX=3997.453
##LASTX=373.96442
##MAXX=3997.453
##MAXY=0.9067293990760743
##MINX=373.96442
##MINY=0.44837632575080805
##NPOINTS=2559
##XYDATA= (X++(Y..Y))
2559A041677006A042197064A042712182A042783612A042543064A042360253A042407897
2552A042738580A043398181A044153493A044501187A044275674A043871584A043605696
2545A043251933A042469304A041397002A040631666A040683616A041529064A042654374
2538A043488316A043751239A043440954A042740627A042046581A041819585A042179913
2531A042724393A042838455A042275483A041472315A041133091A041560473A042563110
2524A043699008A044382254A044314000A044088204A044682093A045994661A046930313
2517A046969770A046351106A045220432A043773544A042895416A043425568A044807590
2510A045743596A045739219A045238007A044805260A044483259A043966448A043164056
2503A042415943A042283740A043003762A044184903A045291227A046156932A046759008
2496A046789570A045966851A044666988A043755757A043641765A044169093A045365833
2489A047046635A048325535A048459713A047537542A046377292A045955557A046255678
2482A046361129A045919419A045351152A044809425A043871725A042817773A042896334
2475A044335527A045711833A045900855A044757052A042755238A040981619A041009288
2468A043193066A045642379A046726398A046569985A046103924A045751571A045335624
2461A044757617A044024891A043027619A041910355A041923695A043930945A046520153
2454A048536014A049736002A050014947A049220249A047422491A045193398A043413004
2447A042849960A043673598A045120768A046281935A046844908A046919444A046790276
2440A046792394A047133664A047642076A047759880A047144322A046262030A046006447
2433A046322520A046686589A047473029A048999888A050359394A050585684A049588835
2426A047953278A046962076A047698543A049115362A049213191A047768702A046659697
2419A047358754A049400731A051804164A053496330A053752406A053048902A052463272
2412A052499693A052835881A052993847A052807154A052252792A051283118A050107905
2405A049442798A049838842A050800681A051446448A051463529A051082309A050703911
2398A050526182A050373793A050214274A050459058A051182678A051673725A051286436
2391A050226415A049305584A048947796A048735341A047848179A045742537A043310093
2384A042679430A043876454A045286004A046418514A047514179A048094445A047466465
2377A045587183A042765402A039708578A037678036A037776359A039910446A042952942
2370A045575254A046906668A046949300A046559469A046616853A047135217A047696849
2363A048283679A049186722A050366875A051224110A051121412A050199664A049645090
2356A050371393A051783413A052985306A053540585A053293332A052576346A052139647
2349A052222300A052396288A052540278A052948109A053806402A055131887A056864073
2342A058460598A058814079A057762458A056444102A055510284A054771559A053946016
2335A053113133A052505481A052305589A053047914A054823791A055912680A055078879
2328A053437534A053765252A056727988A059937766A061471190A061074370A059667079
2321A058271576A057188120A056498662A056585198A057163275A057002769A055507955
2314A053594370A053047843A054140120A055549458A056769703A057726813A058234308
2307A058461374A058901038A059490409A059429637A058218144A056259950A054067843
2300A051670903A049712780A049912672A052063205A054194893A055425232A055989193
2293A056481158A057319971A058278846A058733473A058574590A058407025A058859606
2286A059801893A060823235A062062325A063467146A064100843A063336496A061696139
2279A060173091A059244779A058681877A058070696A057324488A056865061A056996629
2272A057284538A057274374A057481183A058883181A061105144A062757148A063176342
2265A062766253A062502342A062923019A063568997A063886623A064075857A064415998
2258A064556176A064095408A063288217A062789616A062819049A063134204A063655956
2251A064370683A065130795A065837052A066436305A066609658A065975255A064837451
2244A064131547A064192178A064426444A064326427A064023554A063977393A064635088
2237A066148395A067914603A068797742A068292577A067095341A066110422A065482935
2230A064938244A064391929A064001179A063939984A064261773A065038402A066447951
2223A068237239A069402570A069237052A068460705A068422097A069262039A069772780
2216A069054947A067601142A066623351A066634574A067075296A067291281A067334760
2209A067566274A067837031A067682595A067056450A066382873A066055225A066083106
2202A066149313A065972784A065687698A065717202A066106045A066280880A065743388
2195A064737858A063948171A063657015A063608877A063620029A063822320A064254574
2188A064620972A064623301A064190202A063318074A062101287A060986141A060520503
2181A060723924A061078887A061245676A061438157A061979319A062739855A063203023
2174A063083666A062704987A062557820A062580054A062165659A060956637A059289952
2167A057752647A056589363A055513461A053990060A051766473A049109645A046398044
2160A043562288A040075541A035396923A029236902A021433983A011676188I99408660
2153I84357677I67675444I52514776I42831093I41290188I48022287I60691010I75757520
2145I90340888A003148872A013966547A022845721A029848084A035070616A038656180
2138A040885626A042279647A043425779A044613274A045715503A046549375A047268549
2131A048248387A049614881A051058734A052075557A052282083A051678667A050818397
2124A050488279A050899709A051434731A051511385A051318904A051262931A051182890
2117A050624434A049514299A048271821A047545447A047707507A048304571A048473336
2110A048162416A048136442A048541237A048438115A047055669A044663388A041983268
2103A039463583A037180776A034779531A031461901A026540265A020017376A012348283
2096A003854988I94638849I84844703I74832737I65276528I57068037I50920015
2089I47091645I45473381I45725010I47366567I49969399I53243266I56845276I60249793
2081I63009672I65216884I67577757I70774265I74768012I78963840I82847547I86137367
2073I88708507I90867651I93336304I96513896I99975092A002849811A004593290
2066A005412621A005961195A006611550A007313361A008190288A009664563A011730255
2059A013699954A015026921A015903284A016768142A017710076A018692314A019924559
2052A021546635A023195956A024354370A025008042A025606165A026447731A027420440
2045A028297650A028938829A029203234A029104065A029172954A030106772A031767810
2038A033081719A033263329A032641561A032018522A031733718A031591422A031332734
2031A031012568A031029014A031706120A032754847A033395250A033287610A032980573
2024A032985302A032836159A031794914A030168179A029001930A028656566A028524716
2017A028020609A027166904A026306140A025710064A025403309A025128810A024633739
2010A024075495A023861557A023980348A023872709A023168569A022154145A021263525
2003A020515976A019708432A018802354A017910886A017121482A016434141A015816607
1996A015342499A015205638A015525945A016192887A016861594A017074120A016654855
1989A015999842A015576412A015296973A014954220A014918293A015641208A016832937
1982A017821104A018347303A018486070A018215665A017581544A016912908A016474797
1975A016233473A016190982A016482773A016936271A017123176A017032547A017019418
1968A017002690A016435693A015053390A013076844A010961108A009344679A008727286
1961A008874170A009012302A008667714A007918119A007056437A006303877A005596279
1954A004688366A003762383A003485555A004051280A004702341A004582208A003608652
1947A002327353A001306364A000762096A000455482I99922154I98926858I97675839
1940I96583068I95842225I95202174I94231724I92831068I91286493I89749611I87981428
1932I85830400I83661797I81835523I79880223I76842881I72574776I68001398I63948502
1924I60476366I57556756I55545413I54645405I54530566I54787560I55380813I56552990
1916I58412015I60644848I62640028I63941797I64541261I64744612I64845193I64892343
1908I64739459I64352380I63938973I63622266I63193825I62409785I61346023I60324824
1900I59664516I59505280I59711384I60010869I60245700I60292214I59880854I58919650
1892I57828220I57088365I56591035I55819629I54587879I53247149I52122755I51077205
1884I49869947I48692546I47917611I47491429I47091363I46760750I46848697I47390707
1876I47960032I48121597I47811807I47315112I46930715I46661722I46328710I45886292
1868I45362565I44614875I43520551I42314564I41390275I40822573I40349806I39730437
1860I38923881I38014344I37129581I36380269I35767676I35134472I34276179I33200983
1852I32218745I31577354I31107975I30506040I29795124I29176320I28674331I28224998
1844I27814485I27342070I26645130I25718089I24716723I23903249I23610258I23896262
1836I24260895I24110059I23424553I22651242I22091445I21665404I21190308I20733916
1828I20592043I20895552I21409469I21795207I21931786I21970818I22156664I22523910
1820I22814501I22850711I22829394I23004865I23270046I23297997I22965903I22465961
1812I22081211I22028485I22497017I23543486I24776013I25488057I25399617I24991715
1804I24943013I25530337I26573700I27664283I28508601I29172438I29837615I30403200
1796I30613044I30435598I30065529I29680426I29313110I28864765I28260077I27627862
1788I27195328I26999459I26861610I26601510I26142012I25505844I24813563I24188759
1780I23605670I22959621I22295078I21753210I21294065I20760173I20197412I19786828
1772I19536752I19365022I19312932I19353588I19243478I18843905I18346010I18046808
1764I18133766I18621991I19258512I19619334I19504495I19140073I18932558I19130827
1756I19675801I20257478I20546446I20430407I20052434I19614182I19115440I18321447
1748I17076922I15577449I14217731I13234223I12536859I11834837I10999342I10315743
1740I10157142I10449145I10787310I10999907I11202411I11423619I11573538I11650474
1732I11666426I11494132I11019247I10335224I09621838I08934426I08282236I07825703
1724I07755261I08004632I08340467I08709971I09256145I10027268I10860928I11496955
1716I11716257I11490320I11050656I10739596I10823236I11431312I12504321I13770727
1708I14924200I15869875I16752944I17748028I18841012I19838848I20607430I21220376
1700I21817441I22424811I22997100I23520264I24006442I24469893I24956000I25535207
1692I26241888I27090441I28174600I29637370I31420447I33125600I34302648I34894911
1684I35258699I35720879I36242772I36584819I36706152I36833767I37115324I37383681
1676I37411915I37293405I37329685I37530211I37507908I37041705I36495319I36397349
1668I36761066I37086737I36948676I36366011I35658977I35156918I35020904I35169905
1660I35332953I35274863I35011022I34744429I34588016I34456378I34229735I33945425
1652I33780260I33877806I34218230I34698126I35292509I35993895I36590113I36701493
1644I36132874I35057889I33816752I32672454I31766729I31102046I30523968I29905658
1636I29349673I28992097I28681460I28163237I27518529I27061572I26822365I26490623
1628I25868643I25068581I24241273I23411001I22612562I21939691I21397964I20880941
1620I20270889I19437511I18265404I16816680I15305915I13859662I12510885I11412043
1612I10813285I10821966I11286969I11851919I12159239I12171167I12207235I12549706
1604I13153193I13773974I14184698I14301584I14260505I14275539I14348664I14316830
1596I14245753I14500559I15264200I16207970I16863478I17161057I17288248I17171927
1588I16547547I15504466I14491807I13749340I13149241I12613584I12259043I12115053
1580I12159309I12633912I13792820I15302598I16480634I17146799I17640883I18084287
1572I18296390I18344316I18533339I18919783I19318720I19685470I20070644I20292629
1564I20011848I19126592I17928016I16913239I16518819I16835880I17489905I18034879
1556I18431910I18834659I19136403I19227808I19359376I19648344I19643474
1549I19043021I18387302I18326318I18575900I18298508I17280908I16036241
1542I14939870I13961020I13084163I12313251I11401173I10111404I08550453
1535I06944188I05492006I04599409I04658628I05430386I06119915I06137561
1528I05491229I04537154I03635664I03025118I02848165I03133604I03720717
1521I04382294I05096033I05962020I06798220I07171324I07011312I06918848
1514I07578238I08967106I10410959I11430818I12276336I13512604I15289116
1507I17159293I18532845I19173530I19208185I18825624I18242324I17869008
1500I18099180I18927688I20082996I21385824I22656324I23541933I23854688
1493I23938682I24447800I25841186I28030611I30254551I31494842I31464773
1486I31037250I31221825I31933588I32335842I32225662I32343607I33218417
1479I34345774I34859056I34688103I34654435I35438545I36813156I38086903
1472I39011475I39840829I40648444I41193136I41522972I42082345I43005010
1465I43856951I44306567I44521705I44715386I44846742I44940406I45228527
1458I45784865I46352708I46720588I47067011I47737483I48750495I49743250
1451I50430096I50903852I51396100I51923640I52300132I52457250I52632791
1444I53091300I53728668I54191060I54341261I54355588I54486169I54939526
1437I55777350I56755565I57508901I57944894I58200406I58268236I58016324
1430I57523300I57081377I56863557I56857134I57126692I57850595I58940966
1423I59760580I59393617I57333219I53892280I49771271I45259372I40168195
1416I34490046I28626829I22885508I17164869I11152014I04613172H97719791
1409H91042394H84896207H79260903H74792906H72691711H72924494H74073027
1402H75653740H78964453H84942933H92894854I01573218I09683951I15460210
1395I17277590I14782186I09536008I04570117I02169789I02266205I03601007
1388I05277362I07157914I09360468I11588219I13425504I15068402I16913874
1381I18649237I19683847I20206870I21052035I22785209I25424321I28914597
1374I33270578I38071021I42362913I45385787I47244034I48776399I50777155
1367I53418454I56478384I59808153I63186061I66061062I68035278I69429229
1360I70964840I73077753I75598990I77794132I78953040I79337508I80042424
1353I81598928I83456329I85048336I86380668I87363964I87693518I87628228
1346I87899904I88674062I89352297I89426339I88967194I88370906I88001826
1339I87983757I88163180I88330815I88457018I88639052I88945596I89438127
1332I90193580I91046721I91426813I90998231I90490242I90995054I92361266
1325I93515233I94423429I96099642I98469196A000013207A000029863I99663325
1318A000021253A000535241I99991185I98385202I96918762I96642075I97752846
1311I99717463A001571546A002645754A003180917A003684034A004000601A003679024
1304A002721137A001475058A000297869I99471338I99057861I99027157I99557591
1297A000795270A002477130A004095324A005091750A004970699A003786381A002232136
1290A000934672A000115341I99804915I99835478I99876134I99741955I99459974
1283I99208133I99148702I98965326I98152771I97267020I97717201I99832090
1276A002723255A005978912A009387099A011373385A010139659A006514286A003712833
1269A003864304A005863155A007003217A006156782A004747373A005216329A009037429
1262A015069553A019551384A019953851A018064828A016932883A017646057A019671941
1255A021727963A022441349A021553905A020080548A018840539A017797670A016707016
1248A015426564A014072422A013481216A014750375A017874042A021568586A024532875
1241A026140199A026156292A024719144A022618160A021056927A020963122A022432597
1234A024545439A025831538A025464787A024063002A022875578A022357849A022052717
1227A021620675A021309827A021431866A021861930A022147087A021997380A021664297
1220A021706365A022288818A022939809A023174922A023055495A022831393A022410928
1213A021647992A020869387A020663213A021254984A022277384A023006439A022959713
1206A022543483A022697637A023537297A024025663A023531015A022932892A023377425
1199A024605223A025382487A025185065A024665642A024571908A024774482A024530122
1192A023447726A021941125A020874540A021056998A022812406A025228686A026030371
1185A023680440A019914889A018737417A022086809A027825659A032685605A035586369
1178A037441228A038738127A038312298A035222229A031134958A028962827A029469969
1171A031356168A033692618A035790214A036438310A035832845A036238064A038568163
1164A040278609A038636064A034566369A031603633A032094893A035608603A039771115
1157A041684911A040236541A037628557A036794685A037629686A037967639A037317496
1150A037227361A038853955A041640232A043789848A043689197A041381756A038654486
1143A037519153A038603525A040845676A042238003A041064413A037486402A033768989
1136A032247141A033590413A037247478A041949670A045304144A045423147A043329010
1129A041337218A039860403A037999755A036144401A035767486A037057467A038557716
1122A039063799A039010297A039790737A041658372A042906004A041753519A038677355
1115A036201573A036361091A038846049A041683147A043285529A043422815A042605177
1108A041471115A040806784A041266141A042720864A044075499A044120884A042792928
1101A041167606A040244234A040252564A040845111A041400602A041440905A041020722
1094A040398107A039504168A038390998A037805721A038361424A039363708A039536354
1087A038503226A036942487A035528632A034160868A032580930A031098821A030112701
1080A029496014A028913772A028341481A028026045A028223960A028976943A029906385
1073A030435055A030324874A029865447A029726469A030600008A032597164A034821951
1066A035925522A035538443A034608366A034124305A034275848A034834233A035546631
1059A036106921A036224019A035753016A034863171A034217970A034461764A035565265
1052A036956180A037937430A038098854A037692082A037506024A038067585A039115254
1045A040014627A040349757A040054719A039393847A038832144A038679755A038933220
1038A039406975A039854474A040074129A040009051A039714789A039219647A038470616
1031A037409890A036151036A035258792A035499128A036847341A038450077A039504592
1024A039829346A039758127A039629736A039683097A040105256A040793090A041388179
1017A041720980A041868499A041896026A041947411A042304210A042953930A043505186
1010A043729711A043843139A044150600A044679057A045261370A045740490A046023741
1003A046153331A046411596A047090820A048087175A049088470A049873286A050339278
996A050535782A050646527A050789741A050934507A051066004A051187760A051179855
989A051040170A051263637A052356056A054157060A056240258A058131044A059486880
982A060551700A061877750A063480980A064966689A066355558A067787270A069009845
975A069714690A069817247A069506892A069462566A070219784A071400503A072392340
968A073028296A073442903A073714718A073741822A073387918A072535906A070855105
961A068071014A064916081A062202504A059784600A057504688A055325568A052959261
954A050204816A047157379A043482670A038004625A029438700A018022267A005770832
947I93424180I79984828I64631537I47323158I27854011I05340322H80949963
940H58815518H39841724H19805652G96860134G76168695G59329413G43099407
933G28198697G16190210G05293270F93883894F82811414F72972165F63144845
926F52371990F42798559F35491841F28745837F21568850F14199173F07821684
919F04183113F04263366F08715199F19241083F35306206F51737022F65845011
912F79932036F96833432G15703749G33070854G47601566G59727292G70545390
905G84329966H06361077H27177660H37909153H44645981H53684885H65402709
898H74662398H79246434H80363980H79037648H75381713H68032998H54717025
891H37116854H20389377H05059731G89177701G72588355G57636754G46865029
884G40809259G38957364G40249180G42863588G45966644G50668412G58005975
877G66109015G73103966G79798797G87622467G97030734H07054558H15593238
870H20177344H18450521H08933699G92850576G74805307G60499473G53896330
863G55920096G64573756G76572291G89390369H01707728H12755293H22062484
856H29353250H34022269H34965192H31370876H22959952H08680163G87768645
849G65861338G51104829G44175944G43971111G51300698G63947188G77137099
842G89126810G99436003H07119212H13359698H24144340H43468227H60835260
835H72143490H81368240H90019712H98104258I05654630I12160368I17061463
828I20772172I24021406I27043926I30858462I37373941I44408206I48624857
821I50342008I51274203I52776358I54534236I55459795I55425139I55016461
814I54639051I54267149I54329967I55947738I59133659I62624147I66036781
807I69455415I72268727I73789445I73813584I72373331I70208822I70433348
800I75445613I80962690I84187431I85790944I86637591I87337990I88360813
793I89323005I88964301I86087747I79170296I66090848I46788560I25782178
786I08565346H98691865H98159454I06771188I21222070I37001543I51452636
779I64017180I75276636I86631874I98284691A007885721A014031978A017353560
772A018806165A018994482A018140564A016073249A012212692A005355096I94273439
765I80717977I67342291I52534751I33956647I11043880H84886184H58528667
758H36422314H20788102H10207445H02464734G96311419G91091497G86723094
751G84239548G84280134G85687284G87620138G90275765G93497049G96250153
744G97766565G97962152G96612034G92510788G83415841G68524377G53407894
737G46006241G46931589G52809700G61247375G71035733G81543970G92532104
730H04326794H17186304H29844652H40521301H49335256H57683925H66223523
723H74736581H83263191H91657739H98942012I04517320I08918969I13188414
716I17877408I22524051I26471354I29662286I32462469I35299849I38327663
709I41389710I44524176I48094987I52015116I55612750I58532994I60871986
702I62677296I63956619I65071271I66777412I69574983I73064766I76460742
695I79386563I81981631I84508797I86920277I88863155I90001100I90195698
688I89467841I87891080I85462872I81939704I76847045I69852447I61062772
681I50552911I37822004I22205296I03509108H82227733H59589111H37422904
674H17600770H01356082G89030676G80141267G73463800G67329966G60309675
667G51871223G42452934G33144190G25327860G19794055G15619755G10410774
660G02204189F91413971F80982387F74487731F73953274F79075296F88074108
653F99049749G10709130G22468246G34444335G47264954G61408799G76408396
646G90441496H00465602H03081633G96186981G80455575G59201304G36792925
639G17506731G05269130G02739776G09718493G22816293G37142737G48667727
632G55571132G58058418G57230053G53839722G47723322G38374204G26169425
625G12961233G01430878F93936550F91640756F94189732G00114780G07739406
618G15897218G24052631G32095533G40145352G48321516G56540877G64610954
611G72435189G79938411G86917763G93201093G98872042H04180969H09315624
604H14345536H19291594H24129447H28721035H32826234H36284606H39212333
597H41987953H45019366H48489738H52242514H55886803H59112321H61951395
590H64670407H67452873H70313969H73268729H76374115H79566106H82637328
583H85466309H88148053H90835796H93553608H96239234H98902909I01641190
576I04458807I07133633I09340704I10849423I11464980I10969909I09516668
569I08020513I07689124I09038466I11632193I14752118I17985330I21126147
562I23890333I25966895I27194128I27450416I26336328I23056461I16722876
555I06975527H94571138H81382779H69454123H59765076H52078831H46218860
548H43225984H44804228H51638461H62575493H75409945H88158993H99647210
541I09383478I17285072I23492243I28212645I31571495I33578180I34266579
534I33726758I31630926I26516316I15952811H98301962H74943177H50762663
527H32048193H23400815H25949792H37479935H53698719H70036294H83476776
520H93414136I00895830I07059944I12273442I16400169I19385915I21400505
513I22610868I22992442I22348087I20487368I17458001I13646359I09611956
506I05844711I02726691I00587028H99597308H99652716I00526749I02128921
499I04510897I07668443I11388186I15220227I18618603I21214094I22937881
492I23865981I24142104I24257931I25195278I27783005I31739060I35745371
485I38717283I40654161I42103167I43366891I44525234I45728257I47172816
478I49002407I51195502I53466451I55566022I57706605I60310919I63399928
471I66603989I69648320I72490711I75101025I77300261I78615440I78048868
464I73867721I63218670I41545699I03562257H47870581G82673939G25312614
457F92771783F90834200G12213826G44014167G75696916H01851083H21384178
450H35927031H47902626H58656917H68060102H75741829H82131316H88051636
443H93810532H99099766I03528448I06995925I09720937I12078632I14325159
436I16444636I18309237I19921925I21437914I23009029I24652421I26210690
429I27418370I28086019I28240526I28023906I27496648I26648942I25525114
422I24161302I22442456I20181531I17283731I13701555I09282332I03734904
415H96662311H87695967H77110581H66794260H60245395H60479167H67194326
408H76187704H81870087H80392707H70907152H55145536H36620089H19559599
401H07230240H00470049G97751319G96700827G95598174G93776983G91326540
394G88822737G87037120G86486217G87262492G89382816G93076866G98511361
387H05339030H12767080H20132241H27279229H34363045H41464718H48463199
380H55110033H61152109H66502821H71335310H75946944H80529004H85067231
373H89421871H93438981H97020027I00163316I02892844I04949220I05591599
366I03940443H99394522H91365948H78680355H59657083H33553101H03216871
359G76500296G62768375G65928674G81497738H01289380H19823580H35765677
352H49438802H61027953H70654746H78724540H85723021H91843444H96946832
345I00920746I03992251I06554285I08695431I10074842I10433334I10218549
338I10534692I12388564I16003631I20784736I25805683I30339885I34111367
331I37232704I39968585I42472247I44485496I44879563I41387310I31583706
324I15297021H96258856H80581094H72938823H73967716H81016946H90837208
317I01318765I11463710I20868377I29416162I36902021I42930120I47476748
310I51236370I54996486I58855066I62183565I64113032I64125878I62654427
303I61258782I61789428I64884367I69368810I73585953I77118156I80573211
296I84115153I87218209I89634913I91624164I93187726I93579040I91360111
289I84532654I71039659I50184607I24219039H98268717H77881634H66026666
282H61974193H62347297H62808771H59071382H47016099H22150996G79381579
275G15976978F38857819E68747306E30963718E37359595E77940223F30665633
268F77699908G13035769G39256355G60727811G79422870G94972594H06847678
261H15463859H21615903H25940192H29003016H31296763H33048995H34301920
254H35191835H35936136H36511108H36717564H36727093H37006392H37456006
247H37291831H36083302H34350340H32845362H31614529H30030357H27626923
240H24718536H21959574H19437984H16741841H13952457H12197473H13281492
233H18849248H29176016H42040820H53193624H58880878H58158457H52722339
226H45043929H37043448H29798419H23466528H17466661H11163144H04275339
219G96749530G88953175G82121271G77823310G76510954G76974757G77226951
212G75293391G69667968G60778631G53897318G55698253G61987935G64875288
205G63299091G59963534G57335434G55898356G54709380G52855085G50336035
198G47721769G45203991G42772535G41088911G40985577G42200810G43568715
191G44318946G44580245G44729035G44781126G44663887G44666216G45116467
184G45889920G46691888G47448187G48106237G48544135G48880536G49461296
177G50417771G51516754G52552423G53787703G55800810G58764323G62105668
170G65000362G66902372G67723256G67967616G68554940G70170663G72862359
163G76205187G79595870G82501926G84735679G86493134G87953856G88908072
156G89017830G88483796G88032557G87809796G86658158G82968131G76030563
149G66330717G54825631G42507918G30377464G19141582G09168225G01092996
142F96085460F95320266F99332647G07634237G18828616G31415180G44340968
135G56662986G67491954G76672448G84377186G89341101G88925789G81909521
128G69953478G55621670G40421545G25500648G12932929G05186901G03378555
121G06415263G12226178G19525767G27697202G35829039G43189401G49985377
114G56567416G62560648G67488002G71481184G74881890G77826063G80621234
107G83821201G87234259G89550381G89855230G89442741G91033408G95644971
100H01565432H06427072H09029692H09515376H08670282H07420180H06636140
93H06281600H04474878G98858137G89537888G78645183G67375633G55880640
86G45264975G37793092G34854707G35716812G38715616G42576102G46172606
79G48852443G51876094G57560877G66060171G74497705G79830771G81862513
72G82662575G83771863G85224892G86993499G89629928G92917348G95431456
65G96096704G95267915G94110842G94051199G96734778H02658698H09423688
58H14124681H16375019H17234371H17634085H18196422H19423585H21651548
51H24864996H28397905H30908131H31260836H29124277H24007973H13368027
44G91392112G52752739G02062740F58306497F41982756F55353996F82701727
37G07050654G21254565G26799311G26545069G21566191G14036147G07552431
30G03127561G00191505F98483670F97954225F98544160G00394291G04043591
23G10243774G19172921G29407295G37824219G41331223G41459897G45632220
16G56371547G68569833G78179897G84216891G86003144G83335516G79220296
9G79301608G86003920G95334263H02689754H06564145H06420155H02040034
2G96142301G93642521
##END=


$$ === CHEMSPECTRA PEAK TABLE EDIT ===
##TITLE=X7978
##JCAMP-DX=5.00
##DATA TYPE=INFRAREDPEAKTABLE
##DATA CLASS=PEAKTABLE
##$CSTHRESHOLD=0.93
##MAXX=3997.453
##MAXY=0.9067293990760743
##MINX=373.96442
##MINY=0.44837632575080805
##$CSSOLVENTNAME=- - -
##$CSSOLVENTVALUE=0
##$CSSOLVENTX=0
##NPOINTS=38
##PEAKTABLE= (XY..XY)
386.71320702892854, 0.6580184698626378
410.79424919468283, 0.589392721835191
429.2091637920248, 0.5421271916938354
491.5365670445658, 0.6205536128277349
545.3647789444876, 0.5939733383116258
572.2788848944483, 0.5871684552449109
647.3550751759185, 0.6257308723486121
668.6030535574664, 0.6366342896488241
705.4328827521499, 0.6858662962877459
757.8445627599685, 0.44837632743972317
772.0098816810005, 0.7279006238037491
827.2546254730255, 0.7371597884998519
879.6663054808441, 0.6441255207976649
927.8283898123532, 0.6641542317814505
954.7424957623139, 0.7264407272629362
1018.4864309069585, 0.583380162896552
1085.063429835809, 0.7596717476962485
1117.6436633541825, 0.6953270431369114
1148.8073649804533, 0.7120685578216965
1253.6307249960905, 0.5840612652083154
1274.8787033776384, 0.5934339165559066
1301.7928093275996, 0.5691249373160514
1416.5318925879592, 0.629970610019632
1436.363339077404, 0.6622570151595829
1483.1088915168098, 0.7584575410157722
1570.9338688272087, 0.6282520291055491
1596.4314428850662, 0.6366334553247548
1623.3455488350273, 0.6240181325474718
1674.3406969507428, 0.5102069973971842
2340.110686239263, 0.7630527015847629
2362.7751965129005, 0.7369511129032852
2531.342491673194, 0.7624169584663774
2660.246893854585, 0.7717157003549447
2840.1464441516905, 0.7693002815069255
2960.551654980462, 0.7776572108567731
3096.5387166223686, 0.8086160417332754
3324.600351250983, 0.804973482492791
3416.6749242376904, 0.7948796154104213
##END=


$$ === CHEMSPECTRA PEAK TABLE AUTO ===
##TITLE=X7978
##JCAMP-DX=5.00
##DATA TYPE=INFRAREDPEAKTABLE
##DATA CLASS=PEAKTABLE
##$CSTHRESHOLD=0.93
##MAXX=3997.453
##MAXY=0.9067293990760743
##MINX=373.96442
##MINY=0.44837632575080805
##NPOINTS=79
##PEAKTABLE= (XY..XY)
3416.6749242376854, 0.7948796154104213
3330.26647881939, 0.7984121443642104
3092.2891209460513, 0.8060605527097789
3062.541951211884, 0.8102614875559168
3034.2113133698203, 0.79949927284877
2976.1335057935885, 0.7799496648616505
2961.9681868725565, 0.777400910387195
2947.8028679515246, 0.7792902583535186
2937.8871447068022, 0.7786139246935966
2927.97142146208, 0.7810751198970283
2879.8093371305704, 0.7763207554331659
2872.7266776700544, 0.7752515674494684
2862.810954425332, 0.7759995457332385
2837.3133803674746, 0.7685890793498935
2814.6488700938235, 0.7665607927812231
2799.067019280688, 0.7690809370335457
2745.238807380766, 0.7915045017903918
2736.739616028147, 0.7907478205270084
2726.8238927834245, 0.7895854711408342
2712.6585738623926, 0.7885377999357656
2655.997298178264, 0.7691431642666846
2638.9989154730256, 0.7720541952566677
2633.332787904613, 0.7720417378187426
2612.084809523065, 0.7702424520956507
2582.3376397888974, 0.7739612455868217
2563.922725191556, 0.7754876017820641
2544.0912787021107, 0.763895809701582
2531.342491673182, 0.7624169584663774
2518.593704644253, 0.7658544775000908
2498.7622581548085, 0.7751014228953005
2477.51427977326, 0.78622144440411
2471.8481522048473, 0.7872250079019047
2463.348960852228, 0.7892760036232785
2393.938898139171, 0.808025240646233
2362.7751965129005, 0.7369511129032852
2342.943750023456, 0.7618440987246549
2280.616346770915, 0.8340101236040036
2269.2840916340892, 0.8343103527558529
2253.7022408209536, 0.8364269729631295
2232.4542624394057, 0.841621934847837
2184.2921781078967, 0.8421496743776712
1674.3406969507428, 0.5102069973971842
1623.3455488350273, 0.6240181325474718
1596.4314428850662, 0.6366334553247548
1570.9338688272087, 0.6282520291055491
1524.1883163878028, 0.8058381082326964
1508.6064655746677, 0.8193001745165943
1483.1088915168098, 0.7584575410157722
1436.363339077404, 0.6622570151595829
1416.5318925879592, 0.629970610019632
1301.7928093275996, 0.5691249373160514
1274.8787033776384, 0.5934339165559066
1253.6307249960905, 0.5840612652083154
1177.1380028225171, 0.7665049428915774
1148.8073649804533, 0.712068556977239
1117.6436633541825, 0.6953270431369114
1085.063429835809, 0.7596717476962485
1018.4864309069585, 0.583380162896552
954.7424957623139, 0.7264407272629362
927.8283898123532, 0.6641542317814505
879.6663054808441, 0.6441255207976649
852.7521995308834, 0.7686409349552804
827.2546254730255, 0.7371597884998519
801.757051415168, 0.8117422455762919
772.0098816810005, 0.7279006238037491
757.8445627599685, 0.44837632575080805
705.4328827521499, 0.6858662962877459
677.1022449100856, 0.6557305455281123
668.6030535574664, 0.6366342896488241
647.3550751759185, 0.6257308723486121
637.4393519311961, 0.6288370490361357
572.2788848944483, 0.5871684552449109
545.3647789444876, 0.5939733383116258
518.4506729945265, 0.666650890824572
491.5365670445658, 0.6205536128277349
460.3728654182951, 0.6705425380226144
429.2091637920248, 0.5421271916938354
410.79424919468283, 0.589392721835191
386.71320702892854, 0.6580184698626378
##END=

##END=

