##TITLE=JMB-216
##JCAMP-DX=4.24
##DATA TYPE=INFRARED SPECTRUM
##DATE=16/4/2019
##SAMPLING PROCEDURE=Diamant-ATR 
##ORIGIN=Angelika Moesle
##XUNITS=1/CM
##YUNITS=TRANSMITTANCE
##RESOLUTION=4
##FIRSTX=3997.453
##LASTX=373.96442
##DELTAX=-1.4165319
##MAXY=0.93775028
##MINY=0.4417221
##XFACTOR=1
##YFACTOR=8.7334801e-010
##NPOINTS=2559
##FIRSTY=0.93502057
##XYDATA=(X++(Y..Y))
3997+1070616249+1070446583+1070105682+1069792968+1069491719+1069139353
3989+1068957948+1069159486+1069490696+1069520657+1069271754+1069186444
3980+1069498203+1069932058+1070088347+1069923322+1069696669+1069512672
3972+1069179551+1068643391+1068239974+1068228850+1068395786+1068490924
3963+1068743853+1069451111+1070298757+1070663204+1070458800+1070163762
3955+1070054905+1069850092+1069257013+1068549345+1068241612+1068326309
3946+1068386640+1068453046+1068966343+1069825522+1070273710+1069991230
3938+1069434800+1068970028+1068508396+1068103273+1068222708+1069034659
3929+1069920183+1070166014+1069662409+1068831893+1068255603+1068264612
3921+1068746651+1069398833+1070060024+1070704494+1071177115+1071207690
3912+1070731248+1070019348+1069452749+1069185693+1069106593+1069120721
3904+1069332427+1069872409+1070650646+1071379335+1071678604+1071317160
3895+1070556736+1070119468+1070601917+1071568042+1071751494+1070851024
3887+1069905305+1069866267+1070435186+1070820994+1071073377+1071477067
3878+1071682836+1071325691+1070523226+1069481004+1068468948+1068028746
3870+1068394830+1068833599+1068698877+1068523820+1069091852+1070135916
3861+1070639044+1070274938+1069548092+1068975897+1068913587+1069944616
3853+1072148154+1073741823+1073525475+1072204254+1070757796+1069694076
3844+1069091783+1068837763+1068859124+1069322054+1070441533+1071727607
3836+1072041003+1071032291+1069514719+1068438987+1068065122+1068074677
3827+1068186263+1068233354+1068029019+1067740259+1068007589+1068894955
3819+1069482369+1069682542+1070352537+1071383703+1071629875+1070820789
3810+1069642617+1068818448+1068860148+1069617842+1070063232+1069647462
3802+1069109460+1069341368+1070003173+1070462280+1070744146+1070829457
3793+1070483028+1069864833+1069442307+1069365596+1069442307+1069674625
3785+1070238425+1070855801+1070879074+1070211126+1069648486+1069996007
3776+1071033042+1071833255+1071690206+1070629080+1069461895+1069130753
3768+1069666572+1070292547+1070379700+1069811463+1068948871+1068434551
3759+1068646530+1069132186+1069129047+1068615887+1068258197+1068847181
3751+1070574959+1072156753+1072169720+1070891768+1069690049+1069852071
3742+1070913130+1071338249+1070744351+1069742601+1069073220+1069015959
3734+1069356587+1069798291+1070024398+1069870157+1069628830+1069739802
3725+1070186147+1070561787+1070702856+1070676854+1070438393+1070051766
3717+1069778704+1069664388+1069515197+1069432411+1069964135+1071166536
3708+1072048511+1071704266+1070210307+1068539517+1067916272+1068738529
3700+1070086231+1070963429+1071258057+1071183803+1070764143+1069999419
3691+1069222070+1069138875+1070078519+1071167082+1071436459+1071021713
3683+1070608537+1070509850+1070316024+1069515128+1068515084+1068563540
3674+1069709705+1070242589+1069566178+1068675468+1068483963+1068828890
3666+1069291478+1069766965+1070030063+1069708272+1068789852+1067864472
3657+1067709343+1068365347+1068781935+1068157394+1066914453+1066248348
3649+1067114080+1068735253+1069473019+1069071855+1068378178+1068121290
3640+1068318187+1068565247+1068711025+1068878166+1069007292+1068856053
3632+1068499796+1068556989+1069595866+1070936948+1071334496+1070822223
3623+1070103567+1069756045+1070141581+1071065460+1071607694+1071194586
3615+1070250778+1069386207+1068801454+1068500957+1068593365+1069047012
3606+1069417670+1069226369+1068403157+1067258630+1066354133+1066202758
3598+1066810306+1067755138+1068732660+1069588359+1069923049+1069387982
3589+1068345760+1067642118+1067528826+1067475524+1067394240+1067729954
3581+1068530986+1069278716+1069577917+1069574982+1069566042+1069522909
3572+1069217360+1068682020+1068292526+1068319962+1068459734+1068129753
3564+1067350765+1066686572+1066565499+1066948850+1067401611+1067512310
3555+1067305107+1067137626+1067198435+1067290229+1067202598+1067004132
3547+1066852825+1066835285+1066970553+1067101113+1066933017+1066463058
3538+1066134305+1066284247+1066624329+1066655792+1066419925+1066341098
3530+1066493770+1066493906+1066119086+1065656771+1065532217+1065890249
3521+1066549051+1067132302+1067243411+1066709981+1065804256+1065128050
3513+1065106142+1065633020+1066300695+1066791401+1066885994+1066391192
3504+1065391353+1064395062+1063925990+1064046107+1064395130+1064487880
3496+1063999357+1063079232+1062355525+1062415106+1063282271+1064422088
3488+1065187426+1065271986+1064818680+1064210450+1063763968+1063519775
3479+1063348608+1063233268+1063270396+1063472343+1063767040+1064058324
3471+1064136332+1063788470+1063148709+1062682230+1062708984+1063073089
3462+1063318238+1063179625+1062909566+1062975016+1063457396+1063959022
3454+1064065217+1063675928+1063005592+1062470114+1062403436+1062717788
3445+1063047701+1063266437+1063501417+1063664189+1063417880+1062697313
3437+1061905836+1061485972+1061542550+1061903174+1062284615+1062423774
3428+1062294443+1062152281+1062231859+1062505808+1062786173+1062899465
3420+1062772660+1062495230+1062263458+1062184290+1062205447+1062234452
3411+1062248989+1062317443+1062528398+1062787811+1062743995+1062180946
3403+1061464883+1061244167+1061643967+1062129213+1062249808+1062137198
3394+1062093178+1062068813+1061839567+1061430690+1061080508+1060884635
3386+1060704254+1060430032+1060197032+1060226651+1060500259+1060753052
3377+1060849896+1060979909+1061296992+1061558315+1061430008+1060996903
3369+1060644127+1060601131+1060891186+1061461948+1062076799+1062381118
3360+1062320445+1062213500+1062265505+1062298674+1062091881+1061736102
3352+1061454100+1061190797+1060708485+1060145504+1060068997+1060708417
3343+1061509654+1061758419+1061380118+1060882724+1060690263+1060711420
3335+1060582362+1060240233+1060041493+1060245693+1060635733+1060790588
3326+1060579974+1060281318+1060225628+1060377276+1060408329+1060234909
3318+1060164614+1060357006+1060536704+1060475553+1060368881+1060464497
3309+1060646994+1060617647+1060274494+1059787677+1059433673+1059388492
3301+1059572422+1059755055+1059884590+1060138406+1060516912+1060620445
3292+1060123323+1059351638+1059007529+1059256022+1059493595+1059240461
3284+1058845985+1058911845+1059368427+1059621902+1059429646+1059180676
3275+1059332187+1059807742+1060047090+1059648587+1058869804+1058384967
3267+1058586027+1059211797+1059685851+1059760856+1059706325+1059832926
3258+1060086947+1060257568+1060305751+1060305205+1060285823+1060228289
3250+1060057395+1059713150+1059332938+1059168118+1059317787+1059747479
3241+1060400275+1061052799+1061328386+1061052048+1060372703+1059558909
3233+1058959346+1058962008+1059570374+1060188159+1060257022+1059944035
3224+1059804603+1059966147+1060085514+1060006072+1060009690+1060345404
3216+1060837407+1061122480+1061120365+1061079074+1061188681+1061358484
3207+1061451643+1061545348+1061797116+1062134537+1062240049+1061900445
3199+1061290986+1060768749+1060462586+1060273470+1060156765+1060115679
3190+1060075481+1060028321+1060111653+1060370246+1060634436+1060674702
3182+1060360350+1059794843+1059362967+1059403166+1059786858+1060046271
3173+1059896534+1059444046+1058990126+1058779989+1058852469+1059022954
3165+1059047796+1058853356+1058548832+1058183975+1057650477+1056953388
3156+1056410881+1056393682+1056927521+1057654709+1058191483+1058495461
3148+1058773915+1059002411+1058849671+1058191892+1057343223+1056680940
3139+1056351573+1056305027+1056372047+1056397709+1056406240+1056477491
3131+1056540962+1056484999+1056337309+1056196990+1056082742+1055873629
3122+1055412542+1054725827+1054055559+1053623409+1053529295+1053806998
3114+1054326300+1054759746+1054876792+1054769233+1054728147+1055019773
3105+1055680486+1056401394+1056791298+1056816891+1056767752+1056829039
3097+1056945061+1057044977+1057113635+1057017405+1056495372+1055462159
3088+1054207821+1053170240+1052528977+1052068710+1051418097+1050387205
3080+1049058407+1047545339+1045789238+1043685890+1041240275+1038489521
3071+1035477854+1032438341+1029783067+1027747898+1026149929+1024623075
3063+1022988388+1021248394+1019390262+1017472207+1015782853+1014580794
3054+1013763314+1013029643+1012196944+1011133633+1009558117+1007104176
3046+1003610675+999350334+994929609+990824123+987038587+983318637+979558421
3036+975865088+972420179+969453419+967192894+965609257+964273226+962671298
3026+960682675+958674601+957211559+956739143+957408865+959087026+961563626
3016+964675072+968170144+971673882+974877396+977561539+979473520+980447425
3006+980540584+979850456+978411574+976397289+974131099+971757009+969128079
2996+966064406+962533436+958543768+953984021+948605703+942158340+934610608
2986+926336576+918085202+910676355+904651041+900120368+896815642+894279257
2976+892121445+890069146+887748495+884700178+880832333+876657917+872870674
2966+869817239+867516243+866054088+865750860+866872182+869273572+872432656
2956+875795598+878972290+881632956+883373087+883767631+882575126+879887707
2946+876046684+871363817+865919502+859592393+852193374+843516130+833352913
2936+821628785+808528428+794357798+779370575+763972224+748980907+735372508
2927+723859336+714947523+709192404+707059026+708579874+713324097+720632686
2917+729738872+739704988+749440014+758049078+765302864+771665667+777771787
2907+783971408+790413174+797327970+805024416+813646106+823016822+832783721
2897+842696125+852651390+862473024+871862304+880652021+888879917+896503815
2887+903260889+908931993+913583535+917437524+920634691+923194963+925062445
2877+926098593+926216458+925662008+925014399+924734716+924779146+924709260
2867+924046499+922459313+919761111+915878184+910821656+904585182+896971112
2857+887575485+876186389+863359298+850589536+839905719+833250950+831955594
2847+836348474+845618933+858107785+871951027+885696946+898571811+910351971
2837+921034081+930605721+939070780+946512796+952987048+958464123+963031786
2827+967014629+970710214+974119702+977089670+979600871+981765439+983622479
2817+985131043+986385381+987659102+989108562+990576586+991837408+992898126
2808+993907861+994953291+996089218+997352429+998591957+999489697+999876734
2798+999889633+999767673+999642437+999568114+999661751+1000149796+1001196045
2788+1002635677+1003992866+1004919202+1005523337+1006122559+1006802313
2779+1007417914+1007888419+1008278732+1008683036+1009200222+1009942493
2771+1010920698+1011957528+1012798281+1013300999+1013520622+1013665787
2762+1013958572+1014442249+1014902175+1015081532+1015012533+1015009803
2754+1015263960+1015554904+1015477851+1014897535+1014130559+1013649748
2745+1013571877+1013475100+1012817117+1011444163+1009578251+1007486436
2737+1005376262+1003436914+1001748925+1000267798+999050928+998394651+998599669
2727+999656974+1001261358+1003101473+1005044916+1007039954+1008950501
2718+1010563212+1011752510+1012602066+1013337239+1014083604+1014716198
2710+1015023385+1015002091+1014908318+1015022839+1015410285+1015884817
2701+1016196712+1016246329+1016104850+1015859496+1015548420+1015260139
2693+1015179264+1015424071+1015837725+1016058509+1015873214+1015436902
2684+1015100915+1015119547+1015509245+1016049432+1016449163+1016623538
2676+1016692059+1016665852+1016410944+1015981115+1015641101+1015452463
2667+1015120366+1014352229+1013190300+1011935074+1010847945+1010029441
2659+1009558936+1009558527+1009985080+1010572016+1011143870+1011773462
2650+1012498124+1013153241+1013614942+1013984507+1014449825+1015099277
2642+1015853218+1016491477+1016804737+1016800984+1016732804+1016854081
2633+1017167956+1017492136+1017755029+1018050203+1018396086+1018638846
2625+1018614277+1018320399+1017977314+1017872757+1018021334+1018162267
2616+1018232700+1018448569+1018787150+1018899555+1018648401+1018250785
2608+1017898624+1017649790+1017560725+1017605292+1017628564+1017589595
2599+1017714762+1018253788+1019134535+1019959590+1020385938+1020425795
2591+1020298375+1020114241+1019854351+1019579173+1019485127+1019691578
2582+1020052681+1020319055+1020430368+1020444700+1020281791+1019881241
2574+1019541841+1019705638+1020377748+1021036960+1021173252+1020776661
2565+1020263637+1020023675+1020097588+1020266367+1020374472+1020484625
2557+1020709914+1020988504+1021116674+1020987753+1020728750+1020577648
2548+1020655861+1020880398+1021097838+1021252898+1021366600+1021438807
2540+1021467335+1021490062+1021520159+1021505076+1021394036+1021203282
2531+1021026245+1020976697+1021078046+1021230990+1021297737+1021187107
2523+1020915341+1020655656+1020629790+1020839313+1020954516+1020567138
2514+1019654656+1018759578+1018554218+1019180534+1020130484+1020744379
2506+1020724587+1020297010+1019962047+1019981976+1020142701+1020136422
2497+1020006136+1020002314+1020135330+1020113968+1019773135+1019370060
2489+1019246940+1019341123+1019326313+1019084782+1018703682+1018222735
2480+1017725545+1017407371+1017286640+1017147618+1016931884+1016843707
2472+1016933522+1016927653+1016607431+1016047111+1015405235+1014832426
2463+1014616760+1014977658+1015638030+1016031073+1015975178+1015771524
2455+1015691537+1015718836+1015740744+1015726685+1015741290+1015889662
2446+1016185588+1016444522+1016418383+1016118977+1015853013+1015795070
2438+1015726480+1015427961+1015054847+1014840957+1014732373+1014534658
2429+1014129194+1013484041+1012733445+1012164594+1011887710+1011730875
2421+1011621473+1011753260+1012184795+1012568079+1012507679+1012046524
2412+1011573767+1011321794+1011181884+1011009216+1010862072+1010887119
2404+1011109473+1011371820+1011481563+1011447780+1011460270+1011561073
2395+1011573767+1011465184+1011472691+1011720160+1012002913+1012117229
2387+1012157155+1012321224+1012608345+1012867962+1013010738+1013014560
2378+1012830562+1012490480+1012252361+1012438748+1013105876+1014009076
2370+1014921831+1015843868+1016711510+1017009483+1016156445+1014479376
2361+1013206338+1013075711+1013533453+1013746798+1013740928+1013959801
2353+1014268762+1014099437+1013263189+1012104808+1011140048+1010767412
2344+1010967721+1011257981+1011268765+1011112066+1011018634+1010999047
2336+1010906434+1010624295+1010242240+1010067183+1010228385+1010316426
2327+1009771325+1008556708+1007218356+1006430359+1006496219+1007118781
2319+1007720596+1008052830+1008328553+1008755174+1009176472+1009276183
2310+1008957872+1008349233+1007540420+1006585488+1005733747+1005365957
2302+1005586672+1006045984+1006306488+1006340271+1006517513+1007072782
2293+1007764139+1008195264+1008219151+1007867876+1007261830+1006741299
2285+1006619885+1006755017+1006920451+1007421804+1008631849+1010134475
2276+1011014266+1010889030+1010243878+1009825378+1009869876+1010002073
2268+1009932119+1009908710+1010213712+1010728646+1011331485+1012205816
2259+1013455923+1014728142+1015333301+1014730599+1013112223+1011430991
2251+1010540622+1010447053+1010636511+1010873401+1011286987+1011785542
2242+1011844850+1011174172+1010267833+1009882639+1010200813+1010885208
2234+1011640241+1012250655+1012327776+1011626933+1010717590+1010756560
2225+1012051233+1013273768+1012938463+1011308895+1009846535+1009248338
2217+1009077853+1008849767+1008549337+1008392093+1008549405+1008897268
2208+1009074304+1009046732+1009253115+1009911030+1010574541+1010546082
2200+1009519284+1008025462+1007305304+1008143327+1009685128+1010192896
2191+1009170125+1007869173+1007496810+1007872312+1008129473+1007940561
2183+1007654668+1007625799+1007673436+1007284898+1006569518+1006593200
2174+1007931074+1009471169+1009783815+1009054853+1008519239+1008751421
2166+1009466733+1010185935+1010413543+1010146965+1010492166+1012324568
2157+1014555610+1015721976+1016021791+1016232133+1016526488+1016889570
2149+1017099366+1016308366+1014047500+1011410994+1010036334+1010241694
2140+1010977480+1011274498+1011103876+1010819212+1010272542+1009138389
2132+1007886372+1007448558+1007938855+1008513575+1008483750+1008001848
2123+1007640063+1007679374+1007912920+1007999323+1007783043+1007129633
2115+1005754563+1003633060+1001386458+999910176+999659431+1000309770+1000997032
2105+1001069853+1000681793+1000382182+1000340414+1000462852+1000954036
2096+1002036797+1003220908+1003566723+1002821723+1001862695+1001804070
2088+1002845473+1004209896+1005124016+1005449834+1005338521+1004775949
2079+1003777474+1002727881+1002159849+1002287269+1002959380+1003888105
2071+1004731451+1005214308+1005382268+1005494127+1005637722+1005797901
2062+1006173267+1006912808+1007678214+1007928003+1007455656+1006375965
2054+1004856414+1003117443+1001536331+1000589384+1000550005+1001164036
2045+1001942478+1002847794+1004223000+1006090755+1008106200+1010015860
2037+1011487296+1011885662+1011109678+1010216715+1010326731+1011357351
2028+1012419160+1012870214+1012494575+1011136909+1008820625+1006223498
2020+1004532165+1004419487+1005338930+1006237353+1006674689+1006746008
2011+1006537032+1006227866+1006170196+1006372894+1006357948+1005750264
2003+1004606010+1003320482+1002595616+1002973439+1003937448+1004108274
1994+1002859396+1001132574+1000116491+999603058+998626900+997310729+996838381
1985+997667736+998829598+999305221+999338458+999905808+1001304969+1002712389
1975+1003180368+1002943000+1003415279+1005465736+1007902478+1008621817
1966+1007273978+1005444920+1004259240+1003409069+1002395989+1001456208
1958+1001061868+1001081933+1000647054+998881126+995977973+993370678+992429600
1948+993058509+993921989+994014738+993684894+994022519+995464540+997367989
1938+998852188+999496863+999315732+998517293+997474730+996648855+996246599
1928+996053251+995755210+995270578+994673950+994005661+993373271+993083761
1918+993233157+993177057+992159200+990468822+989158930+988781447+988961760
1908+989286486+989932594+991102987+992422366+993163680+992888161+991827853
1898+990718065+990194327+990234252+990263258+989918194+989389746+988870785
1888+988188232+987340928+986768187+986653188+986582483+986275160+986089115
1878+986386405+986895675+987117823+987047186+987139595+987714588+988612328
1868+989397390+989858613+990124645+990298747+990317720+990123144+989814115
1858+989610803+989696727+990074824+990519599+990745160+990715472+990666743
1849+990735946+990797848+990736083+990586073+990352117+990042884+989846260
1839+989976819+990443229+991043201+991513911+991674021+991534317+991334963
1829+991336192+991529403+991743908+991894464+991982095+991967694+991785266
1819+991460472+991111722+990849444+990752804+990837841+990932161+990775804
1809+990358669+989888506+989441205+989022228+988835568+989098462+989592307
1799+989805720+989583503+989215917+989009466+989049527+989151013+988987421
1789+988467573+987782836+987128607+986564055+986086043+985738454+985513507
1779+985201543+984575159+983723760+983041071+982882666+983164191+983416847
1769+983399375+983119352+982507914+981621912+980842788+980546112+980629102
1759+980747513+980894520+981140283+981215766+980884829+980335088+979933309
1749+979819744+979895158+980033089+980026741+979634927+978875117+978012935
1740+977158532+976161900+975021264+974038350+973407256+972718015+971579017
1730+970180948+968833655+967752941+967145052+967071275+967248175+967427464
1720+967912574+969342652+971728891+974072133+975737600+976911336+977839515
1710+978555373+979082319+979542996+979878984+979799542+979397696+979335180
1700+980012819+980868518+981542881+982187692+982432840+981984721+981371099
1690+981229347+981518175+981803180+982211033+983313382+984653372+985118212
1680+984662790+983827088+983156956+983015819+983183300+983061067+982646595
1670+982538421+982884918+983020187+982660722+982218404+982070441+982107295
1660+981992365+981615088+981055450+980568088+980816240+982268566+983411660
1650+983197360+982675259+982975347+984047053+984678829+984548542+984267290
1640+984136117+983991021+983776516+983898817+984552228+985101286+985188099
1630+985143328+985384791+985929345+986460932+986863325+987237531+987440024
1621+987163823+986369001+985206594+983575729+980787234+975782712+967023297
1611+951999152+927877626+893893721+853573699+814586296+786378053+776136145
1601+784566261+805805792+832041178+857503854+879291284+896653006+910134053
1591+920805585+929638094+937183506+943655165+949132990+953576032+956673966
1581+957739188+955289341+945137931+919134522+874092936+819156622+760534141
1571+700181630+652856997+641682064+668530730+714360995+757515444+783993521
1561+789223262+771698768+743270833+730574574+736486869+751585131+769769862
1551+787889961+804684812+819224734+831060311+841061916+850203113+858563002
1541+866639591+875039474+881892027+886163766+889538310+893772034+898789182
1531+902953225+905749978+908052817+910480619+912800725+914733657+916720574
1521+919225770+921649477+923171827+923933957+924454215+924936186+925338306
1511+925541959+925415836+925209589+925746841+926945898+927441518+927118157
1502+926612641+926295012+926368721+926946853+927707209+928086739+927978087
1492+927710349+927654999+927693901+927067244+925196827+921914076+916981352
1482+910174934+901496325+890646119+876770459+858993445+836184404+807383833
1472+776102294+749499664+729826844+715070438+704391126+698965443+698839319
1462+701511451+704257837+704715647+699693722+687469333+670764434+651479402
1452+629247675+604162549+577106817+549775362+525921335+510328920+505780161
1442+511493034+523441938+537595539+552967512+569879341+586881496+603383015
1432+621927756+644958945+671001938+695452763+715024643+727765878+730292572
1422+717432790+683613978+630646018+580576637+558557436+564404519+584954638
1412+610373021+635412148+657493591+675991855+691860984+706256151+719122621
1402+730192042+740563280+751734118+763918854+776494995+789161225+801088391
1392+810681257+817371174+821737778+823902141+822914108+817891296+809000980
1383+796987342+782745802+767452418+752583879+739812138+731293026+729856532
1373+737360995+752750747+772858718+793715444+811616397+825137370+835358462
1363+843722241+850573293+855729736+859472685+862446134+865110075+867565313
1353+869776631+871742596+873457952+874924475+876225427+877492800+878825215
1343+880262800+881829580+883559473+885397745+887125113+888526322+889581034
1333+890464032+891416234+892541037+893718050+894806135+895823036+896832499
1323+897843191+898892715+900006257+901057078+901892985+902560318+903207109
1313+903844754+904359484+904726865+905095680+905615938+906274877+906925353
1303+907370947+907387463+906748999+905123935+901731305+895209892+884260112
1293+868991433+852138776+838788151+833884978+838995626+851240899+865483872
1283+877536343+885631086+889810758+890609265+888319325+883289892+876725074
1273+870890377+868103043+869192083+873001984+877521397+881340443+884072974
1264+885845387+886764284+886895389+886533331+886206421+886320874+886885766
1254+887561972+887889428+887509147+886282927+884289322+881773275+879135404
1244+876917330+875659306+875631870+876655733+878236299+879865662+881150235
1234+881775254+881596784+880827078+880014308+879780625+880502352+882087559
1224+884037826+885849823+887396947+888894249+890569135+892448219+894397804
1214+896244948+897859229+899208364+900413973+901694177+903148484+904606543
1204+905763696+906430278+906587523+906323197+905814541+905214500+904415311
1194+903012055+900573470+896942038+892447195+888018144+884893867+883766539
1184+884004862+883887407+881898169+878004527+873741388+871058883+871040934
1174+873483204+877354051+881548328+885351814+888457050+890829229+892620069
1164+893984696+894870425+895091686+894551090+893150769+890450792+885544070
1154+877316310+865021216+849221496+832748300+820482348+817060848+823761686
1145+837442019+852772531+865558809+874191282+878919944+880693038+880582476
1135+879501216+877883591+875523901+871853431+866590316+860302518+854376847
1125+850392776+849369595+851369684+855605524+860921395+866299782+871076491
1115+874926727+877877517+880255839+882370995+884236088+885686436+886645258
1105+887175139+887456596+887791355+888415896+889236174+889893270+890106410
1095+889852185+889204439+888022034+885749225+881608660+875277046+867649395
1085+860928425+857584524+858734101+863323058+868969115+873665428+876724869
1075+878413267+879197442+879530767+879926472+880713854+881690694+882296126
1065+882150757+881253426+879741177+877756649+875593719+873695730+872296091
1055+871093894+869338544+866074972+860179330+850576705+837312756+822782116
1045+811094910+805154634+804135480+804122308+801139919+793424364+781443827
1035+766750482+751057707+735959513+723117885+714424057+711602939+715314904
1026+724443953+736302052+747799936+756668753+761757153+762668952+759838553
1016+755200183+752250554+754582671+763723800+778192130+794649287+810001161
1006+822683292+832565531+840174413+846047124+850473104+853517189+855158633
996+855360785+853949612+850348346+843290296+831043590+813309368+794302244
986+782807909+786150308+803193924+825037454+842962977+854189641+860516204
976+864369307+867154867+869520699+871653327+873406220+874548494+875009854
966+874939558+874504747+873679214+872418938+871007697+870000281+869848838
956+870750263+872728718+875586280+878791910+881685576+883923715+885638935
946+887138353+888557648+889850547+890983471+892016616+893012838+893953097
936+894747168+895228047+895122807+894188213+892461937+890301737+888204667
926+886719922+886401065+887524708+889773904+892353900+894524064+896031536
916+897070209+897911098+898632143+899121279+899164480+898420709+896401374
907+892823722+888312977+884573850+883277061+884589410+887053111+888876027
897+889111553+887894205+886054500+884493044+883626220+883339645+883358823
887+883465017+883473002+883354250+883445157+884296693+886208946+888995462
877+892180549+895304826+898057900+900241714+901623335+901803648+900267648
867+896501153+890026491+880540708+868037456+852380307+832621972+807177654
857+774847614+735576844+690695505+643249458+598337339+562873570+544408031
847+548697241+576621093+622624232+676487202+727661526+769328499+799745330
837+820790080+835509427+846410410+854919012+861590503+866585880+870087162
827+872477154+874278981+875974614+877869327+880100232+882627199+885151846
817+887246186+888709364+889685317+890418101+891059227+891684382+892296571
807+892820992+893250138+893762275+894544197+895525815+896493509+897479904
798+898794574+900579271+902527764+904158765+905255859+905960593+906467405
788+906730571+906562885+905869686+904473254+901712946+896483135+887688368
778+874536141+856484700+833118889+804185506+769775117+730480664+687603987
768+643736820+603568037+574206395+564108559+579589901+619886582+675268695
758+731528756+777518859+808790911+825040935+825882574+809984645+778043894
748+736318568+697012104+674034080+676079691+701768679+740675754+779422513
738+808561665+825999689+835494003+842129185+848234009+852574951+852959531
728+849336494+844409571+841740852+843232080+847384862+849366728+843958517
718+829966971+811665945+796100385+789685373+795681272+812427666+834014991
708+853933983+868627532+877992311+883677543+887472634+890393531+892530936
698+893766438+894361564+894645819+894729560+894855956+895480498+896687335
688+897929047+898638421+898884798+899171237+899794960+900745660+901987919
679+903340808+904311710+904613163+904599309+904749933+905030639+905022040
669+904466498+903782853+903437379+903089653+902321449+901199035+900007758
659+898726394+897232503+895704898+894015203+890949210+884831897+875114069
649+863195843+851949659+844664888+843793355+849419553+858563616+866649760
639+869816966+865838900+853921561+835005344+812211114+789792318+770867433
629+756451587+747486949+746834357+756399786+771752479+781862395+775418513
619+748971011+712582850+687103521+689101768+716400122+751808099+779234010
609+792358323+790378094+773269233+744812702+716206706+701908384+710508029
599+739173264+776488785+810928998+837028023+855123212+867583740+876048322
589+881410193+884794497+887395377+889684293+891279533+891301577+888673875
579+882544892+872610784+858899944+841492700+820840516+798733069+779171768
569+767662145+768267509+780324894+797519680+809582252+805634830+778957468
560+731902416+677539457+635112742+620443216+637132964+675097732+717436543
550+749877624+766951474+772869501+777202937+787588371+804538555+822773585
540+837251537+847401310+855893532+864756071+873495284+880170187+883434305
530+883522141+881375796+877314126+871326076+864226326+857398410+851756994
520+847554800+844529210+842016712+839502371+837281430+836468386+838208517
510+842635316+848652508+854788931+859966668+863466175+864756685+863979676
500+862581948+862810717+866156665+872034426+877917920+881107170+880377526
490+876083402+868970753+858785082+843997418+823348714+798153503+773097588
480+755104840+751105686+764051120+789700046+819306018+845277077+863863995
470+874919561+880334256+882466679+883458602+884783782+886732821+888241931
460+887327265+881990032+871267450+855051892+831598587+797487194+752970711
450+706120746+669187144+652399664+660181557+688500157+726486902+762409540
441+789727687+808622064+822127067+832333349+839038350+840281836+834364696
431+821249597+802249912+779109047+753389825+727003133+703542183+687160918
421+679732416+680638755+688486098+702378889+721603794+744337829+766906293
411+784911735+795366442+797331383+791253927+778295389+760693433+742829060
401+731179460+733455955+754635564+788049935+818714645+838420974+846859758
391+847196087+845315364+847238810+854651956+863246551+866756501+864769993
381+862939843+865324512+871385452+878783310+885785396+890856597
##END=
