##TITLE=X8584
##JCAMP-DX=4.24
##DATA TYPE=INFRARED SPECTRUM
##DATE=31/10/2018
##SAMPLING PROCEDURE=Diamant-ATR
##ORIGIN=ComPlat
##XUNITS=1/CM
##YUNITS=TRANSMITTANCE
##RESOLUTION=4
##FIRSTX=3997.453
##LASTX=373.96442
##DELTAX=-1.4165319
##MAXY=1.0250883
##MINY=0.5022074
##XFACTOR=1
##YFACTOR=9.5468789e-010
##NPOINTS=2559
##FIRSTY=0.92885417
##XYDATA=(X++(Y..Y))
3997+972940143+972732176+972598381+972699898+972925346+972977166+972836503
3988+972835567+973141866+973502233+973675736+973777253+973953379+974020994
3978+973752092+973314433+973098849+973228024+973569224+974076997+974711136
3968+975160034+975058204+974396220+973518154+972876211+972819584+973315744
3958+973878021+974058392+974012378+974276785+974941578+975431682+975274849
3948+974736921+974335722+974185694+974256681+974673238+975336346+975763267
3938+975602001+974948508+974163530+973569349+973320614+973433868+973810281
3928+974176017+974199055+973858916+973579526+973703020+974036915+974207546
3918+974203363+974407521+975013814+975633905+975772320+975381174+974748721
3908+974052898+973269480+972431246+971755464+971498737+971770324+972517779
3898+973508851+974326295+974586705+974243196+973762332+973815712+974357262
3888+974722561+974666808+974379238+973904118+973193561+972700335+973114645
3878+974212353+974956999+974817647+974035104+973163281+972638838+972697338
3869+973245319+973826888+974176142+974412516+974666121+974787117+974547185
3859+973895503+972931902+971891258+971401903+972342403+974084864+975164591
3849+975449289+975329416+974942765+974234767+973306878+972449227+971819834
3839+971548247+972039600+973368687+974833006+975755089+976106153+976281404
3829+976496238+976597506+976363317+975739231+974795608+973722811+972882142
3819+972461776+972482567+973273851+974953253+976744974+977781060+977747034
3809+976763392+975448664+974716193+974811279+975239574+975635341+975793485
3799+975584957+975345836+975624602+976452410+977273413+977742789+977991587
3789+978142676+978054520+977620544+977079931+976786118+976769261+976855294
3779+977078932+977592761+978219220+978541253+978365439+977909049+977646329
3769+977902681+978528329+979175329+979611115+979589389+978921536+977818958
3759+976950943+976820956+977012128+976690470+975497924+973819146+972881268
3750+973647266+975139368+976089733+976325233+976277221+976329416+976447790
3740+976377989+975713882+974056394+971831758+970620733+971365941+973287399
3730+975114145+975993773+975729678+974987966+974743976+975098536+975497050
3720+975875149+976557736+977393785+977796482+977477133+976890320+976999953
3710+978006259+978789177+978519089+977410767+976172770+975525021+975844743
3700+976794297+977697337+978258615+978524520+978516092+978137931+977435990
3690+976936770+977332412+978352016+979068817+979122385+978639148+977860788
3680+977076996+976485500+976078370+975971484+976423503+977030358+977190376
3670+977205485+978030545+979580211+980732236+980976789+980698397+980491055
3660+980435802+980219219+979860912+979739417+979697649+979006321+977343463
3650+975233019+974079182+974933275+976967862+978946135+980397842+981339591
3640+981842869+981802911+981139803+980147358+979357635+978925282+978362068
3631+977269542+976442733+977251061+978981909+980077745+980306876+980047277
3621+979553864+979095975+979019994+979197056+979151167+978684787+977882328
3611+976875460+976057580+976171896+977412390+978920537+979834628+980008131
3601+979728428+979269104+978729240+978178263+977799229+977794983+978133873
3591+978525956+978697149+978675735+978842932+979423315+980147982+980695588
3581+980982845+981115454+981253994+981453720+981631968+981713568+981677107
3571+981404709+980702580+979726056+979317865+980105153+981386354+982133934
3561+982130438+981855730+981767511+981749468+981463334+981052958+981053770
3551+981544935+981950130+981931087+981859913+982206545+982850360+983393034
3541+983775440+984158782+984574278+984901181+985008254+984878330+984664807
3531+984552489+984530949+984421316+984162154+983922408+983923095+984264170
3521+984861910+985535507+986195742+986837498+987344084+987521583+987383917
3512+987223400+987334532+987697209+987943010+987745033+987213660+986757458
3502+986541687+986382856+986251995+986374490+986733046+986912418+986672298
3492+986350016+986436674+987007879+987782556+988520959+989090978+989370181
3482+989365873+989220652+988963863+988596691+988383917+988588637+989002010
3472+989215470+989219279+989315926+989622226+989954310+990113141+990151663
3462+990310057+990634587+990834125+990711443+990497046+990519397+990769756
3452+990970418+990900804+990591883+990356882+990555484+991201859+991952624
3442+992476942+992661058+992564786+992355446+992231016+992312616+992598812
3432+993005318+993428430+993772814+993947629+993929460+993867464+993994329
3422+994353510+994731920+994954808+995143982+995554733+996183377+996693523
3412+996834997+996771128+996760264+996701826+996307371+995606615+995051331
3403+995114139+995813521+996662618+997211160+997516273+997849794+998192118
3393+998397712+998577770+998909355+999294508+999527011+999635583+999842364
3383+1000208100+1000468386+1000342707+999929271+999628841+999751523+1000344517
3373+1001243437+1002155842+1002877513+1003481496+1004096530+1004588569
3364+1004722052+1004504221+1004124750+1003736662+1003482495+1003498790
3356+1003700139+1003775558+1003595874+1003426180+1003570776+1004043461
3347+1004744154+1005671169+1006725423+1007556540+1007863589+1007705382
3339+1007354567+1006978592+1006557352+1006042212+1005529320+1005205351
3330+1005086041+1004971725+1004801718+1004793726+1004955866+1004740970
3322+1003620598+1001826193+1000126000+998979218+998210473+997351136+995982653
3312+993883384+991110394+987866154+984154412+979693216+974233456+967810158
3302+960635158+952863605+944493688+935493691+926124024+917141508+909542460
3292+904064594+900987802+900244342+901460299+904008841+907317637+911077016
3282+914977121+918425394+920816727+922080135+922760724+923434320+924073516
3272+924090810+922960824+920687490+917698978+914416342+910865179+906633052
3262+901226798+894468231+886562445+877951722+869227432+861083150+854087959
3252+848350120+843520253+839210147+835305984+831964285+829577946+828633637
3242+829241554+830889615+832902538+834960226+837001119+838890299+840388082
3233+841273391+841382338+840631324+839037205+836677026+833719794+830565584
3223+827876192+826294561+826001560+826612036+827672034+829170504+831399573
3213+834489788+838278075+842436593+846535923+850233556+853588615+856995869
3203+860674210+864393382+867783841+870726089+873306846+875599160+877683694
3193+879712601+881742568+883651664+885378579+887072466+888887162+890776342
3183+892534036+893932051+894869242+895508563+896179037+897016335+897787578
3173+898202449+898320387+898453308+898634927+898444567+897481029+895737632
3163+893381698+890457368+886964581+883005601+878782839+874590794+870769730
3153+867569818+865158506+863772854+863650359+864758494+866756308+869287930
3143+872211011+875424845+878570627+881172237+883118481+884762733+886499325
3133+888459492+890576367+892716530+894751430+896619944+898314892+899889407
3123+901522920+903354911+905192520+906694362+907875232+909060847+910334431
3114+911416281+912155433+912807490+913668450+914638231+915387747+915900640
3104+916556568+917597711+918785511+919731506+920375883+920994601+921841014
3094+922863365+923750360+924261067+924491010+924755916+925216489+925724324
3084+926081507+926348598+926772897+927470031+928298526+929048354+929666010
3074+930237403+930785133+931205124+931466284+931719702+932092681+932560621
3064+933099236+933730003+934374630+934905754+935333611+935765215+936305141
3054+937097050+938205372+939355587+940070827+940192697+940031493+939925856
3044+939919113+940005084+940405970+941308948+942425949+943170719+943331236
3034+943293526+943543011+944209303+945146182+946161666+947064456+947720384
3024+948166597+948506611+948689791+948573228+948197564+947808728+947587400
3014+947527339+947642779+948119710+949064893+950212048+951121894+951634911
3004+951906248+952029242+951862856+951304887+950596577+950191882+950297021
2995+950687168+951068388+951413334+951803544+952214046+952589959+952875593
2985+952874968+952353522+951365947+950294461+949490003+948979733+948598076
2975+948323556+948329861+948721820+949393606+950158106+950887081+951551562
2965+952217230+952947579+953707146+954419327+955028679+955444862+955614931
2955+955712827+956018690+956533954+956936589+956997587+956872220+956894321
2945+957223472+957800046+958500365+959188820+959724376+960082183+960417202
2935+960912051+961583588+962279598+962862041+963387733+964051028+964897690
2925+965704708+966217600+966408522+966444047+966494431+966616551+966752219
2915+966809971+966762646+966681482+966680358+966805475+966973110+967059455
2905+967040788+967004077+967077436+967384298+967924474+968431185+968509290
2895+968046344+967376931+966939957+966884704+967092046+967433745+967819460
2885+968105344+968184385+968117706+968018561+967913298+967831447+967856983
2876+967993088+968145052+968287276+968495617+968814528+969173459+969385546
2866+969278659+968940394+968723437+968850926+969163407+969400343+969548997
2856+969769263+970142928+970632096+971136872+971487562+971525896+971303320
2846+971084303+971056520+971127320+971086363+970878397+970645457+970547436
2836+970588205+970634468+970627476+970691533+970914608+971109526+970984471
2826+970546499+970160597+970142991+970375057+970431621+970116144+969729618
2816+969695841+970047342+970448666+970614614+970513847+970264674+970034106
2806+969986782+970147236+970324735+970284091+969980975+969562171+969198744
2796+968999456+969020746+969226402+969451226+969522213+969426440+969295579
2786+969235518+969219660+969132377+968877586+968454348+967956502+967505481
2776+967183511+967026303+967059768+967276038+967527708+967561984+967294518
2766+966946575+966775757+966773509+966720129+966420385+965876837+965370001
2757+965258307+965546189+965837442+965875651+965886015+966217101+966870469
2747+967534825+967943079+968087987+968158849+968346463+968698026+969098101
2737+969398719+969602690+969846868+970175644+970503670+970824953+971204737
2727+971532389+971564043+971260990+970911799+970881518+971274725+971810531
2717+972099287+972090296+972098350+972350769+972727556+973002764+973129130
2707+973191626+973231084+973234455+973228524+973278908+973426751+973702333
2697+974139431+974677609+975112459+975261051+975135060+974894066+974669617
2687+974506478+974430184+974473014+974582210+974608682+974486749+974371185
2677+974483003+974842059+975214226+975341965+975214663+975078121+975146548
2667+975383733+975631720+975827637+975979975+976049401+976005260+975933649
2657+975972483+976158972+976419071+976674112+976916105+977196744+977566538
2647+977981098+978254869+978198492+977865720+977598629+977701083+978086236
2638+978377052+978350580+978118452+977883889+977749906+977780436+977989589
2628+978215349+978214725+977958871+977699772+977697774+977966551+978314244
2618+978552990+978636152+978677795+978863660+979239011+979620168+979863972
2608+980110585+980565164+981187627+981745347+982019868+981934896+981654444
2598+981447414+981364065+981303504+981383107+981797167+982352265+982644579
2588+982636775+982600126+982603747+982510721+982380110+982449474+982721060
2578+982902555+982808218+982576651+982426998+982399152+982449037+982689094
2568+983358383+984449536+985478817+985867591+985565350+985058014+984781246
2558+984787489+984946383+985185379+985506225+985903490+986286334+986501230
2548+986513592+986485809+986569470+986718187+986783680+986698770+986542936
2538+986492802+986659375+986946944+987175076+987248436+987044153+986389099
2529+985467704+984913230+985083112+985542749+985644141+985305813+984917601
2519+984805907+985049086+985526953+985958682+986091728+985901243+985525704
2509+985153725+985041094+985314054+985678105+985707261+985424624+985178823
2499+985070750+984939078+984689718+984254243+983537942+982694339+982112020
2489+981983844+982156285+982361380+982405208+982269228+982133310+982139865
2479+982188376+982107150+981897810+981720436+981772693+982163902+982752527
2469+983186316+983272974+983238448+983452408+983949130+984407331+984595943
2459+984608804+984625474+984693839+984778436+984775190+984511095+983991897
2449+983540190+983427559+983531262+983631530+983827759+984294138+984811151
2439+984970107+984765949+984568409+984550678+984523270+984303503+983908548
2429+983410328+982874148+982432367+982235014+982288208+982400900+982359195
2419+982139928+981880766+981664745+981496050+981443605+981596755+981875396
2410+982065819+982083238+982107400+982394345+982918288+983285710+983145297
2400+982621166+982148793+981949318+981870901+981669740+981209292+980457716
2390+979530201+978662436+977935272+977090232+975735922+973619296+970654322
2380+966923225+962708267+958285406+953693786+948947892+944342849+940236401
2370+936638287+933205123+929565367+925725822+922241713+919794813+918655836
2360+918744617+919943780+922199508+925555316+930135261+935744050+941333235
2350+945272548+946270675+943990598+939407719+934657143+931577229+930623742
2340+931554503+933779014+936250012+938030495+938744736+938540391+938077383
2330+938244205+939454669+941394170+943457727+945231280+946780945+948622613
2320+951144870+954103850+956931407+959353083+961449730+963249192+964600444
2310+965595886+966730368+968303945+970041786+971625540+973129442+974619046
2300+975844868+976663061+977342964+978206796+979214412+980058140+980569472
2291+980945385+981515092+982321360+983056703+983394532+983222153+982620292
2281+981850048+981350330+981469703+982087921+982678605+982800226+982371120
2271+981597379+980943262+980950692+981691779+982620792+983213974+983381920
2261+983143049+982465894+981573218+980929027+980817396+981162155+981682227
2251+982088795+982224588+982070189+981609492+980846428+980059327+979799977
2241+980351703+981297511+981919662+982028609+982145672+982809217+983887945
2231+984745658+985130936+985656565+987019617+988913729+990290328+990704763
2221+990823449+991400398+992183379+992202920+991065379+989655815+989301816
2211+990312367+991680913+992246811+991796602+990974414+990613609+991402022
2201+993523267+996187123+998104024+998680911+998156281+996850044+995291013
2191+994611173+995539936+997329534+998549550+998580392+997812521+996884382
2181+996000697+994738101+992670236+990383229+989405581+990654628+993181880
2172+995017367+995221899+994717935+995096907+996851917+998741097+998867587
2162+996618727+993548303+991920283+992318672+993571716+994562662+994907983
2152+994608364+994046523+994064692+995284083+997126687+998057136+997197300
2142+995290701+993762700+993315238+993713128+994397775+995002258+995518834
2132+996058011+996446410+996283771+995441791+994299817+993432551+993200173
2122+993644576+994543620+995471259+996101090+996562037+997116511+997477377
2112+997140235+996399585+996091413+996359128+996643513+996744344+996949438
2102+997321168+997632712+997881885+998413632+999515711+1000955618+1002066125
2092+1002483244+1002479374+1002253489+1001416628+999736788+997928398+997001383
2082+997079238+997484744+997810086+998263354+998999634+999753708+1000220712
2072+1000342145+1000122628+999443225+998165458+996444288+994976223+994720245
2062+996125938+998653565+1001086791+1002354943+1002168704+1000914100+999227954
2053+997947003+997907358+998978781+999607239+998422810+996097718+994406329
2043+994152161+995085981+997010686+999793228+1002562348+1003847607+1002805777
2033+1000041090+997141796+995482809+995378233+996236571+997336589+998151910
2023+998276528+997883820+997937825+999040341+1000457023+1001003942+1000401082
2013+999223646+998164335+997657810+997742033+998162149+998683970+999275216
2003+1000144418+1001585012+1003565344+1005609921+1007195923+1008001380
1994+1007860342+1006926959+1005924837+1005787483+1006760012+1008017113
1986+1008398458+1007730106+1007111138+1007473253+1008388219+1008746713
1977+1008001817+1006363433+1004454524+1003062067+1002520892+1002298566
1969+1001816391+1001308493+1001208474+1001313051+1001325600+1001321854
1960+1001158777+1000506408+999775560+999836245+1000795538+1002024420+1003095531
1951+1003928708+1004429676+1004579704+1004539996+1004424868+1004267286
1942+1004188182+1004269284+1004254237+1003689650+1002534440+1001574960
1934+1001829689+1003339959+1005001193+1005791728+1005730418+1005515022
1925+1005701074+1006372798+1007249679+1008002941+1008546675+1008970787
1917+1009247430+1009216151+1008864338+1008411506+1008101711+1008044834
1908+1008254236+1008654810+1008998507+1009002316+1008672479+1008383286
1900+1008499600+1008929393+1009210657+1009129181+1009030286+1009264163
1891+1009623843+1009651563+1009311113+1009035843+1009150471+1009596684
1883+1010106143+1010446906+1010507154+1010276087+1009887063+1009567153
1874+1009395585+1009225766+1008948998+1008731291+1008923212+1009629212
1866+1010490921+1011044333+1011121688+1010934450+1010764943+1010613479
1857+1010386158+1010263913+1010528257+1011122812+1011674601+1011903045
1849+1011795909+1011463450+1011052949+1010825878+1011022669+1011554166
1840+1012154903+1012605674+1012736347+1012520389+1012106642+1011603239
1832+1011057257+1010708003+1010841674+1011303620+1011723736+1011989766
1823+1012187618+1012436666+1012897676+1013629773+1014361308+1014684340
1815+1014486924+1013975218+1013437290+1013127931+1013182935+1013525571
1806+1013907540+1014063562+1013915532+1013657868+1013571210+1013733038
1798+1014005998+1014173445+1013997944+1013451213+1013069743+1013460141
1789+1014329716+1015010743+1015291007+1015365178+1015401203+1015384720
1781+1015354377+1015391276+1015365803+1015054009+1014419871+1013663175
1772+1013169949+1013210656+1013598868+1014009057+1014285014+1014319977
1764+1014006934+1013489235+1013214652+1013374169+1013712685+1013977840
1755+1014059941+1013850663+1013283141+1012604050+1012429174+1012993949
1747+1013782548+1014316980+1014629398+1014966540+1015400766+1015793223
1738+1015906478+1015497288+1014564592+1013853660+1014339331+1015675037
1730+1017028473+1017998068+1018460639+1018538930+1018479056+1018326344
1721+1017809081+1016630396+1014943814+1013699261+1013601927+1014027350
1713+1014214589+1013943065+1013296065+1012404013+1011287512+1009968102
1704+1008607111+1007170450+1005311863+1003124813+1001535252+1001110766
1696+1001916909+1003666674+1005582326+1007235319+1008713560+1010039838
1687+1010958986+1011411568+1012103832+1013864773+1016082479+1017844106
1679+1018871639+1019288571+1019535621+1020046640+1020679967+1021023040
1670+1021160020+1021672288+1022626898+1023416746+1023735470+1023909972
1662+1024495849+1025432229+1026118500+1026144410+1025425361+1024166137
1653+1023349817+1023747520+1024209029+1024037524+1023682589+1024145160
1645+1025466443+1026657427+1027176625+1026953612+1026090467+1024930138
1636+1024353251+1025156397+1026532060+1027341200+1027334333+1026775364
1628+1026068241+1025300120+1024242494+1022941564+1021726355+1020503093
1619+1018767687+1016244431+1013429673+1011059879+1008706568+1005262166
1611+999751023+991299755+978985156+961942019+939873599+914126213+888798257
1601+869709482+860890729+862482912+871767794+884968327+898592847+910557256
1591+920459482+928815227+936280792+943300956+949958880+956106222+961634658
1581+966502173+970784559+975023928+980091230+985631592+989992520+992814271
1571+994958304+997303624+999940010+1002322353+1004205039+1005486802+1005837180
1561+1004951559+1003331843+1003147913+1004737474+1005977780+1006149036
1553+1005414879+1004193240+1002892185+1001684219+1000484057+999094034+997430614
1543+995693960+994379732+994175824+994750588+994687342+993059260+989555921
1533+984684224+979247439+972758773+963592578+950615994+934934848+917988733
1523+898085699+874019464+850056182+828828306+807565716+785390846+764431934
1513+745016007+726148372+707795565+689439012+670268761+655161192+647761869
1503+644199030+642086962+641901972+645185170+653057553+663936678+674084518
1493+682103495+689623753+698814984+709763473+720377068+729487510+737424762
1483+744939338+752641402+760517531+768274974+776108711+784579084+794453027
1473+806588380+819738529+830510206+837749387+842246295+844453262+844983636
1463+845493531+846990565+848980388+850044944+846561771+834665539+818233066
1453+803997446+796299003+798485492+811620906+832342508+854022966+871979694
1443+885841961+896634366+904678379+910312704+914611760+918555193+921925362
1434+924247144+925853811+927326746+928865236+930109913+930629049+930463787
1424+930052786+929706904+929470218+929629861+930645219+932234530+933746049
1414+935014950+936226537+937544324+938822653+939588090+939213300+936952016
1404+932332239+925925548+919402543+915132082+915025008+918879848+924925673
1394+931319253+936657017+940458165+943143374+945489880+948086557+950866665
1384+953366758+955339349+956836321+958005328+958911677+959534391+959954194
1374+960377245+960773386+960703773+959605003+956985912+952649645+947128326
1364+942093677+940159295+942702280+947995904+953419702+957748164+960865975
1354+962990592+964401405+965391291+966168340+966734863+966938334+966712699
1344+966190566+965541881+964872592+964345153+964132878+964055835+963482944
1334+961591329+957479762+950193381+938921798+923445059+904802560+885837466
1324+870784090+863265893+863811126+869218004+874460994+875658784+871759241
1315+863832728+853565203+842364170+830939811+819387527+807686962+796010747
1305+784644265+773827448+763645332+753913800+744224161+734236650+723868045
1295+713092060+701715214+689527105+676515559+662775849+648398130+633593364
1285+618795966+604513770+591099277+578712130+567543438+557942329+550084680
1275+543591956+537798863+532498871+528286410+526043544+526129078+528158484
1265+531442618+535424012+539770018+544348277+549214230+554479634+560153105
1255+566161094+572457527+579009564+585707320+592406076+599101148+605968537
1245+613151340+620564961+627980892+635249979+642366415+649360919+656237423
1235+663014720+669726212+676359912+682878921+689277745+695521297+701513366
1225+707244713+712836769+718294406+723380813+727857930+731640472+734561742
1215+736129888+735616933+732394171+726395859+718556128+710786761+705261633
1205+703460547+705689803+711307332+719252513+728445680+738003959+747369630
1196+756345965+764981225+773335346+781344209+788928898+796120505+802951994
1186+809353816+815348382+821201848+827170318+833190607+838948113+844103134
1176+848341442+851360046+852965652+853174118+852142777+849888735+845943178
1166+839277575+828609850+812760695+790958554+763429749+732096925+700477030
1156+672474104+651057678+637784410+632934315+635613155+643898600+655448949
1146+668325264+681364218+694004160+706008651+717357028+728180025+738614061
1136+748665815+758254499+767398281+776297073+785185814+794105147+802765068
1126+810483927+816012801+817285136+811886998+798980840+781371056+764944639
1116+755156979+753875466+759367254+768528268+778814523+788847922+798151909
1106+806644258+814304929+821137167+827212710+832652741+837608661+842255410
1096+846739082+851113808+855321648+859290555+863136093+867193968+871681511
1086+876381890+880853263+884905207+888705293+892481093+896284301+900033878
1077+903696423+907389935+911259635+915258260+919208999+923133952+927290472
1067+931780013+936331301+940530775+943991597+946137317+946014197+942438872
1057+934138943+919729445+898375141+871704424+845231185+826601422+821129051
1047+828682835+844714297+863771605+882140520+898402424+912662519+925489698
1037+937297149+948249509+958228591+966804601+973561108+978537069+982131000
1027+984582644+985810901+985851296+985303566+985232766+986583330+989529637
1017+993237009+996346829+997906484+997795726+996118509+992344083+985173953
1007+972951194+954072570+927543516+893873425+855636376+816822378+781049273
997+749915487+722900261+698701792+676426092+655651733+636130044+617998689
987+602146349+590008874+582836372+580980781+583671234+589412445+596717868
977+604674100+613000938+621660609+630448145+638972460+646956412+654411801
967+661469675+668162874+674454999+680377580+686040748+691595657+697212000
958+702929736+708536590+713805927+718825592+723891895+729153740+734510609
948+739754536+744731559+749457349+754053714+758523651+762718005+766572971
938+770248502+773989901+777910733+781905987+785769943+789379607+792715062
928+795794914+798706257+801569589+804366554+806944501+809252798+811427549
918+813652185+816038586+818598802+821278579+824038022+826847785+829614969
908+832237869+834733092+837174872+839533178+841714360+843769426+845914771
898+848297176+850840224+853278757+854914394+854240360+849687511+841636880
888+833338699+828851281+829831364+834605228+840045883+843500837+842871568
878+836606414+825681650+815100708+810955301+815119188+824078229+833107757
868+840148275+845592926+850222131+854307226+857827298+860750316+863194094
858+865438771+867722906+870092824+872478227+874786836+876933617+878917695
849+880857446+882824293+884681944+886200393+887320889+888234606+889191963
839+890253460+891254896+892042247+892656531+893202826+893686000+894104992
829+894530227+894941103+895200390+895355475+895798192+896984931+899058227
819+901727391+904388750+906225485+906180096+903009278+895644668+883814616
809+868757993+853526868+842039764+837091024+838976832+845804388+854952104
799+864479915+873456937+881184911+886115670+884238228+867666653+828832988
789+771993710+718703659+693766787+703955084+734750042+766755027+789962238
779+803852225+811565090+816689582+821962602+828285383+834656299+838794276
769+838531618+834250668+829886868+830026345+835841477+844680333+853235553
759+860067979+865311219+869288617+872007914+873273444+872678826+869909145
749+865611712+861661847+859995868+861222502+864578935+868917074+873385950
739+877523177+881222121+884543466+887429399+889831409+892022080+894355163
730+896839523+899342488+901977125+904885784+907848760+910277491+911146130
720+908729324+901260449+888882854+874989058+864934619+862524119+867393006
710+875968330+884595349+891582672+896950343+901144448+904399426+906883099
700+908788199+910253454+911447498+912628555+913944906+915269123+916329809
690+917000408+917420899+917814606+918332742+919129583+920235283+921339672
680+922223545+923260443+924864301+926739245+928058718+927884029+925507679
670+921589032+920073080+924967191+932232407+936642720+937924732+937699160
660+937268243+937123334+937425763+938309449+939609255+940878281+941831018
650+942542512+943306325+944443055+946025498+947697159+949032365+950050158
640+951102977+952366821+953703213+954925664+955982478+956893073+957692785
630+958498804+959359576+959918982+959673430+958800421+958187073+958396475
620+959109342+959732305+960296581+961538011+963796111+966144615+967412830
611+967797608+968423818+969539757+970349584+970469456+970305443+969771698
601+967421258+961027803+948417456+927913685+900015960+870247660+848664786
591+843233933+853412365+872226245+892805186+911010150+924852813+933871603
581+937890956+935052660+921893396+897577676+868932245+848107066+842899663
571+851660602+867121857+882677762+895419595+905192708+912655713+918556442
561+923754168+928877910+933857305+938213238+941733497+944558370+947002647
551+949627982+952904749+956461656+959149924+960118083+959660132+958983414
541+959210235+960613931+962800794+965380240+968138246+970768513+972900560
531+974470454+975902744+977691718+979633654+980875334+981204922+981476446
521+982270414+983344210+984622851+986492240+988642517+990060073+990610925
511+991348079+992959866+994749526+995667051+995863904+996497981+998259733
501+1000686092+1002893433+1004520329+1005579891+1005860468+1004821509
493+1001879573+996682035+988879952+977159908+959051092+933709837+906420590
483+888137896+886704732+899952714+919347414+937277733+950309882+958795676
473+965481695+973154852+981535008+987896123+991084546+992979283+995824259
463+999587634+1002788420+1004603990+1005095468+1004416502+1003254550+1003309616
453+1006221334+1012112510+1018887123+1023593246+1024746833+1023140977
445+1020801463+1019261350+1018819507+1018981522+1019279144+1019802899
436+1021133173+1023659738+1027008491+1030388274+1033175125+1035071797
428+1035842915+1034974463+1032286132+1029171880+1027850034+1029320784
419+1033167820+1037873819+1041275141+1042245984+1041420799+1040918520
411+1042570827+1045597422+1047213205+1045810321+1042971713+1041778856
402+1043335576+1046075727+1048192227+1049980077+1053514945+1059348620
394+1065288682+1068521496+1068281127+1066751253+1066254905+1066623888
385+1067024712+1068554336+1071652419+1073741823+1072248785+1066700057
377+1059671152+1058516879+1067429906
##END=
