##TITLE=NiW-a515.2
##JCAMP-DX=4.24
##DATA TYPE=INFRARED SPECTRUM
##DATE=9/4/2018
##SAMPLING PROCEDURE=Diamant ATR
##ORIGIN=Lara
##XUNITS=1/CM
##YUNITS=TRANSMITTANCE
##RESOLUTION=4
##FIRSTX=3997.453
##LASTX=373.96442
##DELTAX=-1.4165319
##MAXY=0.96386945
##MINY=0.61765712
##XFACTOR=1
##YFACTOR=8.9767338e-010
##NPOINTS=2559
##FIRSTY=0.89156044
##XYDATA=(X++(Y..Y))
3997+993190234+993298929+993427079+993755755+994100299+994157270+993920291
3988+993615852+993366324+993162678+993033798+993030544+993160022+993435180
3978+993845460+994257997+994505599+994575251+994580431+994576911+994497365
3968+994286814+994085293+994209061+994818206+995629071+996105085+995966311
3958+995384191+994761302+994473860+994643775+995004654+995146615+994973778
3948+994748354+994679100+994806719+995166800+995603175+995653572+995106178
3938+994338008+993859802+993910066+994506329+995387179+995878200+995510681
3928+994683615+994168624+994258595+994629699+994857647+994807980+994587137
3918+994455335+994653802+995051067+995255775+995142100+994920726+994746096
3908+994546169+994292126+994254743+994826904+995973150+997033543+997350797
3898+996860109+995917110+994823982+993895591+993783443+994941973+996529309
3888+997258171+996965617+996331772+995752174+995127625+994667413+994656989
3878+994618278+994074802+993489627+993463665+993749978+993931380+994407860
3869+995453312+996367162+996599028+996336619+995895264+995335653+994763028
3859+994428443+994420940+994671065+995406767+997004593+998609524+999085871
3849+998553550+997690229+997073781+996900081+996922125+996749023+996420082
3839+996603078+997730666+998981823+999259305+998592991+997827144+997529610
3829+997582065+997678410+997634720+997320188+996883348+996939522+997686245
3819+998105157+997612542+997041511+997333600+998148980+998591131+998308803
3809+997531469+996920598+996995496+997397144+997602516+997746602+997949518
3799+997766588+997186061+996894902+997237189+997729538+997890024+997776150
3789+997635317+997602450+997741556+998028466+998302296+998520815+998907656
3779+999502525+999776553+999254126+998198780+997280879+996995297+997373373
3769+997935441+998143934+998029860+997902706+997742419+997400929+997098415
3759+997244625+997807158+998239283+998113590+997462680+996855793+997136395
3750+998041414+998184570+997412947+997144363+998537016+1000310269+1000746311
3740+999994608+998935742+998210997+998107348+998725656+999832262+1000798766
3730+1001176311+1001009783+1000597976+1000165785+999756501+999412886+999248880
3720+999199811+999057319+998874855+998967747+999513547+1000409137+1001337395
3710+1001814672+1001522848+1000575467+999350139+998326199+998000246+998522541
3700+999300672+999600131+999279955+998596377+997835378+997294358+997324503
3690+998071625+999020800+999401930+999212427+999003270+999179427+999716529
3680+1000201972+1000327201+1000421022+1001007923+1001445759+1000727653
3672+999541501+999343499+1000248252+1000819549+1000581974+1000320627+1000564577
3662+1001033221+1001213229+1001058254+1000916758+1000889534+1000521484
3653+999469259+998060205+997239181+997946596+999630874+1000839204+1001229032
3643+1001216549+1001093379+1000916293+1000745647+1000674667+1000678451
3635+1000627125+1000398048+999981195+999674432+1000039626+1000912707+1001177175
3625+1000445656+999201007+998134107+997948787+998907456+1000148853+1000478258
3615+999761813+998718817+998096060+998172353+998787473+999674631+1000627988
3605+1001407712+1001740172+1001646417+1001589513+1001853515+1001968850
3597+1001402599+1000502162+1000147060+1000622411+1001438720+1002046936
3588+1002223225+1002041292+1001639976+1001019676+1000260071+999705174+999655574
3578+999989694+1000348249+1000544989+1000566038+1000382644+999985445+999507040
3568+999228097+999392169+999819447+1000009348+999803976+999547610+999622574
3558+999971767+1000235437+1000252302+1000165851+1000205026+1000501498
3550+1000942122+1001219604+1001173855+1000983754+1000848765+1000685490
3541+1000376402+1000040357+999925221+1000158149+1000582372+1000852948
3533+1000768621+1000434103+1000112267+1000011805+1000118309+1000158680
3524+999854971+999207381+998480046+998051639+998247052+999025248+999872301
3514+1000312327+1000371555+1000371290+1000541869+1000864302+1001024058
3506+1000700496+1000084645+999815198+1000170764+1000691333+1000836880
3497+1000585094+1000268039+1000122028+1000100116+1000065522+1000043079
3489+1000186567+1000529585+1000879840+1000985813+1000751092+1000332911
3480+1000091882+1000342937+1001035745+1001734462+1002002315+1001785921
3472+1001347156+1000929639+1000676791+1000719951+1001109182+1001646151
3463+1001921906+1001636789+1000933822+1000313058+1000125414+1000292540
3455+1000571748+1000879707+1001245632+1001638117+1001954973+1002044280
3446+1001783398+1001328830+1001132754+1001415481+1001784261+1001751659
3438+1001496687+1001568862+1001908693+1001809426+1001011841+1000211666
3429+1000106557+1000451632+1000592863+1000551496+1000874727+1001565211
3421+1001910220+1001472584+1000654216+1000099983+1000019441+1000176674
3412+1000248982+1000166714+1000164921+1000460663+1000963171+1001382480
3404+1001495359+1001269403+1000895045+1000690802+1000843652+1001256057
3395+1001662352+1001777223+1001425640+1000775726+1000337094+1000463916
3387+1000969611+1001412094+1001592036+1001584931+1001468401+1001237067
3378+1000880371+1000387026+999757895+999147024+998871999+999063096+999355318
3369+999224379+998658460+998177001+998131053+998316505+998363914+998172021
3359+997849321+997458430+996969601+996422340+996010400+995884640+995907083
3349+995775281+995366595+994803863+994247639+993811331+993599319+993584047
3339+993435114+992682481+991178343+989309211+987638412+986421450+985535222
3329+984687572+983558457+981952264+979998406+978047005+976244935+974368897
3319+972173944+969706290+967135917+964466344+961592528+958489767+955148767
3309+951444299+947237455+942539657+937518562+932392557+927202675+921591559
3299+915058027+907592319+899811348+892328442+885273811+878532118+872149112
3289+866332092+861270494+857144059+854208425+852696851+852611197+853651736
3279+855378974+857511644+860079693+863155562+866450017+869411082+871754702
3269+873641696+875308644+876747378+877819191+878594201+879458384+880791278
3259+882604902+884618983+886546282+888193443+889556349+890961817+892817139
3250+895123842+897520316+899751058+901827023+903849139+905935928+908258699
3240+910983317+914114496+917370705+920347241+922946165+925480085+928199259
3230+930931712+933331107+935300967+937060276+938870446+940757507+942516417
3220+943970689+945162020+946272345+947443823+948693984+949931994+951026051
3210+951873369+952487029+953030771+953624577+954076489+954045813+953550410
3200+953059455+952995712+953324387+953659503+953662491+953351146+953095709
3190+953282025+953946148+954775405+955448094+955885730+956180409+956452379
3180+956863456+957548627+958372706+958948983+959044000+958809412+958552780
3170+958426688+958390036+958403980+958583257+959081449+959890787+960914859
3160+962138992+963548975+965022104+966433349+967729591+968882278+969909339
3150+970828368+971527682+971945531+972321084+972883218+973448009+973796471
3140+974201505+975036805+976090093+976776327+976899630+976823072+976966958
3131+977389256+977806176+977866864+977458178+976822208+976326473+976085976
3121+975903312+975616867+975349544+975274712+975235471+974846837+974013264
3111+973103464+972473072+971980391+971178423+969896922+968400553+966990039
3101+965676799+964331222+963004901+961950153+961308937+960917050+960586250
3091+960466002+960868579+961809055+963034715+964415682+965958397+967569569
3081+969188046+971020261+973226302+975453127+977014500+977526304+977211506
3071+976653953+976369566+976510332+976829047+976955073+976795317+976641470
3061+976857333+977516344+978331658+978889675+978994254+978808004+978636628
3051+978645924+978819956+979023403+979024399+978639284+977905841+976980105
3041+975913006+974674930+973291041+971812733+970257801+968682749+967222502
3031+965999896+965033458+964264558+963691667+963488950+963933027+965099393
3021+966669464+968212777+969662865+971266800+973052071+974684890+975963470
3012+977112571+978405427+979733806+980724015+981173802+981246044+981220547
3002+981198967+981203947+981403675+981941707+982657488+983245053+983565694
2992+983593383+983231375+982378214+980987951+978923671+976021502+972499498
2982+969030016+966077118+963339221+960224973+956781918+953756379+951777091
2972+950779910+950159411+949183412+947290906+944251291+940193049+935544851
2962+930922947+926951754+924059013+922357073+921669312+921726548+922405478
2952+923727881+925597811+927611760+929200888+929972445+929896949+929101489
2942+927513689+924848166+920949480+915979579+910247085+904022507+897529014
2932+890955244+884420650+877970050+871649924+865586763+859979829+855090868
2922+851304729+849063695+848597109+849865397+852860658+857680165+864103608
2912+871320253+878313864+884473835+889748707+894274067+898036568+900970343
2902+903182626+904879320+906217925+907470941+909159535+911725326+915112540
2893+918834073+922411852+925694554+928795057+931796028+934600059+937069107
2883+939124489+940612890+941267518+940928484+939696782+937886413+935981956
2873+934567391+934025641+934210363+934498070+934236458+933141339+931274795
2863+928756081+925601264+921785245+917354703+912483736+907421208+902358614
2853+897529147+893671429+892192059+894403744+900449111+909065514+918404073
2843+927053543+934459160+940668731+945913591+950444130+954497791+958174770
2833+961375602+964002149+966157395+968026328+969653702+970991975+972117040
2823+973232212+974425270+975543230+976403430+977076052+977802922+978634504
2813+979346036+979782543+980078483+980425485+980813587+981130842+981389267
2803+981724117+982196679+982669174+982960600+983115708+983362048+983770867
2793+984151334+984388046+984676085+985245125+985944705+986313685+986103266
2783+985574730+985176933+985073417+985121424+985157877+985113854+984937565
2774+984605171+984240773+984088852+984247081+984509822+984662739+984855827
2764+985386887+986160768+986753445+987020834+987255488+987691332+988180693
2754+988457842+988481547+988422850+988434071+988504122+988550203+988596483
2744+988742229+988930072+988928877+988636987+988212365+987808194+987414913
2734+987076211+986988498+987223750+987589741+987906265+988232550+988699734
2724+989276941+989808863+990201746+990501073+990805513+991165595+991573285
2714+992003551+992430364+992861293+993356896+993910265+994336149+994448629
2704+994321873+994209393+994243987+994372734+994533487+994755458+995073576
2694+995413473+995621634+995633519+995540959+995432131+995321577+995323436
2684+995635976+996183104+996547170+996444251+996021024+995550653+995128090
2674+994769734+994533487+994427381+994402016+994464764+994647693+994906184
2664+995164941+995384324+995520442+995550321+995588102+995821362+996275266
2655+996744043+997000343+997030090+997060435+997370120+998012729+998691527
2645+998999950+998856661+998598834+998571013+998756266+998892583+998821602
2635+998644051+998607598+998848162+999250208+999648005+1000055363+1000488550
2625+1000735023+1000605811+1000256353+1000000185+999968911+1000122028
2616+1000378925+1000640670+1000874727+1001197559+1001708632+1002280594
2608+1002700833+1002938409+1003080768+1003104938+1002933628+1002667966
2599+1002554224+1002738813+1003175453+1003701666+1004073036+1004049597
2591+1003678692+1003437066+1003787586+1004548984+1005047441+1005007668
2582+1004849041+1004898575+1004897313+1004654492+1004563060+1004938215
2574+1005365958+1005264633+1004724742+1004336507+1004474484+1005100893
2565+1006020187+1006987223+1007708250+1007972518+1007783347+1007328912
2557+1006874411+1006639093+1006697325+1006976134+1007328514+1007592384
2548+1007676246+1007633086+1007612237+1007733880+1008018400+1008362812
2540+1008618647+1008759878+1008849184+1008777075+1008305310+1007489133
2531+1006789022+1006648986+1007159727+1008085596+1008984307+1009449365
2523+1009461649+1009313314+1009127728+1008804033+1008445611+1008376025
2514+1008733053+1009419751+1010317732+1011210733+1011741194+1011734156
2506+1011381644+1011006223+1010806628+1010750786+1010614536+1010300601
2497+1010102732+1010377026+1011041083+1011664371+1011933420+1011857526
2489+1011659524+1011550032+1011525663+1011463115+1011410859+1011533498
2480+1011738140+1011704343+1011342070+1010910542+1010686247+1010815193
2472+1011370754+1012163094+1012636253+1012413949+1011795110+1011327595
2463+1011161664+1011188356+1011433236+1011879836+1012186666+1011965225
2455+1011257278+1010555308+1010386256+1010888697+1011757263+1012552059
2446+1013010412+1013155228+1013260139+1013620685+1014178305+1014523247
2438+1014401206+1014030102+1013793456+1013821011+1013944580+1013907264
2429+1013612054+1013233778+1012996136+1012830803+1012482075+1011970205
2421+1011645912+1011695512+1011902942+1012018543+1012072326+1012181088
2412+1012315612+1012447481+1012725958+1013275742+1013919614+1014313360
2404+1014338459+1014214160+1014201876+1014297557+1014254863+1013907330
2395+1013424144+1013183249+1013398116+1013946705+1014530153+1014887579
2387+1014907698+1014690507+1014512292+1014612554+1014953314+1015207822
2378+1015044613+1014488122+1013982162+1014043913+1014826890+1015961849
2370+1016732609+1016489920+1015153706+1013403428+1012240781+1012191645
2361+1012923164+1013714773+1014209977+1014541640+1014925825+1015444335
2353+1016042657+1016513824+1016662425+1016504727+1016202745+1015879647
2344+1015556682+1015306424+1015373753+1015935223+1016768132+1017348925
2336+1017339894+1016919921+1016622918+1016813085+1017227348+1017211080
2327+1016599877+1016017757+1016065166+1016557581+1016834598+1016602533
2319+1016102416+1015677130+1015570095+1015910456+1016596358+1017323693
2310+1017822283+1017997444+1017909930+1017744265+1017686099+1017747518
2302+1017812788+1017828193+1017798048+1017661465+1017379203+1017084258
2293+1016989308+1017173764+1017509677+1017745858+1017718635+1017547325
2285+1017494206+1017586368+1017582981+1017369907+1017148400+1017184056
2276+1017593008+1018353808+1019307630+1020169954+1020755859+1021153589
2268+1021573098+1022113587+1022643052+1022790193+1022297180+1021501255
2259+1021040047+1020983873+1020819204+1020272142+1019568976+1019061090
2251+1019047744+1019580995+1020232701+1020577578+1020819071+1021321712
2242+1021834511+1021817912+1021284727+1020846560+1020960036+1021410421
2234+1021782056+1022221883+1023143967+1024402494+1025583866+1026759593
2225+1027967525+1028425213+1027341315+1025197291+1023375766+1022646704
2217+1022598499+1022544981+1022443391+1022632229+1023129824+1023646807
2208+1023944938+1023841887+1023240046+1022507598+1022561846+1024140151
2200+1026776459+1028844722+1029268215+1028957003+1029494636+1030602105
2191+1030393413+1028250384+1025853778+1024929902+1025356449+1026058021
2183+1026491540+1026395461+1025429820+1024184440+1024181452+1025706704
2174+1026899762+1026270166+1024898163+1024783957+1026010081+1026742396
2166+1025743622+1023905564+1022924584+1023213287+1023795673+1023949918
2157+1024203031+1025257182+1026685094+1027365617+1026721281+1025169337
2149+1023678944+1023182080+1023981790+1025334338+1026095072+1026038765
2140+1026018713+1026819153+1028352373+1029830283+1030328873+1029448090
2132+1027696085+1026031196+1025042116+1024719284+1024783824+1024972198
2123+1025133879+1025226838+1025232416+1025165153+1025194967+1025515209
2115+1025942487+1025962473+1025458040+1025161302+1025947865+1027663151
2106+1029025660+1028919156+1027513422+1025873697+1024855402+1024744383
2098+1025494028+1026731108+1027774967+1028138967+1027943023+1027601931
2089+1027301011+1026979573+1026695585+1026699104+1027011644+1027201147
2081+1026938871+1026615707+1026922271+1027916663+1028976856+1029631684
2072+1029953188+1030125161+1030103847+1029893893+1029855315+1030367982
2064+1031256999+1031948279+1032162084+1031961626+1031298830+1030173964
2055+1029030241+1028273691+1027748939+1027380092+1027735194+1029099562
2047+1030537566+1030799178+1029693634+1027999396+1026679848+1026467371
2038+1027635795+1029901994+1032625218+1035007216+1036149479+1035325600
2030+1032697061+1029892831+1029254139+1031659444+1035289811+1037564177
2021+1038276638+1039246795+1040786323+1041002186+1039393205+1038036473
2013+1037963965+1037728581+1036596212+1035995832+1036695279+1037348380
2004+1036976545+1036485923+1036959813+1038072993+1038626628+1037883755
1996+1036230353+1034942743+1035348906+1037562517+1039951953+1040790041
1987+1040212104+1039564448+1039436231+1039505618+1039912843+1041422890
1979+1043971949+1045781721+1044886065+1041732708+1039019046+1038514214
1970+1039216849+1039111606+1037704943+1036150674+1035546642+1035970135
1962+1036859152+1037644984+1038045503+1037988732+1037471949+1036606902
1953+1035640464+1034797794+1034234199+1034038587+1034032678+1033846495
1945+1033510848+1033545043+1034096288+1034636112+1034905892+1035278125
1936+1035979232+1036668122+1036828675+1036287987+1035480841+1035189947
1928+1035698962+1036381012+1036434397+1035753276+1034916582+1034534389
1919+1034762138+1035321749+1035857323+1036250738+1036479681+1036402526
1911+1035980162+1035501225+1035253026+1035029195+1034294091+1032824879
1902+1030875205+1028662656+1026215719+1023951910+1022746170+1022951742
1894+1023806895+1024336626+1024445985+1024785683+1025870577+1027542504
1885+1029284616+1030723948+1031788258+1032603837+1033348037+1034178291
1877+1035077865+1035689334+1035622536+1035039420+1034623098+1034971095
1868+1036105523+1037434832+1038275709+1038422318+1038239389+1038239787
1860+1038458970+1038468665+1038077309+1037631373+1037548108+1037852747
1851+1038265417+1038567134+1038748271+1038879608+1039007825+1039156758
1843+1039292544+1039363591+1039444797+1039708600+1040247030+1040929811
1834+1041443009+1041521692+1041182127+1040801528+1040827424+1041266919
1826+1041750171+1042025462+1042210316+1042553732+1043079347+1043591416
1817+1043836495+1043602439+1042893695+1042068156+1041614717+1041724408
1809+1042217952+1042858172+1043450982+1043744400+1043559810+1043039906
1800+1042593970+1042454333+1042457321+1042392515+1042284551+1042226651
1792+1042091993+1041647717+1040962347+1040338129+1039983558+1039822939
1783+1039556745+1039016789+1038322321+1037632037+1036931925+1036184737
1775+1035598500+1035649893+1036584924+1037838670+1038727953+1039271827
1766+1039768094+1040298954+1040793826+1041216522+1041590149+1041916102
1758+1042118354+1042102816+1041865241+1041445798+1040769325+1039606279
1749+1037809455+1035672336+1033716220+1032144090+1030783176+1029471064
1741+1028294473+1027388791+1026713247+1026168044+1025809091+1025879740
1732+1026435699+1027091788+1027479691+1027427368+1026928513+1026154034
1724+1025394296+1024838869+1024326799+1023388116+1021485385+1018603999
1715+1015654621+1013339618+1011611982+1010344956+1009556135+1009253223
1707+1009381107+1009764827+1010078695+1010232808+1010674892+1011907590
1698+1013621881+1015261472+1016585469+1017302246+1017481125+1017522691
1690+1017576009+1017498522+1017091164+1016027783+1013971007+1011298246
1681+1008483923+1005309850+1001411563+996069163+988190984+977793693+965930244
1672+951743360+932950973+910962534+890822247+873273181+854466651+831147975
1662+804396335+778075360+754495204+734735914+720161924+714241786+722910512
1652+740750272+756310023+771032016+790011383+812152805+830510345+843456695
1642+853771520+862908823+870989785+878623748+886925088+895023181+901029305
1632+905795561+911341407+918727237+927412496+936068341+944324729+952549444
1622+960119531+966052484+970969532+976479656+982833910+988195898+991655885
1612+993877995+995595871+997305978+999165881+1000888339+1001991957+1001998066
1602+1000667429+998258871+995197211+991609339+987329656+981802667+973817453
1592+961633894+943296805+917349590+884469254+848850488+817759871+799137067
1582+797610088+811170896+833865355+862702455+897473770+931350955+954998838
1572+969769037+981751540+994076196+1005618938+1014649605+1021429079+1026505019
1562+1029953586+1032276423+1034717584+1037538812+1039252306+1039983094
1554+1040305395+1039962643+1038579086+1036042112+1032444612+1027830676
1545+1021770436+1013760987+1003728292+990466280+973109905+956603238+943646529
1536+930113609+910918844+885384431+858207174+831478575+802768762+771465934
1526+742000168+718727838+701903119+691361277+688064432+691818833+701519599
1516+714917131+728971217+742367487+755039543+766850935+779234820+795556101
1506+813498315+826212402+834372976+841241624+848508002+857038551+867211414
1496+877839111+886709889+892927229+896120358+892842305+875937376+844164642
1486+808318593+782073777+773298149+781329709+798488747+816478702+831671664
1476+843902698+853722185+861846373+868488069+872932355+875181290+876175948
1466+876851359+877832338+879310713+881096249+883154088+886012832+890414158
1456+895593681+899675827+902416182+904225888+905057203+904771156+903856908
1446+903520796+904799310+907960103+912573308+917818102+923336393+929529364
1436+935435093+936527955+927678491+906394812+875969779+849303396+839781575
1426+847769578+864015164+878810529+886686649+886613942+880188309+872417829
1417+869507493+873362886+882608553+894782816+906803564+916463561+923915923
1407+930937422+938570057+945536710+949177502+946497637+933685877+907348966
1397+866972511+816807576+768693509+736665138+725244239+730899444+748879108
1387+772969739+795521972+812429954+823871039+830873879+834192769+835042477
1377+835134506+836113759+839090162+844088681+850309540+857155945+864223591
1367+870843375+876606811+881848550+886987968+891754224+895540363+898160269
1357+899866658+901060114+902123229+903367282+905003354+907078124+909504279
1347+912169669+914916929+917505362+919820497+922046591+924456079+927041791
1337+929530758+931764156+933778172+935522939+936752317+937287161+937284506
1327+937144935+937216247+937624734+938308445+939143878+940037941+940928086
1317+941796718+942725242+943789619+944788061+945141835+944111256+940901460
1307+934367928+922840193+905041998+882298669+859952340+844868538+839895649
1298+841505693+844201825+846440270+850831769+859503350+871146819+882187783
1288+889102910+889310606+881193125+864893092+843814653+824525269+813596519
1278+813779316+823173052+837593329+853317815+868234159+881635608+893565656
1268+904198199+913488088+921141506+926709463+929523587+928485571+922139417
1258+909406672+890755516+868981878+848623669+833859512+826360140+824899626
1248+826868358+830167394+834010304+838519662+843975073+850346591+857217032
1238+864011645+870330443+876075619+881268223+885795043+889408479+892051558
1228+894118029+896202760+898593656+901160510+903579958+905316625+905439928
1218+902915171+897462681+890239130+883541526+879566150+879254871+882185724
1208+887251506+893246675+899146694+904311542+908559221+911989661+914759762
1198+917021114+918994161+920999877+923284801+925777619+928134453+930092494
1188+931730957+933353019+935132778+936942152+938512888+939472818+939027414
1179+936280884+931756720+928126352+928175687+932020125+937260602+941658542
1169+944669074+946711309+948142208+949098022+949658364+949828412+949298680
1159+947097287+941476409+930522096+913748107+893931581+877066957+869069990
1149+871653244+881608252+893928327+905053352+913668295+919851041+924158479
1139+927168414+929399820+931381233+933574194+936130955+938794486+941135716
1129+942891041+944080447+944877766+945432862+945769107+945803767+945489899
1119+944885535+944025203+942820923+941194213+939232653+937136236+935075210
1109+933169027+931572794+930539293+930365527+931277717+933311387+936224312
1099+939559403+942911824+946108871+949104131+951823171+954175556+956132934
1089+957783348+959321017+960856694+962228099+963175613+963708864+964116156
1079+964628358+965289028+966157926+967376083+968967999+970831223+972933615
1069+975248883+977410637+977995147+973420918+958953963+934243496+908086128
1060+893485910+896110996+910197485+926171764+938817261+947669049+953684735
1050+957720999+960477157+962376435+963486029+963511261+961852679+958073711
1040+952583108+946916681+943215002+942916206+945707887+950024820+954515719
1030+958704103+962589177+966279171+969973812+973855035+977902255+981878495
1020+985354883+987497911+986646742+980252050+965874601+942924506+913733432
1010+883263314+858068865+844519412+845733186+859131250+877711492+894269153
1000+904454234+906737365+901042917+888425906+872248113+858720306+854266192
990+861100844+875869981+892862357+907868339+919314404+927427104+933253951
980+937977778+942384549+946619678+950407544+953517741+955918664+957568215
970+958425493+958786637+959330180+960542958+962049021+962785320+962263955
960+961506010+962172656+964831141+968531426+971910207+974177535+975028239
950+974057618+970552878+963766897+953520331+941319774+931157535+927745886
941+932341496+940323855+943513399+935664900+917625412+898372813+889282586
931+895210559+911409466+929277977+943459549+953285743+960060835+964862082
921+968265033+970789259+972974185+975068543+976954143+978459277+979544104
911+980239235+980643074+980807877+980309486+977931271+971945266+960995534
901+945336119+927670722+912463883+903633343+902362332+906915048+914363891
891+922496710+930506691+938393502+945976405+952588752+957706923+961553618
881+964790903+967824343+970688996+973376696+975871773+977999264+979628032
871+980979585+982426220+984023980+985478385+986538113+987238756+987806932
861+988473247+989381586+990570062+991968691+993425021+994729032+995563070
851+995533058+994468615+992611035+990147366+986346419+979249491+966752861
841+949030096+930309951+917172703+913867691+919357829+929160849+939221565
832+947437781+952597318+953166026+946592256+928880247+896456470+851217082
822+802920882+762941493+735412587+717658415+708851513+713648312+736016619
812+772831895+815134985+853933733+884214281+905266626+918868003+927450742
802+933285225+938129566+942832676+947369855+951460168+955063776+958320914
792+961266907+963821942+966053480+968181702+970242595+972028132+973451329
782+974700826+976019444+977540646+979248960+980946983+982374894+983402618
772+984001604+984152330+983931022+983551950+983197113+982866911+982352982
762+981199631+978845918+975212961+971183735+968079381+966511567+966052086
752+966019285+966104209+966200488+966195840+966064702+965731379+964804913
742+962886778+960156715+957232966+954439227+951599938+948520218+945232669
732+941770955+938100948+934272048+930290895+925869914+920577911+914266417
722+907278915+900251109+893574287+886979934+879971649+872792120+866593040
713+862591768+861594787+864413293+871632594+882104386+892210119+897642091
703+896343990+889725401+881270414+874127604+869589562+867293550+866462367
693+866875037+868915811+872950681+878710532+885283439+891661464+897076172
683+900768025+901840237+899613744+894093196+886267406+878103645+871924086
673+869142564+869581329+872344060+876366181+879839050+881863291+883616292
663+886470388+891296203+898431443+907523131+917566848+927270934+935604477
653+942136947+947044964+950708265+953147168+954048137+953035751+949317405
643+941361273+927760295+908916382+888162036+871317796+864527167+870418421
633+884398140+896298773+898968014+895384325+895033871+903547090+918201888
623+932891612+944269153+952733436+960171124+967726935+974938401+980779392
613+985113588+988472384+991075690+992900535+994266894+995744538+997688171
603+1000100913+1002713582+1005095647+1006958804+1008390234+1009593451
595+1010629077+1011719216+1013331119+1015348919+1016707178+1016671920
586+1015979445+1015969286+1016940305+1017990738+1018128317+1016731613
578+1013109147+1006363205+995672296+980082799+958294023+930212212+900001382
568+876761720+869499127+880213341+902800035+928524415+951474577+969535313
558+982904559+992980546+1001127043+1007490262+1011687876+1014252140+1016215626
548+1017957804+1019562934+1021485186+1023905630+1026244602+1027965068
540+1029173663+1030223897+1031421669+1033129651+1035455676+1037927048
531+1040089199+1042121607+1044216098+1045827337+1046402087+1046367361
523+1046342395+1046147978+1045536510+1045008571+1044943367+1044467684
514+1041915638+1035307672+1021202127+994137350+950510795+895650452+844850146
504+814371263+812982594+839310009+882271379+927321862+964392442+990104737
494+1005922050+1015528662+1022733820+1029755651+1036185268+1040326377
486+1041828190+1042231365+1043140766+1045020191+1047590497+1050164389
477+1051990164+1053111577+1054348325+1056075962+1057729497+1058896726
469+1060064950+1061811444+1063857264+1065132591+1064769853+1063026148
460+1061233772+1060883849+1062547876+1065234248+1067367051+1068397365
452+1068885796+1069535710+1070479240+1071526154+1072425197+1072545312
443+1071470378+1070332033+1070806787+1072491728+1073313217+1072447905
435+1071218593+1070915814+1071386649+1071582327+1069968034+1065311802
426+1058167332+1050741065+1044463767+1037771076+1026327336+1005847151+978776797
416+953841835+936098353+927808434+929693303+936035075+937188094+931040407
407+925655910+928392148+938365283+951050752+964751395+980672157+998600095
397+1013744984+1020924247+1020120420+1015204834+1010152664+1006863256
388+1005947281+1008515662+1015165857+1023315940+1029938912+1036462750
380+1045641619+1056677404+1065762784+1070639660+1073741823
##END=
