##TITLE=X9322
##JCAMP-DX=5.0
##DATA TYPE=LINK
##BLOCKS=1


$$ === CHEMSPECTRA SPECTRUM ORIG ===
##TITLE=X9322
##JCAMP-DX=5.00
##DATA TYPE=INFRARED SPECTRUM
##DATA CLASS=XYDATA
##ORIGIN=ComPlat
##OWNER=
##XUNITS=1/CM
##YUNITS=TRANSMITTANCE
##XFACTOR=1
##YFACTOR=9.281893e-010
##FIRSTX=3997.453
##LASTX=373.96442
##MAXX=3997.453
##MAXY=0.9966356710710939
##MINX=373.96442
##MINY=0.4478311222152353
##NPOINTS=2559
##XYDATA= (X++(Y..Y))
2559I93207584I93054236I92682104I92366225I92225335I92118287I92077767I92382151
2551I93077354I93776088I94029934I93709753I92998561I92140506I91290735I90562332
2543I90070502I89873936I89963325I90298854I90816628I91463155I92149817I92599008
2535I92530875I92121626I91838498I91785841I91775373I91847809I92006551I91682324
2527I90181595I87744725I85787613I85511933I86259279I86443451I85988223I86440882
2519I88492457I90910961I92312348I92209088I90584936I87855048I85340284I84635513
2511I85713828I86751303I86312001I84947346I84455579I85329624I86048972I85359292
2503I84072081I84284636I86731010I89923575I92222189I93187869I92858505I90819646
2495I86592304I80748130I75319948I72408136I72459573I74926496I78990023I82972574
2487I85004562I84478890I82751414I82411518I84021992I85038789I83555270I80587654
2479I78530044I77696134I77389824I78705161I81966373I84446332I83760954I80217770
2471I75842410I72465095I71594005I73591894I75951705I76222954I75255282I76039617
2463I79256841I82294517I82889286I80611928I75655605I68726694I64405532I67787856
2455I75272749I81877819I85711388I86321569I84057119I79978950I75282703I70894307
2447I68217011I68913178I72429648I76406997I79677520I82344156I84276609I84906440
2439I84241290I83047386I81467221I78425757I73882087I70969953I71771755I74200662
2431I77128657I81448085I86460789I89945987I90518408I88076465I84098281I81167011
2423I79689272I77579133I74686136I74055855I76752223I80466543I84105987I87845030
2415I91107783I93067978I93739871I93540672I92565873I90962270I89543609I88891880
2407I88331531I87287571I86901055I88607275I91586963I93739935I93776538I91595954
2399I88340265I85967546I85303038I85594772I86400747I87391665I87247950I85031918
2391I82096153I80998123I81683951I81339688I77707115I70923011I64665415I63465153
2383I65809423I67719787I68562558I70254201I73545145I76379127I76659045I73251934
2375I66778572I61517608I63068490I71076616I79883654I85239272I86115821I83550968
2367I79963731I78023508I78796605I81572728I85021001I87874056I89126782I88030486
2359I84179001I78340093I73978796I75143161I80828593I86880891I90624044I91418139
2351I90248958I89368235I90325825I92302266I93723046I93823159I92282873I88640475
2343I82885047I77136106I75606480I79413271I84972518I89241794I91121397I90310734
2335I86928667I81217100I73729317I67704182I68036436I72440886I74945055I75190681
2327I77690291I83933246I90378931I94471034I96167365I96414340I95737182I93972589
2319I91339346I89091335I87660152I85061650I78938394I69419457I62127019I64030318
2311I72578437I81268730I87283204I90639584I92342786I93116718I92962856I91798170
2303I89984516I87757953I84408637I79216064I74632901I76007060I82520750I88496759
2295I91210272I90242151I86122949I81233668I78861334I79041846I79514604I79812246
2287I80853573I82244364I82892818I83663474I86217860I89554718I91062961I89936483
2279I87867121I86768256I86574709I86382382I86508052I87844966I89639355I89530380
2271I85983600I80832510I79199368I82998774I88422525I92080400I93447431I93417249
2263I92970562I92730651I92993102I93630703I93742889I91721946I86345586I78808099
2255I74050397I76112438I82228503I87641144I90885467I92913667I94580587I95503050
2247I94956957I93121213I91163073I90082703I89511244I88331852I86475174I85492347
2239I86788741I89791098I92720762I94243902I94230931I93682654I93705515I94218344
2231I94153679I92877192I90899081I89325981I88795620I89052806I89659712I90639584
2223I92093564I93661142I94778886I95178117I94936151I94188933I92958426I91445817
2215I90442762I90804619I92140056I92890678I92139029I90768145I90437496I91547342
2207I93065345I94062171I94550919I94989451I95480960I95688571I95315219I94475594
2199I93686635I93389636I93429835I93354317I93294147I93921281I95233728I96223683
2191I96177640I95560010I95221527I95281569I95318686I95181842I95099581I95250360
2183I95563542I95842175I95963223I96053831I96459099I97341042I98321557I98779032
2175I98539634I97880906I96860578I95316439I93658445I92875009I93386618I94582321
2167I95652032I96233123I96371894I96299137I96195235I96090499I96017742I96077848
2159I96260543I96450815I96650976I96910538I97009623I96509444I95289083I93914281
2151I93166421I93177916I93382187I93282267I92880853I92421194I92040265I91723037
2143I91455064I91303835I91295166I91294138I91193769I91108490I91194925I91445367
2135I91764649I92046365I92195667I92307467I92682874I93398241I94064932I94282560
2127I94209097I94441752I95339877I96615015I97619997I97955204I97753502I97436467
2119I97287871I97295962I97242599I96839065I95981653I95031127I94603641I94951563
2111I95765951I96554524I96987469I97071848I97179988I97622950I98163328I98299531
2103I97935683I97400442I97010843I96908932I97103956I97418808I97512242I97140624
2095I96432513I95785601I95439091I95316567I95352528I95646316I96150926I96556836
2087I96676085I96712881I97014953I97634509I98215022I98360857I98105341I97918601
2079I98208858I98834193I99177492I98788472I97892915I97124762I96857624I96985927
2071I97209784I97357353I97479813I97670085I97831396I97784711I97546726I97285688
2063I97101773I97049052I97242599I97768015I98503224I99100883I99262065I99065949
2055I98864439I98840872I98897767I98899180I98792325I98621574I98540983I98678855
2047I99044565I99610116A000252983A000685992A000815580A000978303A001478161
2040A002136760A002546651A002476335A001969734A001345683A001053757A001290586
2033A001780811A002017640A001680056A000891676A000178235A000065665A000589732
2026A001295145A001777215A002032024A002176831A002145494A001874823A001574035
2019A001545266A001839055A002202068A002333839A002189418A001984312A001829037
2012A001537047A000972138A000350655I99984110I99936333A000084544A000299925
2005A000496554A000669424A000899510A001249937A001688404A002085323A002259413
1998A002135797A001887474A001773490A001838541A001915600A001883878A001799369
1991A001811570A002019181A002337821A002532717A002492838A002416485A002599180
1984A003078938A003586438A003826606A003802268A003849659A004261284A004887262
1977A005280649A005186573A004745858A004283374A004023877A003958120A003943800
1970A003947332A004099203A004478142A004952184A005248863A005120944A004549550
1963A003881703A003643269A004085525A004941268A005683348A006015281A006030308
1956A005859942A005372350A004468959A003517470A003105716A003368103A003854861
1949A004099652A004073195A004021822A004076149A004169134A004207792A004148970
1942A003936543A003508544A002883978A002165914A001501086A001124073A001304585
1935A002050904A002965019A003603070A003870272A003852356A003458070A002564182
1928A001386589A000364719I99728851I99432366I99453300I99861843A000537652
1921A001103011A001307025A001299768A001357370A001473987A001394038A000949470
1914A000177144I99131193I97724797I95770510I93181705I90206126I87450359
1907I85538390I84695876I84726442I85350751I86436644I87932878I89708130I91465338
1899I92813105I93534187I93819177I94166458I94999276I96308320I97601374I98314621
1891I98418202I98518829I99227517A000516012A001799369A002536891A002647085
1884A002408844A002075434A001673185A001178721A000684515A000270578I99930040
1877I99775023A000069389A000871191A001861209A002675276A003207756A003476692
1870A003396037A002837036A001714540I99769885I96272680I90145891I80787751
1863I69307271I58987175I53687682I55057860I61358417I69141787I75829759I80671135
1855I84014030I86369281I87944308I88615494I88287672I87152974I85393133I82836051
1847I79162186I74284207I68446969I62130229I55770529I49365300I42589544I35596096
1839I29547073I26110166I26370819I30033831I35409292I40231467I42755543I42220109
1831I38435986I31304153I20924592I07928935H93329160H77918337H61768837H44183081
1823H24297427H02444322G81471170G66375969G61622376G67912594G81354810G95951246
1815H07065887H12962975H13910290H10452705H02460633G89286776G70399297G45970550
1807G17593802F89098575F66239397F54392115F55715286F68238442F87563362G09414476
1799G30964032G50703016G67910475G82371607G94252474H03992122H12248828H19752023
1791H26910699H33526364H39077649H43330549H46630804H49620960H52659470H55496086
1783H57654130H59164684H60729950H63117438H66588251H70915257H75708342H80689581
1775H85869504H91472482H97491580I03396759I08527685I12638796I15750064I17669931
1767I18083097I16919566I14109536I09019773I00770516H89554156H77424966H67241393
1759H60631956H57143741H55310373H54169575H53594906H53505453H53184758H51623280
1751H48608080H45361895H43902136H45570661H50001504H55424999H60025821H63113072
1743H65206322H67434619H70999637H76700544H84484299H93499847I02675934I11157910
1735I18406103I24314557I29229204I33558521I37354331I40399071I42624863I44317020
1727I45893203I47528529I49106188I50557985I52071878I53852910I55856258I57846891
1719I59579697I60901134I61822956I62504031I63114597I63764078I64486766I65184666
1711I65712843I66125431I66641278I67315868I67991677I68562751I69038335I69408733
1703I69667395I69901912I70232753I70709557I71277163I71825825I72310142I72783093
1695I73256365I73665486I74058745I74631488I75465205I76404493I77280592I78111419
1687I78979363I79829455I80529218I81087769I81641375I82209174I82645136I82837142
1679I82797585I82631715I82567627I82857627I83489513I84170717I84677959I85015607
1671I85242804I85389152I85501081I85592267I85619944I85590020I85563820I85522529
1663I85368474I85083227I84792200I84661327I84765486I85062164I85457157I85860369
1655I86195256I86431571I86613302I86822904I87151818I87680316I88390867I89114646
1647I89658106I89955876I90066328I90095995I90150836I90277791I90454385I90660262
1639I90886752I91061997I91079079I90932730I90742715I90607027I90468769I90152570
1631I89578157I88930924I88530729I88479999I88553269I88512364I88413535I88475247
1623I88748486I89067447I89275956I89378510I89510538I89840287I90420607I91078051
1615I91556589I91825847I92097160I92464155I92714340I92635740I92355951I92189053
1607I92244022I92370849I92440330I92483484I92542306I92588862I92675490I92972168
1599I93502978I94026852I94358014I94604861I94878357I95011412I94865385I94689305
1591I94816774I95143954I95224931I94821204I94143982I93614457I93521151I93843836
1583I94320897I94710239I94972690I95201235I95496372I95940875I96524920I97073454
1575I97443852I97761079I98233966I98801636I99183786I99200161I98868292I98317511
1567I97760244I97421119I97403717I97667195I98092691I98509325I98774216I98876319
1559I98852431I98657407I98281422I97908712I97784261I97968497I98297540
1552I98515297I98485500I98381599I98581054I99279468A000321822A001417412
1545A002287989A002635526A002282017A001412725A000505095A000050638A000354637
1538A001350050A002483912A003093001A003071939A002911206A003005411A003268440
1531A003500003A003734969A004027024A004172152A003913875A003353333A002944084
1524A002995136A003285007A003320198A002916279A002313547A001798599A001519516
1517A001619243A002170602A002904014A003294768A003049463A002439667A002139008
1510A002637453A003653608A004299878A004093616A003569549A003559531A004117055
1503A004534652A004301740A003728869A003555293A004095093A004981467A005735363
1496A006251147A006630856A006936332A007217919A007473435A007565456A007426685
1489A007225689A007154987A007214259A007257412A007104449A006691155A006216085
1482A005974761A006043793A006366671A007044343A008181481A009458545A010236137
1475A010234789A009877427A009769865A010029619A010341773A010468086A010448628
1468A010475406A010782102A011472360A012326947A012982722A013346698A013634001
1461A014043956A014616442A015323075A016012692A016331396A016005499A015218596
1454A014420519A013803210A013282033A012876316A012674742A012520430A012144959
1447A011551346A010958504A010447344A009875500A009131365A008392045A008037187
1440A008215965A008656487A009061048A009485131A010137309A011021885A011941394
1433A012656697A012996207A013004491A012994602A013241320A013616020A013705409
1426A013331929A012794954A012505725A012557162A012816787A013275162A014059239
1419A015189057A016574004A018214339A020147948A022170240A023920319A025398894
1412A027077565A029278506A031779336A034215564A036488170A038613207A040454987
1405A041696605A042012162A041336609A039844550A037639435A034788885A031499354
1398A028046200A024925236A022942630A022704581A024142186A026501869A028840553
1391A030790922A032473704A033726751A034159953A033775042A033028209A032338914
1384A031761419A031124011A030342759A029539801A028896228A028434450A027944996
1377A027233546A026448120A025865680A025363190A024589258A023575800A022650254
1370A021861617A020966702A019919082A018979730A018392281A018209458A018343991
1363A018614405A018820410A018882956A018898561A019078494A019634926A020572865
1356A021520437A021982086A021873433A021567315A021353155A021221319A021252528
1349A021737488A022726415A023853984A024796676A025633090A026601724A027661032
1342A028430084A028595761A028310128A028068933A028159734A028330806A028122039
1335A027519436A027026578A026934235A026940721A026810106A026866937A027443918
1328A028374087A029372711A030371720A031243774A031651032A031331878A030400938
1321A029390113A028920951A029171201A029807132A030530334A031364436A032303788
1314A033090242A033510600A033561780A033244874A032637198A032225380A032552689
1307A033413184A034008852A033988368A033718467A033576935A033657719A034134909
1300A035178805A036343041A036701881A036071857A035495968A035837597A036533891
1293A036628032A036352738A036671956A037781288A038984697A039672130A039754133
1286A039393239A038803929A038227076A037798113A037459373A037146898A036829028
1279A036251148A035287651A034711055A035532635A037407358A038923627A039432218
1272A039521992A039883208A040544633A041122256A041441153A041883024A042992998
1265A044799331A046793303A048306169A048760690A048242467A047688604A047613599
1258A047392054A046383926A044856612A043583978A043066846A043201122A043439685
1251A043245881A042584199A041954239A041651140A041073067A039403642A036942498
1244A034935683A034221664A034807572A036280816A037795416A038326161A037721375
1237A036967478A036921371A037383855A037823029A038304777A039023804A039403321
1230A038547963A036549753A034646389A033929160A034330382A034972157A035211940
1223A035164292A035242443A035508425A035838560A036420807A037487500A038724429
1216A039527451A039742125A039729731A039798121A039809873A039301860A038025309
1209A036405267A035263634A034985835A035213995A035488454A035863476A036647169
1202A037870356A039350985A040947781A042377680A043076415A042631462A041243946
1195A039738722A039151081A039946204A041431392A042351929A042219580A041671111
1188A041520139A041924250A042434832A042516387A042152731A042106303A043135172
1181A044841842A046106641A046827659A048297307A051296518A054665356A056631330
1174A056866938A056384419A056005865A055915578A056296122A057503319A059638503
1167A062021496A063196329A062172147A059777145A057901587A057301553A056822051
1160A054969932A051911772A049397200A048886361A050392934A053063615A055909349
1153A057732250A057646072A056188753A055008783A055300260A056878369A058487687
1146A058873947A057949878A056991389A057263665A058546445A059938520A061600496
1139A064215373A067321246A069729990A071305852A072739411A073741823A073207867
1132A071220573A069042236A067242710A065544838A063939372A062796905A062351053
1125A062618063A063449597A064354529A064579478A063713589A062164569A060814106
1118A060219722A060185624A060018341A059240363A058043376A056985289A056340560
1111A055719911A054418638A052536337A051477800A052272923A053998472A055131885
1104A055370062A055459708A055950961A056614955A056892882A056545473A055637651
1097A054083494A051903616A049942073A049264529A049706079A050357487A051161343
1090A052718582A054862627A056656631A057513209A057717544A058085181A059147571
1083A060740193A062289983A063178541A063067190A062202585A061132296A060148699
1076A059409316A059203953A059410600A059192715A058118124A057246584A058110675
1069A060533675A062867863A064021826A064150129A063888000A063658299A063611999
1062A063645199A063453642A062663464A060752523A057236116A052845537A050386641
1055A052093888A056462827A060481916A062560847A062599697A061170698A059236125
1048A058088071A058616376A060505805A062489631A063321357A062520390A060486347
1041A057990527A055871718A055509861A057903963A061578341A064152120A064885917
1034A064696287A064683444A064657757A063315514A060015836A056456148A055313424
1027A056376649A057501778A058309423A059820298A061890816A063298689A063483952
1020A062972985A062320743A061216612A059197146A056945154A056077081A057277600
1013A059514309A061195549A061178018A059320377A056876507A055714453A056383006
1006A057665850A058064825A056778962A054334001A053271546A055673355A059694178
999A062217162A062146139A060344494A057983013A055514677A053418794A052189827
992A051096870A048622562A044034968A038293347A034332437A034426642A037189537
985A040241469A042343453A042563007A040402780A037108625A034991422A034296861
978A033638326A032641821A031170439A027794345A021005682A011663981A003699073
971I99561890I97019127I93148698I87320963I80036809I71236386I60981982
964I49841912I36410227I17002533H92135192H71736195H61023610H56411421
957H55495829H57339536H60446436H62960751H62678650H56589813H40071649
950H07712478G61713948G16085431F78778800F48572857F24989130F08503073
943E98575594E94406175E95033373E98500140F04576776F17252830F39389899
936F65329327F91606725G20835813G48967963G70087014G85311546G97551060
929H06791813H11539433H11634280H10249205H12697570H18517791H24450326
922H29854941H35873718H44288395H55031354H64927946H72517447H81168761
915H94436823I09255060I20929858I29114064I36147648I44088539I52004194
908I57232857I58216326I54633649I47608285I43641724I47701013I51285296
901I49421104I44893423I44096245I47675327I49599753I46179735I36531210
894I19540030H89869264H40187045G82002686G40367572G18928211G12105834
887G18388732G34383151G51199599G61526245G63116748G56442132G42464804
880G19084577F81329461F32917307E91670957E65739940E50198117E41632852
873E39766349E43846187E51805316E61803561E73166461E85685508E98566668
866F10783706F22139735F33456143F45892094F59842516F74445886F88395602
859G00561138G09657662G14384798G14463013G11316491G07605317G05636132
852G06220113G10306437G20924367G37758089G53076441G62731195G69009597
845G75679268G84040390G92535723H00098896H06061548H08936115H07700727
838H05857277H13679433H29499119H43618237H54824386H63565088H70240025
831H76011249H80803372H82734412H80759448H76133838H71416078H70846802
824H80683352H96772168I08564353I14441919I17943106I22809590I28752528
817I32758068I34028775I34221487I34793717I35066057I34618086I35552301
810I38858656I42523915I46522327I52407792I58474924I60671369I56620878
803I46164195I30204389I12748734I00524697H88561761H67296426H34024617
796G92640395G54655000G36124304G43007622G62539124G81045032G95278904
789H07434294H18989650H28319278H34005159H37315304H41314679H48784096
782H58831467H65576014H61447693H41115994H04647575G63050477G37522609
775G35129598G41680726G43089883G32784300G12822100F93321357F80574216
768F71988531F62142670F47811319F34466390F29999972F33005604F40149125
761F50555078F65487491F86612772G12841301G40866017G68103573G91651211
754H07373867H11826800H02950152G82786058G60231457G40041355G18007867
747F90365621F60801197F38522147F30765106F40489277F64746438F94540242
740G23430655G52111852G81087479H06196402H25539430H40816555H53910014
733H65931321H76894156H86122836H94008630I02361918I11897872I20876559
726I27675368I32542238I36424547I39269446I39771423I35529183I23483473
719I01865592H72371227H42840837H26329865H29230311H44469677H61642396
712H74648392H81237665H80801830H72835573H56767307H33475826H06463669
705G79539166G55073239G35492740G22551987G15441152G13370698G18155050
698G30356034G45346884G57211183G63159451G64702049G67004387G75087132
691G90008886H09329246H29793743H49103186H66144775H80215281H90699321
684H97989961I04259309I11987710I21046988I28583255I31379478I27499416
677I17866817I07390226I02745994I07454956I19438184I33538486I45602240
670I54223629I60028888I64307667I67927590I70974448I73247375I74493744
663I73709089I68615215I56182154I33906636I02043727H66148693H36713342
656H23870262H30788000H52232241H79350997I05136307I26382313I42756378
649I55128562I64326996I70374478I72263906I69137548I62738099I58135992
642I60450274I70495268I84525125I98138926A009262494A017763863A024018891
635A028342108A030893475A031641335A030612081A028172513A024818381A020545895
628A014361055A004097662I86326193I56751044I12100794H53532809G89395494
621G33971718G01128230F96770658G16247063G48708273G83903802H15729915
614H41588560H60310555H70767753H71168974H59139640H34328615H03103051
607G78995834G73964122G87412695H05249857H09840341G90859877G50666862
600G03919959F70766756F65275257F87326597G25267619G65804574H00813106
593H26917956H42133947H43840232H28482002G92961796G38543901F75090936
586F19906430E89014788E87591504F08659825F39853153F69701605F89946612
579F98201777G00873228G09479077G30800024G61901138G95350055H26498432
572H54562449H79684600I01430849I19252792I32913663I42279317I46789787
565I44779761I32940570I06935320H64688869H11514453G61672657G31698856
558G29747651G51120741G83603913H15920958H41923447H59797148H69373237
551H69883498H59080112H33960144G92942724G38530865F78238165F22199007
544E79147030E53899080E47048063E55750300E75189010F00454620F27853101
537F55088795F80689741G03242929G20733966G29956289G26392877G06167841
530F70449465F28205069E91984459E68379541E52829305E35576605E12993043
523D91848465D82478221D89442836E09312275E35375448E62433713E87888824
516F10744598F30830799F48526044F64481419F79266777F93128838G06051995
509G18050956G29295057G39925252G49905196G59001527G66694545G72222133
502G75028374G75291018G74031292G72571725G71307119G68434542G60133335
495G43232442G19187066F95635639F82462168F84585471F97913768G12269714
488G19053946G17765644G15807247G21319617G36170925G56024150G75303155
481G90112916G97168332G91845850G68742458G26253143F71982366F21761439
474E90553919E83721075E96649819F20675224F48343542F75117008F98966654
467G19499477G37150926G52608691G66494126G79184244G90732536H00793199
460H08192493H10163797H02524721G82400055G52495350G22420922G03761409
453G02423404G15743545G36397929G57693767G75392094G87158464G92688428
446G93961704G92955759G87839025G72957471G44858906G08360498F74947670
439F54344467F48062275F51240070F59478282F72234543F89925549G10375276
432G29746110G45686587G58182451G68158799G76420257G83527881G89796844
425G95306581H00123811H04458972H08540994H12474676H16252441H19800057
418H23061268H26162903H29343524H32666512H36016342H39280636H42279204
411H44770144H46746136H48463915H50177649H52032401H54014750H55881575
404H57291502H57915297H57358287H54915637H49046676H37406940H17728126
397G87514734G44317051F92501254F50561307F41919882F72488324G23633834
390G70984754H03777640H24338782H37650190H46579303H52757079H57427640
383H61366074H64821668H67720765H70085778H72171323H74170496H76059732
376H77712075H79024266H80093720H81241775H82668848H84230197H85644041
369H86708551H87268514H87145926H86184804H84407240H81855937H77501318
362H68465543H52551909H33212926H19890152H20104184H31697620H45479410
355H54706614H59355598H62469306H65977621H70191478H74737203H79012643
348H82467851H84822525H86133432H86808856H87299145H87518957H86763969
341H84252672H79403976H71258748H57333692H32833088G91919570G32247068
334F60321953E91882356E44735900E29437262E45523060E84522812F35213993
327F87581406G34749503G73221399H02237868H22965843H37448616H47483657
320H54310529H59098349H63082184H67089265H71332597H75675977H79746119
313H82872477H84255112H83153807H78584772H68068431H45585174H01975417
306G32475741F47826474E75024810E41119445E54585806F02969256F65388791
299G24981922G73346749H09142184H34767532H53424412H67701758H79226996
292H88621675H96003823I01709290I06318396I10249060I13608587I16250499
285I17983241I18828709I18851698I17144900I09532153H87335106H44074235
278G89081156G49578079G49462876G86243321H35324992H74695077H98792982
271I12414233I20755576I26382378I30251780I32762756I34201773I34655845
264I33825210I31252459I26947800I21945820I17707112I14310533I09587892
257H99888829H80738578H48830717H07979167G73027916G61940567G80370379
250H15928279H48384929H62316664H49258974H05279525G36060024F63150220
243F15048422F08202735F38082974F86519915G35535058G75320557H03479292
236H21471536H32639926H41288864H51197913H63944027H78647703H93331280
229I06481184I17586321I26738199I34180903I40295426I45696894I50963316
222I56121534I60608373I63954736I66390386I68546504I70726960I72859639
215I74899590I76763525I78285252I79710977I81709123I84226777I83325698
208I69446428I38636148H98202259H61708988H46104682H58212617H85668700
201I11229511I27569733I35865868I38749040I37050461I29372534I12761770
194H85379921H50754887H19757032H05671307H14426522H40262949H71582461
187H99519523I20976800I36344855I46899340I54144708I59772537I64988614
180I70038435I74787083I79236677I83090924I85441295I84891092I78923110
173I63581640I36643652I02813099H73728497H60541540H66033810H83916565
166I05140417I23780408I37977291I48304708I56240912I62999265I68952157
159I73968521I78078284I81658842I85052467I88283626I91357712I94455879
152I97547240A000360930A002819377A004886877A006337003A007465215A009381936
145A012730096A016661274A019587791A020672529A020191165A018243428A013211074
138A001807204I80922284I49558012I10405555H71217971H43021670H33736158
131H42958610H63580821H87447163I09083026I26190886I38843630I48265151
124I55499538I60972029I65097524I68597299I71841622I74053222I73199855
117I66678395I52307422I29096855H98229101H64561208H36539381H22190049
110H24440758H40590771H64136868H87365609I05443902I18164330I27992531
103I37297243I46397941I54115361I60115194I65076847I68959413I71126319
96I72029967I72783222I72935799I70603601I65082819I57931592I50616614
89I41796861I28098231I07078779H79452394H49603493H24469976H10083720
82H07857799H15156916H28504285H45328952H63833190H82189539H98443198
75I11400390I21251645I29152658I36471425I44212219I52186760I59152596
68I64785563I70215158I76270410I82488578I87866543I91241096I91383912
61I88739046I86858993I88871074I93420460I98127624A002984220A008391210
54A013101521A015632404A015936724A014493918A010567685A002346105I88282663
47I67422466I40035480I10475037H87676415H78832838H84113194H98679063
40I16872560I34618214I49303845I58774171I62412909I62327951I61573926
33I63586007I71826146I84463991I95764602A001720833A001788645I98540405
26I93492253I84162882I67408275I43935962I18672921H97819853H85985992
19H86183584I00465040I25883933I53434735I76029471I90916933I97677085
12I97478978I92203052I82411839I66689183I45323414I22437458I00828695
5H80935464H65052910H58665661H66090962H81238885
##END=


$$ === CHEMSPECTRA PEAK TABLE EDIT ===
##TITLE=X9322
##JCAMP-DX=5.00
##DATA TYPE=INFRAREDPEAKTABLE
##DATA CLASS=PEAKTABLE
##$CSTHRESHOLD=0.93
##MAXX=3997.453
##MAXY=0.9966356710710939
##MINX=373.96442
##MINY=0.4478311222152353
##$CSSOLVENTNAME=- - -
##$CSSOLVENTVALUE=0
##$CSSOLVENTX=0
##NPOINTS=42
##PEAKTABLE= (XY..XY)
376.7974837842062, 0.7970042788176273
400.8785259499605, 0.8223627177242856
433.4587594683344, 0.8157232367202334
488.7035032603594, 0.7498449649533506
529.7829281313525, 0.7631480060482757
559.5300978655196, 0.7738649808787094
611.9417778733382, 0.798745449633522
643.1054794996089, 0.7478154864744151
661.5203940969504, 0.7853453125123026
715.3486059968723, 0.5645272708577355
729.5139249179042, 0.707225081525333
763.5106903283813, 0.6956434222504267
801.757051415168, 0.5022612788709385
841.4199443940574, 0.49141800160969656
881.0828373729473, 0.7610132662617736
929.2449217044564, 0.5958231659296626
992.9888568491006, 0.6015244693886574
1014.2368352306485, 0.6519818876623772
1042.5674730727128, 0.5418036559994974
1069.481579022674, 0.6334540819924024
1111.9775357857698, 0.4478311222152353
1140.308173627834, 0.5077641586623258
1162.9726839014852, 0.6773439613583343
1199.8025130961687, 0.5453961467837072
1219.6339595856134, 0.6175013751021501
1230.966214722439, 0.7183852166242946
1249.381129319781, 0.6467350693095594
1301.7928093275996, 0.7647075617765966
1328.7069152775603, 0.8379191722486642
1364.1202125801406, 0.6621430488171314
1386.7847228537917, 0.7669905389634445
1426.4476158326815, 0.5854694222025658
1454.7782536747459, 0.5847592330106995
1497.2742104378417, 0.6832627024427471
1580.849592071931, 0.6549639074157876
1609.180229913995, 0.5010053496418657
1630.4282082955433, 0.6609690155863762
1706.9209304691162, 0.5517214514889275
1728.1689088506646, 0.7940620746724296
2850.0621673964033, 0.7833009328823448
2927.97142146208, 0.6073997591473694
2949.219399843628, 0.7069297400437767
##END=


$$ === CHEMSPECTRA PEAK TABLE AUTO ===
##TITLE=X9322
##JCAMP-DX=5.00
##DATA TYPE=INFRAREDPEAKTABLE
##DATA CLASS=PEAKTABLE
##$CSTHRESHOLD=0.93
##MAXX=3997.453
##MAXY=0.9966356710710939
##MINX=373.96442
##MINY=0.4478311222152353
##NPOINTS=122
##PEAKTABLE= (XY..XY)
3988.953808647381, 0.9208359680972931
3973.3719578342457, 0.9187903957440847
3957.79010702111, 0.9205552892221088
3947.8743837763877, 0.9147416312329169
3943.624788100078, 0.9151837185146139
3930.8760010711494, 0.9139281475666109
3923.7933416106334, 0.9137611347531046
3918.1272140422207, 0.9134051760129333
3902.545363229085, 0.9025788270681447
3891.2131080922595, 0.9118638592043573
3881.297384847537, 0.9072027765656832
3869.9651297107116, 0.9018231593851465
3864.299002142299, 0.9052215175208825
3852.966747005473, 0.8951508956632076
3838.801428084441, 0.8986886696881823
3820.3865134870994, 0.9012439209961028
3800.555066997654, 0.9041082222133514
3779.3070886161063, 0.9160309994097114
3767.9748334792807, 0.9145477371290933
3758.0591102345584, 0.9105519610886839
3749.5599188819388, 0.8942780459374629
3735.394599960907, 0.8924703555071943
3724.0623448240813, 0.9077909552740644
3711.3135577951525, 0.9040366968740827
3701.39783455043, 0.9183210094868854
3688.649047521501, 0.9055474957466639
3675.900260492572, 0.8982126672976526
3648.9861545426115, 0.8930360042766967
3629.1547080531664, 0.9046438301361592
3617.822452916341, 0.9085686164025262
3596.574474534793, 0.9155495726809125
3586.6587512900705, 0.9088823759443624
3576.7430280453477, 0.9214419680402343
3566.8273048006254, 0.9041031561561521
3545.5793264190775, 0.9147234517172871
3537.0801350664583, 0.9223256070384022
3527.1644118217355, 0.917789514370866
3510.166029116497, 0.9193183739508466
3501.666837763878, 0.9193134861059927
3486.084986950743, 0.9220536308660947
3481.8353912744333, 0.9219649989980271
3473.336199921814, 0.9237539724910611
3467.670072353401, 0.9236407835186833
3446.422093971853, 0.9215759595912036
3433.6733069429242, 0.9244930107345606
3419.507988021892, 0.9218464450914953
3401.0930734245503, 0.919936295557157
3385.511222611415, 0.922814245798062
3374.1789674745896, 0.9256719308819803
3365.6797761219705, 0.9231804573172413
3347.2648615246285, 0.9253202037568276
3335.932606387803, 0.9238421876021331
3318.934223682564, 0.9262573677191692
3309.018500437842, 0.9252725802202232
3293.4366496247067, 0.9254502616415435
3275.021735027365, 0.9268350560320818
3072.4576744566066, 0.9139841758573267
3008.7137393119624, 0.8852027019742026
2976.1335057935885, 0.8596055467024237
2949.219399843628, 0.7069297400437767
2927.97142146208, 0.6073997591473694
2850.0621673964033, 0.7833009328823448
2748.0718711649724, 0.912008757907791
2723.990828999218, 0.9139521078452011
2678.6618084519155, 0.9174965583358107
2674.412212775606, 0.9174348671621755
2650.331170609851, 0.9209392625717329
2627.6666603362, 0.9232599697254364
2617.7509370914777, 0.9221757016818842
2589.420299249414, 0.925779457899628
2575.2549803283814, 0.9261326747686073
2568.1723208678654, 0.9266871175086907
1728.1689088506646, 0.7940620746724296
1706.9209304691162, 0.5517214514889275
1684.2564201954651, 0.7520646424145064
1653.0927185691944, 0.8758781512503532
1646.0100591086784, 0.8763000327791785
1630.4282082955433, 0.6609690155863762
1609.180229913995, 0.5010053496418657
1580.849592071931, 0.6549639074157876
1559.6016136903827, 0.747988101838536
1541.1866990930412, 0.8083106835556185
1522.7717844956996, 0.8675025070116797
1497.2742104378417, 0.6832627024427471
1470.360104487881, 0.6823394269769014
1454.7782536747459, 0.5847592330106995
1426.4476158326815, 0.5854694222025658
1386.7847228537917, 0.7669905389634445
1364.1202125801406, 0.6621430488171314
1328.7069152775603, 0.8379191722486642
1301.7928093275996, 0.7647075617765966
1283.3778947302576, 0.8893315757192856
1249.381129319781, 0.6467350693095594
1230.966214722439, 0.7183852166242946
1219.6339595856134, 0.6175013751021501
1199.8025130961687, 0.5453961467837072
1162.9726839014852, 0.6773439613583343
1140.308173627834, 0.5077641586623258
1111.9775357857698, 0.4478311222152353
1069.481579022674, 0.6334540819924024
1060.9823876700543, 0.6644046275278571
1042.5674730727128, 0.5418036559994974
1014.2368352306485, 0.6519818876623772
992.9888568491006, 0.6015244693886574
929.2449217044564, 0.5958231659296626
881.0828373729473, 0.7610132662617736
841.4199443940574, 0.49141800160969656
801.757051415168, 0.5022612788709385
763.5106903283813, 0.6956434222504267
729.5139249179042, 0.707225081525333
715.3486059968723, 0.5645272708577355
661.5203940969504, 0.7853453125123026
643.1054794996089, 0.7478154864744151
611.9417778733382, 0.798745449633522
559.5300978655196, 0.7738649808787094
529.7829281313525, 0.7631480060482757
488.7035032603594, 0.7498449649533506
457.5398016340887, 0.9159919579113749
433.4587594683344, 0.8157232367202334
420.70997243940565, 0.8925226292721917
400.8785259499605, 0.8223627177242856
376.7974837842062, 0.7970042788176273
##END=

##END=

