##TITLE=LIS-P72F1
##JCAMP-DX=4.24
##DATA TYPE=INFRARED SPECTRUM
##DATE=17/6/2020
##SAMPLING PROCEDURE=Diamant-ATR
##ORIGIN=Angelika Moesle
##XUNITS=1/CM
##YUNITS=TRANSMITTANCE
##RESOLUTION=4
##FIRSTX=3997.453
##LASTX=373.96442
##DELTAX=-1.4165319
##MAXY=0.98064989
##MINY=0.28044072
##XFACTOR=1
##YFACTOR=9.1330138e-010
##NPOINTS=2559
##FIRSTY=0.93235141
##XYDATA=(X++(Y..Y))
3997+1020858427+1020317464+1020201818+1020777110+1021782680+1022620589
3989+1022829170+1022367109+1021466808+1020480882+1019849986+1019830342
3980+1020222441+1020636664+1020908027+1021053107+1021060285+1020908680
3972+1020643256+1020356687+1020175060+1020176431+1020289597+1020402632
3963+1020486756+1020481665+1020257944+1019901609+1019764426+1020032004
3955+1020497132+1020895170+1021248699+1021765450+1022485691+1023060722
3946+1023015169+1022329387+1021551323+1021219592+1021247329+1021209280
3938+1021084302+1021225596+1021758010+1022329517+1022492544+1022210674
3929+1021811983+1021545645+1021498003+1021699078+1022005683+1022146651
3921+1022131640+1022327494+1022965830+1023650763+1023673344+1022915512
3912+1022002877+1021592504+1021709781+1021853555+1021678977+1021348878
3904+1021302084+1021794492+1022591025+1023079387+1022814420+1022053194
3895+1021494088+1021613453+1022335913+1023021695+1023108233+1022787271
3887+1022546451+1022570533+1022669667+1022713915+1022885883+1023233995
3878+1023418950+1023292536+1023082977+1022926672+1022792165+1022822709
3870+1023155157+1023452560+1023504966+1023659443+1024016235+1024082216
3861+1023731755+1023495895+1023626747+1023932699+1024329040+1024959088
3853+1025556830+1025594748+1025378401+1025340680+1025507687+1025706804
3844+1025740610+1025472706+1024942250+1024437507+1024331977+1024648828
3836+1024854602+1024504467+1023761188+1023119785+1022871264+1022947295
3827+1023264930+1023783639+1024294386+1024724925+1025382056+1026111499
3819+1025893652+1024546431+1023226947+1023091983+1023959196+1025005359
3810+1025833806+1026306309+1026262387+1025600556+1024576647+1023833891
3802+1024066357+1025168712+1026113587+1026561356+1026776070+1026698995
3793+1026292277+1025982996+1026119983+1026465289+1026563575+1026361064
3785+1026103276+1025841637+1025490197+1025310398+1025835046+1027019305
3776+1027990155+1028084656+1027457937+1026819797+1026866655+1027585526
3768+1028172761+1028019328+1027246550+1026362043+1025836025+1025889932
3759+1026425870+1027044236+1027376750+1027347381+1027142717+1027339289
3751+1028533925+1029793498+1029526116+1027996355+1026599208+1026487217
3742+1027227755+1027687988+1027669258+1027483716+1027451084+1027659142
3734+1027842661+1027920846+1028141695+1028416648+1028328151+1027789015
3725+1027336026+1027440120+1027817927+1028051633+1028183594+1028289842
3717+1028212832+1027857867+1027300914+1026665776+1026237783+1026540472
3708+1027721794+1029197844+1030173980+1030246096+1029670282+1029080697
3700+1028723253+1028362675+1027993288+1027951911+1028474601+1029433639
3691+1030382169+1030782883+1030575608+1030334984+1030268873+1030056181
3683+1029547000+1029058965+1029121160+1029920826+1030992050+1031306030
3674+1030290279+1029095838+1029137802+1030690079+1032531405+1033210465
3666+1032880626+1032247120+1031639327+1031242659+1031222885+1031554812
3657+1032062426+1032593470+1033082093+1033562949+1034162845+1034952591
3649+1035542176+1035236158+1034168197+1033034908+1032238636+1031844057
3640+1031768874+1031961595+1032461835+1033273248+1034135304+1034574001
3632+1034449545+1034309948+1034809274+1035502169+1035486245+1035004279
3623+1034616618+1034490073+1034512654+1034471473+1034230458+1033885674
3615+1033520594+1033034059+1032523834+1032543152+1033487375+1034800072
3606+1035344494+1034858221+1034134587+1033956615+1034458812+1035160975
3598+1035531929+1035486963+1035313364+1035203461+1034919176+1034168132
3589+1033172547+1032778555+1033727673+1035441932+1036679054+1036955181
3581+1036599629+1036177836+1035916523+1035793046+1036012851+1036744709
3572+1037559907+1037854373+1037679273+1037719997+1038419158+1039256088
3564+1039597152+1039476481+1039072700+1038476980+1037914088+1037687300
3555+1037901949+1038424052+1038985574+1039315869+1039382568+1039392488
3547+1039489077+1039693741+1040103722+1040755045+1041356703+1041594064
3538+1041574094+1041657957+1041899690+1041967303+1041647971+1041138987
3530+1040824942+1040887464+1041103484+1041075616+1040711776+1040339321
3521+1040313412+1040710601+1041449638+1042341063+1042962039+1042931235
3513+1042355355+1041667028+1041110728+1040688542+1040444981+1040449419
3504+1040563890+1040462080+1039989577+1039418788+1039092996+1038927294
3496+1038525275+1037735529+1036821980+1036071261+1035523902+1035051073
3488+1034435253+1033393135+1031668434+1029114699+1025712482+1021549953
3479+1016703142+1010997147+1003843947+994348595+981629977+964874916+942892694
3469+913876246+876125673+829452037+776205192+721447644+672268828+635545426
3459+614935681+610015581+617839552+634670121+656896622+681403734+706015396
3449+729963205+753265042+775417078+795541724+813604456+830177368+845405278
3439+859122875+871435297+882556869+892582090+901690368+910134532+917927503
3429+924863116+930874933+936157373+940908181+945164298+949033210+952836728
3420+956707989+960274995+963146821+965487669+967795690+970310920+972878360
3410+975239374+977234198+978856502+980304292+981895140+983742404+985561345
3400+986936172+987770623+988441133+989479661+991053996+992800300+994263623
3390+995413554+996530724+997740827+998926066+999971054+1000859869+1001578739
3380+1002085505+1002387542+1002613612+1002945213+1003435794+1003994966
3371+1004599691+1005372077+1006353238+1007340469+1008066453+1008463512
3363+1008662825+1008812538+1009005977+1009298551+1009669700+1010055143
3354+1010483985+1011011504+1011528256+1011906976+1012250128+1012647383
3346+1012882590+1012780845+1012586623+1012633808+1012936040+1013364883
3337+1013892663+1014472785+1014998607+1015461517+1015884028+1016127785
3329+1016021211+1015621345+1015167573+1014866776+1014812608+1014949203
3320+1015050818+1014952466+1014833492+1015018447+1015462235+1015649147
3312+1015101788+1013903040+1012627347+1011742122+1011160043+1010491882
3303+1009583227+1008554554+1007427400+1006019941+1004177636+1001881559
3295+999200039+996315487+993475835+990715739+987757440+984373170+980644573
3285+976699695+972528159+968290708+964398367+961008876+957851525+954774186
3275+952072565+950175309+949382562+949934555+951920634+955050509+958748758
3265+962503591+965987909+968893476+970874073+971753098+971623747+970606952
3255+968598618+965375874+960869344+955256609+948913583+942366545+936198945
3245+930878261+926583118+923217317+920647789+918868854+917856888+917447494
3235+917472360+917854930+918501228+919295151+920164517+920908970+921097319
3225+920488612+919464182+918712093+918585613+919005449+919801590+920888804
3216+922214227+923734199+925355328+926820348+927794527+928145314+928038218
3206+927707270+927218778+926523272+925717732+925201830+925496100+926873081
3196+929265747+932545727+936640644+941267453+945866461+950087400+954163130
3186+958539004+963202752+967580975+971130556+973900115+976385193+978893701
3176+981264700+983250061+984883329+986324594+987569940+988526954+989266773
3166+990001176+990783025+991373589+991509531+991236014+990848745+990523540
3156+990172295+989796512+989846569+990913812+993021280+995488672+997596335
3146+999137191+1000245354+1001013237+1001521047+1002063708+1003022288
3138+1004466163+1006103608+1007641266+1008899795+1009610442+1009615402
3129+1009340188+1009536107+1010437061+1011520620+1012120059+1011990578
3121+1011384220+1010840189+1010832749+1011450136+1012388811+1013243559
3112+1013806255+1014151691+1014454511+1014745061+1014975504+1015254111
3104+1015746911+1016392230+1017003482+1017569637+1018148127+1018577361
3095+1018614430+1018317158+1018046513+1018090957+1018417336+1018785027
3087+1018994455+1019001569+1018880572+1018753048+1018720351+1018843046
3078+1019202840+1019872763+1020762556+1021622525+1022217787+1022414750
3070+1022247090+1022055740+1022297604+1023043427+1023927804+1024624811
3061+1025034923+1025109453+1024916667+1024761929+1024879467+1025133927
3053+1025290101+1025397980+1025617459+1025773698+1025456717+1024657834
3044+1023969181+1023966375+1024640997+1025516302+1026051261+1025928632
3036+1025294147+1024760493+1024922345+1025788056+1026778289+1027289754
3027+1027191599+1026779464+1026329412+1025778267+1024832151+1023293645
3019+1021127832+1018120455+1013495930+1005999449+994565333+979356089+962707015
3009+948973755+942563769+945253316+955108854+967962175+979995664+989378503
2999+996196774+1001207590+1004675592+1006274466+1005686448+1002814230+997420648
2989+988831274+976014892+957992166+934553343+907013924+878370975+852512271
2979+833001617+822324355+821654889+830489912+846287174+865101734+883287878
2969+898901883+911728185+922343448+931290592+938808871+944924848+949726301
2959+953572240+956840799+959498368+961325140+962563698+963808717+965207496
2949+966285964+966613584+966190028+965149347+963431629+960803298+957043375
2939+952157277+946496312+940636231+935087062+930177143+926281277+924021160
2929+923976846+926180446+930074354+934910461+940041295+945007602+949617377
2919+953889026+957816087+961300536+964323641+967000266+969414534+971489175
2910+973049348+974034361+974648092+975244203+976070039+977179703+978500297
2900+979860636+981028906+981837382+982262308+982386569+982326266+982127149
2890+981720561+981066497+980333465+979828722+979800006+980378757+981550878
2880+983037305+984353787+985168136+985580075+986012572+986837038+988077750
2870+989454274+990734078+991929889+993078123+994063331+994867174+995796974
2860+997206520+999066316+1000980344+1002583657+1003811251+1004778250+1005538628
2850+1006103347+1006638437+1007429227+1008546853+1009658345+1010313061
2842+1010450113+1010521968+1010994601+1011840408+1012707881+1013441371
2833+1014128915+1014750608+1015141337+1015284328+1015347829+1015409176
2825+1015321724+1014899016+1014177340+1013441827+1012941000+1012659261
2816+1012470847+1012372169+1012367014+1012317805+1012150015+1012036262
2808+1012192174+1012643206+1013252696+1013806059+1014113774+1014235685
2799+1014492298+1015044944+1015608945+1015779738+1015565154+1015416681
2791+1015727202+1016400127+1017021821+1017404718+1017725419+1018108904
2782+1018418119+1018553474+1018606272+1018611232+1018490887+1018329231
2774+1018398279+1018831298+1019478510+1020084019+1020476575+1020637643
2765+1020657222+1020594505+1020435655+1020260163+1020293969+1020659963
2757+1021203864+1021657245+1021854991+1021793448+1021595832+1021405134
2748+1021246937+1021052193+1020833301+1020752245+1020979033+1021512296
2740+1022146585+1022640756+1022919428+1023086631+1023284965+1023584913
2731+1023927086+1024126921+1024048279+1023793102+1023594964+1023555023
2723+1023624463+1023767845+1023983865+1024213525+1024382621+1024487107
2714+1024508578+1024337851+1023939160+1023494133+1023217418+1023112476
2706+1023060004+1023060265+1023234713+1023642801+1024208108+1024798215
2697+1025308897+1025680373+1025911795+1026078606+1026248812+1026353820
2689+1026255926+1025976731+1025695448+1025511733+1025386429+1025321819
2680+1025405942+1025660206+1025973599+1026230669+1026432918+1026647176
2672+1026861956+1026974665+1026939619+1026837157+1026738414+1026590006
2663+1026310681+1025956043+1025706217+1025697798+1025908336+1026202084
2655+1026460720+1026651614+1026780574+1026835264+1026818557+1026818100
2646+1026934268+1027147155+1027363958+1027585982+1027877838+1028180331
2638+1028315751+1028235282+1028168519+1028439686+1029124097+1029944582
2629+1030542520+1030755538+1030614178+1030239896+1029848188+1029692863
2621+1029839900+1030060423+1030089008+1029960701+1029928070+1030072692
2612+1030246487+1030419108+1030748228+1031236003+1031646898+1031866246
2604+1032062491+1032393113+1032751863+1032893418+1032725692+1032392721
2595+1032103215+1032000100+1032198042+1032737701+1033441038+1033989050
2587+1034217601+1034209052+1034106263+1033976194+1033874384+1033919546
2578+1034173092+1034490595+1034662432+1034664521+1034552791+1034231110
2570+1033660778+1033156753+1033109764+1033535539+1034156450+1034730045
2561+1035118881+1035251430+1035178401+1035076395+1035156733+1035538456
2553+1036080137+1036389483+1036201983+1035722562+1035405319+1035442846
2544+1035644116+1035772423+1035832530+1036008413+1036416045+1036953158
2536+1037345388+1037347933+1036951005+1036443390+1036254193+1036591863
2527+1037117425+1037153776+1036464666+1035675573+1035651491+1036586838
2519+1037868013+1038654169+1038538066+1037871602+1037393030+1037392965
2510+1037490859+1037371036+1037305056+1037687953+1038399057+1038925989
2502+1038967626+1038674400+1038308733+1037964667+1037720845+1037704138
2493+1037794657+1037687104+1037429185+1037474739+1038079073+1039040460
2485+1040039242+1040885310+1041500543+1041904324+1042154868+1042264966
2476+1042278606+1042361360+1042694657+1043294161+1043940590+1044291117
2468+1044143361+1043626741+1043094914+1042854355+1042944548+1043092891
2459+1042962104+1042539397+1042153497+1042046466+1042094043+1042046858
2451+1041909610+1041929320+1042230573+1042580316+1042617320+1042259093
2442+1041768381+1041431495+1041261681+1041044551+1040671509+1040414308
2434+1040728679+1041678253+1042673903+1042956948+1042303602+1041164961
2425+1040176686+1039638985+1039439803+1039326115+1039162697+1038998626
2417+1038978721+1039174575+1039476024+1039685909+1039710187+1039586383
2408+1039386810+1039183581+1039033150+1038931471+1038855505+1038834882
2400+1038874888+1038901189+1038907780+1039008742+1039213341+1039345368
2391+1039308429+1039231354+1039228221+1039222935+1039124323+1039030018
2383+1039149971+1039601720+1040297618+1040981768+1041430450+1041696396
2374+1042044704+1042594478+1043245018+1043948748+1044602225+1044720677
2366+1043951358+1042895210+1042597154+1043324574+1044548774+1045734535
2357+1046551691+1046845896+1046771496+1046547449+1046143276+1045522300
2349+1044872935+1044470720+1044512749+1045006202+1045687154+1046178192
2340+1046294294+1046149280+1046031024+1046177604+1046547579+1046764448
2332+1046403348+1045362667+1043908024+1042471523+1041482465+1041186955
2323+1041490688+1042041115+1042462125+1042488753+1042106704+1041666767
2315+1041637138+1042177057+1043044335+1043823769+1044161048+1043974331
2306+1043567417+1043394797+1043637705+1044049775+1044219001+1044013423
2298+1043807780+1044126589+1045001307+1045872305+1046229162+1046158221
2289+1046132442+1046389643+1046684501+1046680585+1046447009+1046380050
2281+1046676473+1047112364+1047294252+1046964935+1046279741+1045942658
2272+1046665705+1048328472+1050128878+1051573014+1052717790+1053582131
2264+1054096271+1054483084+1054979800+1055434225+1055713419+1056064990
2255+1056548196+1056599232+1055703043+1054176871+1052964548+1052881077
2247+1054102928+1056051611+1057694277+1058238961+1057680768+1056688707
2238+1056057224+1056200084+1056809770+1056970708+1056026094+1054436943
2230+1053360955+1053376749+1054007122+1054353146+1053880056+1052902679
2221+1052484410+1053302023+1054577781+1054960874+1054320841+1053675130
2213+1053662926+1054079303+1054511278+1054686313+1054650875+1054932027
2204+1055919585+1057088377+1057511933+1057084983+1056613981+1056676503
2196+1056868637+1056537754+1055966313+1055952869+1056167845+1055230866
2187+1052899808+1050852382+1050691313+1052248158+1054158402+1055286470
2179+1055548174+1055856019+1057064099+1058757083+1059691712+1059493247
2170+1059047829+1059260781+1060192800+1061283342+1061876647+1061737506
2162+1061523640+1062348823+1064319892+1066091647+1066624910+1066322286
2153+1065893705+1065305426+1064214949+1062802008+1061785017+1061817388
2145+1062829027+1063745056+1063182034+1060879496+1058120639+1056418323
2136+1056176459+1056776290+1057449411+1057806921+1057826696+1057630385
2128+1057347405+1057152335+1057246574+1057729650+1058517242+1059271028
2119+1059446911+1058725430+1057412799+1056156946+1055419084+1055390825
2111+1055979627+1056680745+1057026377+1057238743+1057827087+1058604302
2102+1058764196+1057952131+1056781381+1056162558+1056369507+1056974950
2094+1057586463+1058177810+1058648420+1058645809+1058039583+1057156838
2085+1056422174+1056042736+1056037515+1056356128+1056894024+1057420630
2077+1057632082+1057506190+1057499533+1058072867+1059070018+1059847233
2068+1059988005+1059739419+1059732827+1060253494+1060799549+1060577133
2060+1059533776+1058744552+1059450305+1061514634+1063238943+1063318499
2051+1062613203+1063021683+1064718843+1065686822+1064543678+1062416435
2043+1061287258+1061748992+1062894290+1063612834+1063399555+1062297331
2034+1060814690+1059883454+1060257149+1061827112+1063893660+1065976915
2026+1067978070+1069660024+1070526910+1070497607+1070384050+1071187435
2017+1072790225+1073741823+1072796948+1070430256+1068400777+1067848523
2009+1068135353+1067973110+1067243928+1066741926+1066741926+1066916570
2000+1067039198+1067012375+1066682472+1065988924+1065042221+1064179446
1992+1064037369+1065053446+1066851959+1068549120+1069255720+1068135680
1983+1064935908+1061036975+1059181226+1061090099+1065308558+1068580576
1975+1069565915+1069410067+1069255916+1069271579+1069277779+1068772906
1966+1067141792+1064808906+1063046026+1062291066+1061830636+1061120576
1958+1060411691+1060087335+1060168718+1060510238+1061060469+1061828156
1949+1062600607+1062812189+1062044372+1060811818+1060389828+1061315060
1941+1062522944+1062931555+1062834901+1062911389+1063014635+1062683948
1932+1062132607+1061887806+1061986810+1062189908+1062531624+1063130737
1924+1063647293+1063382913+1062127452+1060572499+1059646485+1059495075
1915+1059428376+1059022441+1058579437+1058532187+1058902880+1059458528
1907+1060118270+1060922308+1061720277+1062083464+1061635174+1060529752
1898+1059462117+1059038170+1059221624+1059552702+1059783406+1059993683
1890+1060303355+1060800528+1061472082+1061977739+1061851390+1061162410
1881+1060637958+1060825980+1061467057+1061940800+1062071652+1062216209
1873+1062641397+1063115009+1063187581+1062793263+1062339752+1062043002
1864+1061774706+1061502690+1061441409+1061809883+1062483852+1063006020
1856+1063126234+1063133217+1063399620+1063886938+1064341755+1064635242
1847+1064724586+1064597259+1064390114+1064316889+1064430577+1064672507
1839+1064931992+1065003455+1064755260+1064324591+1063998211+1064024708
1830+1064474369+1065044048+1065285521+1065099717+1064777841+1064716494
1822+1065043852+1065554730+1065985073+1066235943+1066351589+1066385852
1813+1066360334+1066299444+1066275297+1066379587+1066543853+1066523361
1805+1066234508+1065966799+1066061104+1066407650+1066591822+1066547117
1796+1066560104+1066792766+1067104983+1067178600+1066842039+1066265246
1788+1065694523+1065257392+1064987726+1064848455+1064684646+1064249865
1779+1063491380+1062719842+1062266135+1062204462+1062411867+1062630302
1771+1062654775+1062580245+1062490705+1062255954+1061867901+1061610766
1762+1061762437+1062264047+1062891745+1063576417+1064182840+1064412043
1754+1064204637+1063891637+1063833031+1063848890+1063376517+1062430467
1745+1061516787+1060978565+1060883868+1061153665+1061569259+1061985440
1737+1062582268+1063553575+1064445588+1064405777+1063626343+1062822240
1728+1062348171+1062284148+1062565431+1063037542+1063523424+1064009175
1720+1064696785+1065633437+1066226937+1065971042+1065337535+1064775361
1711+1064321849+1063909127+1063434732+1062773227+1061924158+1061049048
1703+1060239593+1059405273+1058425091+1057485893+1056887302+1056479997
1694+1055925589+1055265390+1054711439+1054327693+1054123486+1054129229
1686+1054224643+1053934289+1052819469+1051150764+1049330583+1047560654
1677+1045834974+1044036265+1042359859+1041158696+1040331424+1039439085
1669+1038115881+1036466102+1034730045+1032584920+1029210636+1024332956
1660+1018664030+1012729940+1006643267+999731344+987619017+963259204+935251198
1650+913332803+888198450+846982224+790366055+737014333+692878704+652295722
1640+614618504+584229840+566965403+570892464+597093016+631108075+665447556
1630+703533646+747952973+794237577+834753011+867781166+895367900+916143151
1621+928512548+935038376+938760446+940062049+938094178+933238688+925921940
1611+916008840+903641727+889686835+875223349+860524916+844849303+827414074
1601+808137453+787205832+764415394+739250238+711689348+682823657+654112901
1591+626534651+601033652+578614690+559416385+542472519+526516505+511068235
1581+497051245+486058534+479643588+479393958+484046318+488909901+492979267
1571+499272955+510206700+523975594+538194311+553363778+568761045+582295319
1561+596292828+621099170+658630721+686577445+703825240+719927737+736738206
1551+753599057+770104683+784794239+796706340+806937987+816498472+825035700
1541+832485649+837870095+838535450+834667713+825693288+807924500+780561357
1531+750800652+724224969+701407382+684795248+678354719+682075745+694187224
1521+712765075+731888393+748245742+764860095+782906316+799859971+814712619
1511+828173603+840561535+853428953+870041348+886013254+893941580+896588054
1502+897233438+896452438+894036929+890442970+887064117+884922843+883875962
1492+883255573+881853270+877467477+868565690+856046123+841637458+826413464
1482+810933379+795617756+780475340+765625890+753508733+750643629+764735182
1472+793192849+821846631+843904885+861933876+878824226+893705264+903014943
1462+905500413+902048466+890157314+860713134+814460770+774100139+751556591
1452+747053847+760019942+787083399+819525101+846822003+864419999+874325789
1442+879438154+881170164+880206950+876959928+871920331+866290171+860903114
1432+855594765+850370866+846030039+843474020+843092558+845060298+849097849
1422+854416510+861115219+870326351+881246652+890910578+898711642+905960516
1412+913388994+920865505+927945153+934434499+940636623+946713964+951975128
1402+955656931+957735683+958216214+956355570+950331353+936686459+911213979
1392+872534454+823281892+769719240+724925501+705877235+716373392+743436262
1383+774210564+802712349+826735079+845735573+860264844+871244273+878560825
1373+880159634+871775447+846154887+798101007+736458032+682753500+652924791
1363+645441035+647699652+656127630+678600694+717408918+763068304+803484865
1353+834041450+857195271+876285893+892679528+906657719+918549262+928795202
1343+937854924+946296477+954444087+961880331+968004596+972955696+977301941
1333+981343603+985023971+988192482+990812785+992970636+994774631+996323645
1323+997738217+999105930+1000364850+1001314621+1001802134+1001832220+1001429679
1313+1000474035+998764345+996231363+993053324+989647843+986573506+984328791
1303+983171746+983125344+984087514+985876108+988193330+990630571+992784898
1293+994417317+995539642+996348379+997055437+997783118+998585720+999489284
1283+1000480039+1001510344+1002533992+1003510520+1004396919+1005153773
1275+1005751189+1006157189+1006295742+1006030318+1005248208+1003959854
1266+1002236654+1000086504+997455302+994222573+990005353+983980222+975034057
1256+962240908+945609586+926839862+909044577+894728781+883351118+870841667
1247+851582014+821013029+777325690+722307416+661597962+603889619+558586568
1237+532453857+527272607+540275054+566552746+601166853+639948253+679571610
1227+717554062+752181613+782268698+806962983+825774932+838755320+846667004
1217+850988383+853641514+856524304+861055112+867902424+876967759+887571079
1207+898724694+909433348+918976211+927018617+933453337+938156569+940971552
1197+941889604+941043014+938436612+933864167+927219104+918739568+908853553
1187+897931555+886235344+873904387+860878967+846934647+831863956+815556207
1177+797893928+778710111+757955548+735840581+712719456+688884879+664587196
1167+640307656+617028465+596216014+579445813+567865117+561811727+560762366
1157+563532643+568534322+574029388+578408460+580395387+579109905+574136484
1147+565580265+553925430+539811100+524017949+507556409+491534250+476879022
1137+464264758+454242800+447251420+443465751+442822912+445248667+450672760
1128+458794035+469070159+481002132+494276791+508659188+523897539+539724725
1118+555891147+572196220+588473948+604563392+620351127+635823120+651063429
1108+666251333+681629151+697358867+713335015+729086790+743890818+757092447
1098+768266359+776964917+782497183+784137565+781332633+773577710+760381041
1088+741489406+716895952+686655239+651123080+611576407+570388048+530444773
1078+494440339+464572995+442360623+428266884+421622310+421182373+425678886
1068+433874854+444557762+456725986+469651456+482774573+495685424+508184205
1058+520263280+531960796+543189758+553756726+563551243+572625389+581129855
1048+589240721+597013460+604253394+610719375+616435683+621631192+626484659
1038+631124130+635767842+640738717+646349494+652711055+659607184+666634687
1028+673440884+679812234+685736403+691448207+697196820+702925527+708377062
1018+713473373+718358166+723087895+727524724+731618531+735596693+739656303
1009+743570834+746899500+749555893+751859607+754014325+755852453+757153924
999+757953655+758474714+758959943+759641874+760728305+762314779+764348826
989+766733400+769437240+772455320+775700645+779045627+782480345+786103934
979+789936690+793871974+797801516+801641190+805288534+808756210+812285820
969+816115509+820163437+824103029+827752918+831281746+834979147+838873968
959+842680554+846136678+849270469+852292009+855367651+858588046+862062444
949+865917781+870167371+874613272+878955208+883018082+886814943+890399179
939+893706438+896437036+897952374+897244337+892829110+882418447+863222230
929+834130860+798836127+766245299+746110994+743058651+754529509+774008184
919+795615015+816131368+834331805+849652322+861332609+867882127+866744335
909+854624698+829152350+791751976+749707238+714413353+695569817+695762081
899+710253173+731523248+753841443+774647368+793415069+810230955+825210670
890+838457461+850006504+859753379+867564819+873457010+877628284+880328534
880+881629549+881248871+878604943+872985225+863511213+848889661+827320813
870+796992452+757397485+711025233+664044339+624656321+599639703+591482043
860+598107984+614916298+637114932+660886336+683675142+704283842+722603188
850+738916223+753449409+766369821+777728558+787394442+795365188+802050975
840+808026049+813703134+819297987+824725832+829546994+833464396+836790387
830+840049678+843347605+846467561+849305320+851892600+854200098+856128224
820+857609364+858652264+859273044+859372309+858764321+857303608+854632791
810+849314848+837545412+812148703+764420615+691942965+608633575+544172388
800+526156025+559454759+624215731+693462088+750483474+791785065+820462863
790+840488571+854867998+865613656+874053055+881053474+886969551+891400637
781+892910101+888580499+873894336+845034846+804369894+763817848+739172967
771+738461602+756683575+782236458+806267085+825660070+840573478+851846590
761+860199973+866290562+870814974+874460491+877725918+880759726+883362408
751+885251180+886380880+886877987+886759339+886051107+885027394+883838109
741+882038486+879009246+874704444+869574001+863989068+858145825+852402564
731+847442523+844117120+843157821+844862617+848848610+853914443+857973400
721+858495503+854316397+847725437+843632217+845774404+854072705+865556681
711+877086276+886926543+894694192+900830791+906061935+910945618+915652570
701+919917236+923336291+925946283+928245167+930571395+932909045+935247804
691+937632248+939885056+941577974+942411968+942658009+942953519+943546040
681+944126292+944309289+943702736+941563094+936372675+925720865+907816657
671+883067616+854073684+829374048+823592151+837094185+857939072+879310043
662+897770356+911007292+919478213+925376277+930324376+934850158+938820815
652+942137603+945039972+947616484+949664105+951180292+952391897+953482308
642+954628585+955887374+956958860+957502303+957659261+957932973+958550425
632+959183866+959462799+959537721+959794073+960238709+960569592+960634855
622+960593152+960842717+961680888+962786244+963460605+963556672+963463020
612+963283156+962895037+962594176+962873566+963713564+964614452+965201883
602+965489301+965584519+965374699+964705886+963840304+963409439+963850681
592+965105294+966816421+968544581+969827257+970384601+970428327+970516367
582+970903963+971232431+971048129+970544561+970594095+971814837+973614394
572+974709178+974620029+974057268+973960418+974818363+976721819+979239203
562+981424268+982503389+982198742+980416545+977535712+974810662+973470620
552+973578500+974294694+974796043+974693515+974036710+973069645+971914558
543+970584958+969058591+967133011+964560741+961379438+957654953+952997797
533+946831502+938947816+929055013+915655638+896197195+869199653+835533620
523+796547947+753209829+708664611+670003685+645442406+638756228+647546741
513+666416056+689733948+712753589+732369185+746956083+755843512+759532690
503+759684034+758042412+755026747+749451930+739797271+725763149+708811321
493+691177171+674420544+658714584+643108607+626497516+608552127+589871291
483+571152471+552452122+533583328+514766876+496206645+476463265+451607193
473+418550193+381354940+349513656+327843553+314925817+308465873+307062624
463+309084075+312817567+317766285+324642247+333665880+343690350+354069557
453+365642095+379132284+394261777+410861055+429335628+449114903+468215053
443+485275119+500700482+515341124+529258784+542010165+553341589+563906207
433+575253589+588297608+602112707+615054199+626805948+638281897+649691931
424+659651954+666956172+673200847+682954770+697396002+710742384+720542644
414+728840684+737151907+745509467+753516434+760323153+764546964+765958208
404+766274537+767412329+770018797+774011382+779878381+788189147+797759225
394+806969574+815220821+821651561+824168487+821627935+816931948+816445478
384+823470893+833107931+839683815+843289456+846766987+851845350+857364302
374+859920256
##END=
