##TITLE=CZ-192
##JCAMP-DX=5.0
##DATA TYPE=LINK
##BLOCKS=1


$$ === CHEMSPECTRA SPECTRUM ORIG ===
##TITLE=CZ-192
##JCAMP-DX=5.00
##DATA TYPE=INFRARED SPECTRUM
##DATA CLASS=XYDATA
##$CSCATEGORY=SPECTRUM
##ORIGIN=Marie
##OWNER=
##XUNITS=1/CM
##YUNITS=TRANSMITTANCE
##XFACTOR=1.0
##YFACTOR=7.9094759e-10
##FIRSTX=3997.453
##LASTX=373.96442
##MAXX=3997.453
##MAXY=0.849273506393109
##MINX=373.96442
##MINY=0.39393019908420296
##NPOINTS=2559
##XYDATA= (X++(Y..Y))
2559I22422203I22653252I22932003I23177898I23317310I23301034I23305329I23555218
2551I23961627I24256279I24322519I24141582I23772929I23572551I23923872I24607073
2543I24923578I24535105I23789056I23286414I23405029I24064567I24788762I25145961
2535I25111372I24898032I24612724I24242714I23843389I23571344I23581594I23950775
2527I24578964I25043323I24810315I23966827I23371268I23572023I24116036I24346180
2519I24370824I24666304I25236542I25779576I26136548I26156971I25568572I24518074
2511I23781520I23798023I24011966I23610004I22682114I22175328I22575407I23386566
2503I23952207I24275872I24740834I25286655I25525090I25481608I25654707I26312888
2495I27142359I27668136I27648693I26969035I25526371I23647306I22299067I22285502
2487I23438337I24811671I25379950I25012048I24788837I25248148I25446265I24714534
2479I24246783I25104136I26063301I25757721I25150709I25662242I26910029I27905591
2471I28357289I28128727I27044846I26064506I26280710I26907090I26370387I24631338
2463I23249112I23236979I24532994I26677774I28603561I28271306I25029759I22550840
2455I22906155I24476401I25794346I26254033I25682439I24616718I24209330I24761331
2447I25064423I24156278I22873902I22340891I22579627I23278125I24319354I25401125
2439I26067747I26416883I26972727I27398955I26500531I24643395I24115961I25111673
2431I25661037I25080626I24697126I25373544I26792545I28134605I28408006I27557208
2423I26848235I26596688I25654707I23980391I23180988I23464562I23763961I23964943
2415I24768792I26124869I27183279I27355323I26796841I26057574I25737148I26299474
2407I27587201I28608083I28416295I27419076I26919976I27398805I28353371I29083444
2399I29142752I28751867I28656011I28941921I28939961I28547947I28384796I28571459
2391I28522551I28118478I28163543I29213815I30821438I31662213I30504932I28478240
2383I27955629I28600095I28118177I25771739I24312798I25608964I28465429I31059722
2375I32082563I31227620I29434766I27972886I27557283I28294290I29680887I30825131
2367I31100039I30552634I29456243I28125336I27350048I27937618I29794602I32050159
2359I33655069I33638189I31764851I29380508I28069722I28185171I29424291I31165827
2351I32462596I32772546I32582492I32468776I32354833I32156188I32125141I32350312
2343I32375256I31544654I30075615I29321954I29946902I31265752I32371638I32995306
2335I33658310I34827195I35601127I34140454I31242391I30277349I31377659I31702379
2327I29797240I27503552I26482746I26491488I26989683I27947565I29448556I31046986
2319I31793186I31460705I31445105I32857776I34754098I34903911I32163197I28992261
2311I28300093I29702213I31425964I32311276I32292964I32060031I32263273I33016933
2303I34083633I35348903I36716886I37284184I35599169I32595453I31415866I32506680
2295I34285367I35650413I36138058I35584625I34574745I34054319I34073686I34173461
2287I34365399I34766306I34778967I33802471I32543004I32310672I33254464I34315662
2279I34553343I34260048I34408203I35097958I35454405I35107304I34903911I35549432
2271I36359385I35857573I33777301I31802002I31240054I31920994I33148282I34281450
2263I34852140I34658393I33799381I32679855I31866586I31582484I31322346I30306438
2255I28653298I27620057I27770096I28237093I28089164I27290288I26400982I25667442
2247I24737443I23209925I21257235I19659182I19006954I18920895I18388186I16985462
2239I15432775I14483559I13953110I13273150I12244054I11021061I09841020I08906802
2231I08226842I07480566I06267972I04542413I02610748I00664463H98618176H96480633
2223H94476247H92637649H90631003H88175294H85450330H82954605H80998751H79408535
2215H77798124H76112881H74599983H73171412H71331382H68926918H66494722H64569085
2207H63123709H61945478H61020301H60359482H59855936H59517200H59428277H59307402
2199H58628874H57422535H56343550H55761859H55431185H55112117H54912417H54972855
2191H55234801H55460349H55398027H55124175H55021310H55213475H55430281H55556582
2183H55754097H55957791H55897730H55688987H55784617H56228705H56469626H56119812
2175H55558994H55455225H55867964H56248298H56254628H56104966H56056737H56029608
2167H55919433H55822597H55799086H55773312H55782884H55991024H56316573H56381230
2159H56033602H55690267H55901724H56727352H57793525H58839500H59894671H60965892
2151H61895515H62594466H63171938H63741046H64278427H64720254H65059820H65316114
2143H65520713H65770827H66180250H66760134H67492694H68496771H69884951H71443667
2135H72688288H73292287H73332226H73106302H72848124H72627022H72463946H72488513
2127H72895524H73720474H74719050H75544979H76084998H76572719H77287645H78203553
2119H79053295H79589697H79660911H79292709H78873716H78952466H79619313H80321805
2111H80504098H80287969H80337631H81075240H82179318H82958298H83141194H83114442
2103H83354760H83859813H84272853H84413472H84487926H84811742H85440232H86041970
2095H86122377H85538575H84805487H84657408H85292378H86261263H87020425H87329772
2087H87238362H86991035H86927960H87221406H87646730H87765720H87406034H86829014
2079H86351769H85993363H85628251H85271504H85027719H84910688H84882127H84985895
2071H85298181H85743851H86085226H86182287H86194119H86387413H86782367H87134216
2063H87282522H87401287H87797974H88479667H89085475H89358348H89485327H89732276
2055H89981337H90017584H90098669H90702216H91731162H92492735H92531394H92068767
2047H91607348H91491597H91846159H92581583H93438183H94183102H94714455H94972558
2039H94957938H94865323H95027570H95616949H96402788H96879204H96745820H96223585
2031H95790876H95706023H95891178H96132476H96311152H96505199H96859234H97325779
2023H97655471H97714703H97684109H97835278H98171151H98400693H98301821H98027065
2015H97916891H98028045H98057209H97850651H97793151H98369645H99378620I00008166
2007H99797388H99105446H98511018H98179892H98001820H97975595H98193683H98648321
1999H99191204H99554658H99466112H98943350H98404461H98237089H98343345H98355327
1991H98164067H98005286H98200616H98945535I00105001I01129425I01459420I01112469
1983I00658283I00589632I00897019I01271024I01534401I01694539I01733047I01678186
1975I01773213I02173442I02608638I02718586I02552797I02424838I02494469I02736672
1967I03132831I03708344I04394559I04917623I04972785I04592299I04160194I03987999
1959I04090638I04380317I04807072I05280323I05656664I05877163I06016123I06156442
1951I06279954I06375132I06595179I07101588I07761880I08238070I08367009I08244777
1943I08021791I07845980I07914029I08288560I08748474I09074701I09348704I09687591
1935I09907034I09809597I09578698I09480958I09304770I08377483I06073170I02303586
1927H97752836H93642329H91023319H90223012H90925353H92524461H94354693H95943176
1919H97293149H98797983I00724298I02810372I04446029I05196600I05106471I04528396
1911I03726732I02666438I01110435H98787885H95596376H91947290H88797153H86914169
1903H86177389H85965405H86028781H86528032H87414927H88298053H88921042H89489019
1895H90497693H92325138H94943470H97884185I00390233I01674343I01237037H99051414
1887H95448975H90909603H86060357H81726187H78688258H77269258H77234969H78100010
1879H79392710H80679457H81616917H82085120H82159574H82010590H81909082H82135836
1871H82741568H83536977H84359817H85182129H85962616H86612057H87164058H87805359
1863H88610565H89371385H89838080H90020297H90106507H90241098H90526782H91084435
1855H91942015H92888141H93507362H93465011H92895150H92407806H92535387H93251897
1847H94092370H94580995H94555976H94255974H94118519H94452056H95291023H96403014
1839H97334821H97707997H97625630H97520731H97515079H97283955H96670838H96040388
1831H95785449H95773242H95555079H94965776H94297722H93982648H94201339H94725608
1823H95142190H95309637H95455682H95738351H95980553H95981835H95871585H95999318
1815H96570008H97431055H98201520H98628803H98793460H98945610H99225793H99587213
1807H99934314I00286841I00746604I01285719I01699211I01828677I01715865I01496722
1799I01254972I00968459I00556776I00047352H99669504H99650137H99959635I00393474
1791I00822867I01242237I01645028I01965000I02108709I02010065I01704937I01336736
1783I01033568I00840802I00825127I01086998I01562209I02011572I02339382I02701027
1775I03179177I03606384I03825828I03915279I04059289I04321311I04551079I04468034
1767I03932687I03216705I02835090I02969982I03230798I03183322I02909770I02752271
1759I02741645I02648201I02412329I02145861I01880221I01618351I01483459I01596497
1751I01941489I02460407I03106908I03724471I04078430I04143163I04183329I04393052
1743I04643092I04774366I04917171I05232395I05548223I05572413I05355757I05266608
1735I05527650I05949582I06167143I06050261I05802558I05688013I05760056I05887412
1727I05965182I06013336I06055537I05999771I05770530I05515668I05481003I05651313
1719I05697207I05394115I04979265I04882506I05125462I05272260I05043622I04624101
1711I04240602I03854992I03438109I03171943I03184980I03359962I03517989I03621607
1703I03744818I03939243I04181370I04414981I04574139I04588005I04460272I04331861
1695I04363662I04585141I04910238I05200519I05312351I05218906I05080774I05077609
1687I05221996I05398862I05518230I05584018I05655232I05756062I05837976I05836846
1679I05727576I05510996I05202101I04833597I04461176I04194784I04175417I04419578
1671I04731337I04880396I04844450I04806092I04921165I05142040I05305719I05366609
1663I05403535I05416044I05342193I05259600I05284091I05300217I05107978I04788005
1655I04638419I04786499I05083034I05335486I05510393I05691178I05865106I05863975
1647I05616421I05328704I05254249I05408734I05639256I05841292I06038732I06349962
1639I06846500I07375969I07639196I07515080I07193450I06956146I06908595I06949892
1631I06949212I06890961I06849589I06893599I07036252I07205206I07307392I07393603
1623I07617945I07919756I07975144I07621637I07103472I06762249I06687041I06759988
1615I06868203I06987797I07164437I07438215I07733093I07876048I07787954I07575819
1607I07401063I07395863I07690817I08263994I08766107I08796175I08358945I07811992
1599I07440325I07280791I07272125I07429699I07829099I08376428I08727825I08662866
1591I08404989I08293233I08344626I08400619I08481403I08746816I09263850I09966117
1583I10737336I11436737I11900193I12040812I11940208I11722121I11388283I10948264
1575I10605383I10569588I10788353I11039147I11166050I11154596I11137716I11330709
1567I11766959I12127473I12022651I11457159I10915860I10951203I11678413I12687916
1559I13477295I13896441I14086118I14123420I13928016I13428841I12667494
1552I11845408I11318953I11345856I11812928I12376308I12775407I12919794
1545I12897337I12954308I13225674I13547681I13727864I13768406I13677072
1538I13368027I12878271I12450009I12331169I12572241I13012862I13489429
1531I14027262I14701119I15364274I15698564I15521698I14958920I14344521
1524I13970066I13957029I14351229I15115139I15944836I16405652I16415601
1517I16336399I16458932I16613266I16430671I15875883I15329232I15141363
1510I15307303I15624412I15906931I15991031I15773923I15296753I14698480
1503I14154468I13850020I13880163I14174514I14563137I14867737I15011596
1496I15096374I15215365I15225614I14931641I14399835I13896441I13616182
1489I13565767I13617463I13700885I13941279I14453641I15048672I15354929
1482I15189517I14693809I14210309I14029373I14127716I14231485I14197422
1475I14165998I14298780I14553341I14770147I14894414I15108582I15679122
1468I16524418I17067452I16838965I16144536I15734058I15850035I16044008
1461I15914090I15551464I15246187I15160654I15333678I15717253I16164505
1454I16491336I16528337I16186888I15608511I15156737I15107904I15411674
1447I15800524I16072568I16258629I16511909I16805430I16862251I16511005
1440I15983344I15697132I15831346I16217785I16578375I16784028I16883050
1433I16938739I16964814I17030451I17249895I17551103I17607547I17207468
1426I16640395I16451095I16750645I17085764I17113195I17013269I17069713
1419I17315457I17787352I18604765I19569732I20173052I20199880I19874557
1412I19368901I18736417I18255479I18112223I17829251I16813042I15469550
1405I14978438I15795777I17017037I17440929I16836403I15900676I15309639
1398I15180625I15377160I15893668I16706861I17447184I17457282I16517410
1391I15409715I15003382I15261033I15751014I16341825I16986818I17339194
1384I17058258I16369406I15879952I15706326I15266232I14202244I13038785
1377I12626875I13162222I14031935I14604886I14852287I15170150I15861263
1370I16841000I17726839I18105138I17761730I16903246I16211681I16299473
1363I16972425I17396618I17144996I16692844I16719522I17302721I17977105
1356I18277710I18095041I17704683I17468887I17419452I17241153I16796689
1349I16454712I16668655I17372729I18020963I18134077I17675143I17054867
1342I16909727I17624804I18852620I19733561I19738686I19056992I18169721
1335I17511088I17497222I18195946I18904090I18761964I17895567I17313724
1328I17658866I18641541I19647803I20322564I20569513I20371999I19687668
1321I18535058I17213723I16173700I15578217I15350333I15563522I16259231
1314I17027134I17331131I17167076I16978755I17069336I17385013I17726009
1307I17990971I18192404I18249074I17962787I17441607I17347258I18329180
1300I20170942I21772537I22131620I21314056I20400483I20519023I21907504
1293I23693953I24540003I23785137I22099065I20886697I20994912I22029660
1286I22847602I22676990I21744730I20845250I20573131I21131763I22364177
1279I23556725I23830202I23139465I22247220I21722197I21837947I22933510
1272I24676704I25667442I25001273I23561850I22745265I22493266I21618956
1265I19912312I18888039I20064988I23278502I27085765I30116459I31554375
1258I31213529I29797391I28431367I27694135I27407471I27116813I26391261
1251I25013933I23284304I21988665I21786554I22603817I23750321I24664194
1244I25331193I25975885I26699402I27428044I27892328I27771980I27095185
1237I26312059I25847851I25771588I25863525I25799771I25323506I24336309
1230I22884980I21282330I20188650I20160467I21087226I22384674I23606763
1223I24547313I24964423I24660803I23899984I23443612I23840978I24728927
1216I25289745I25354629I25391479I25489672I25186881I24353793I23623870
1209I23671346I24322142I24751233I24625761I24559295I25059224I25619891
1202I25473470I24712424I24104205I24271576I25383868I27070090I28364901
1195I28328277I27057430I25590125I24596673I23780465I22872018I22466061
1188I23133738I24315887I25177612I26023436I27657887I29625272I30333416
1181I29184576I27434525I26719900I27491948I28871988I29519017I28477185
1174I25791483I23049563I22434486I24021084I25303159I24765325I23947761
1167I24413249I25150483I24784994I23974664I23910911I24359143I24365549
1160I23605407I22386408I21216466I20589634I20623244I20947135I21173587
1153I21157009I20829650I20223090I19622407I19411856I19896185I21396195
1146I23902621I26246874I26488700I24066374I20819704I18756312I17879967
1139I17007617I15568344I14041355I13448886I14825913I18224507I21592656
1132I22157619I19977271I18049901I18348848I19912538I20991521I21184288
1125I21192126I21642920I22450537I22952802I22682491I21867865I20933194
1118I20046224I19387063I19192562I19509822I20257529I21270122I22198840
1111I22748053I22874203I22551066I21792884I20966577I20450823I20191892
1104I20031152I20007490I20103421I20151801I20174785I20475391I21292728
1097I22471412I23496514I23890941I23676545I23317914I23191915I23353333
1090I23596816I23522136I22830345I21741263I20950450I20988356I21760027
1083I22856871I23967731I24804587I25043549I24658618I24128997I24029374
1076I24403604I24727646I24621089I24369995I24500817I25059224I25481382
1069I25184017I24149948I22909170I22060859I21749854I21672536I21514585
1062I21207047I20938769I21043443I21665603I22505323I23084378I23368178
1055I23844218I24697503I25497057I25807308I25665558I25417177I25289670
1048I25369399I25782816I26527660I27241305I27480644I27258261I27084107
1041I27353438I27794814I27721414I26998199I26268954I25996081I26129390
1034I26466017I26928040I27615084I28595498I29648030I30355496I30552182
1027I30419853I30109978I29804701I29864911I30367931I30881273I30965298
1020I30642236I30258811I30012238I29797843I29449384I28992411I28639206
1013I28554051I28691957I28845161I28837248I28731219I28799946I29201381
1006I29831227I30538768I31199813I31579846I31480524I31170423I31099511
999I31256860I31306672I31092352I30825507I30685039I30493176I30058961
992I29609899I29570184I30029721I30576221I30678784I30361826I30077574
985I30101237I30537487I31281728I31871258I31876834I31561986I31498081
978I31629282I31633652I31593562I31636742I31489567I30903654I30203498
971I29875764I29933941I30186844I30516085I30725055I30545927I30099503
964I29971017I30372075I30764015I30611565I30446153I30968764I31902833
957I32714820I33141727I33192820I33169987I33540449I34410765I35286732
950I35429085I34677609I33907596I33718069I33827490I33905863I33951830
943I34042714I34141057I34332090I34872787I35675582I36151094I35850640
936I35153197I34374668I33363281I32451669I32001779I31669975I31107951
929I30606968I30474261I30122111I28623004I26623968I25473545I25009864
922I24491322I23291840I21125207I18621872I16741526I15428253I14210761
915I13505933I13996215I15350182I16876569I18259925I19553379I20882025
908I22262970I23692974I25063971I25808966I25289067I24779945I25518157
901I26713720I27395186I27481850I27822319I28757368I29932961I30999360
894I31684067I31557239I30254139I28593840I27913579I28070023I28231290
887I27847037I26746200I24924181I22200423I18429407I14225004I10364537
880I06333459I00685940H93556873H87983054H86009415H87408144H91802526
873H98781103I06815452I12675858I12168997I02706227H86374301H69579749
866H58255020H54375036H57043330H64455821H74255670H83939241H91999137
859H98276879I03286638I07530981I11237942I14431034I17148161I19529114
852I21670577I23532008I25072638I26485384I27992102I29503719I30837565
845I31999593I33140069I34165623I34769095I34801876I34092902I31735537
838I26534216I21355880I21079087I23788302I26544314I28433854I29597390
831I30591444I31920467I33723646I35831876I37933399I39683978I41010363
824I42398090I44196220I45931953I47066928I47445981I47593609I48346817
817I49747732I51277283I52652577I54002475I55427655I56650875I57423299
810I58068067I59006657I60200487I61492660I62906687I64521168I66291642
803I68035889I69542684I70814132I72289200I74203609I76291341I78326775
796I80189261I81854534I83481072I85320499I87462941I89879463I92625151
789I95768883I99067100A001861544A003274291A002192519I97660457I89916992
782I80479241I70445856I60003500I50617219I46090206I49155037I56166093
775I59911864I57609284I49540421I35619365I16984331H97607921H80089626
768H62734180H41954142H18015903H01780135H01648709H12598755H28006334
761H42863493H51645398H48801670H32486021H07467895G82777955G67401273
754G65894932G76969395G96949124H20586835H40844488H55190340H65988237
747H74767957H80513743H81766880H77853286H67671596H49972892H24456043
740G91081485G53338920G23914731G13062124G16635097G26868258G39893000
733G54207728G68739716G82516460G94991537H06013927H15484233H23472539
726H30392411H36597733H42061754H46669250H50533332H53865763H56856592
719H59689620H62476906H65166151H67605582H69803940H71942465H74074131
712H76073770H77871523H79555786H81239371H82947070H84620030H86177992
705H87620505H89041164H90517136H92002076H93348657H94432690H95277760
698H96094496H97120653H98429630H99907637I01320459I02483693I03465539
691I04525683I05784472I07039794I08038144I08874096I09908844I11299963
684I12833433I14221688I15417778I16579053I17834375I19198968I20624902
677I22061989I23494178I24912123I26218539I27154718I27339723I26481616
670I24685596I22533809I20614276I18881407I16755166I13731707I09260384
663I02281506H92163418H80524068H71200786H67658482H70511029H77663834
656H86266537H94292372I00965294I06383497I10898904I14761330I18163466
649I21342013I24434502I27319075I29815251I32029059I34301343I36847180
642I39661672I42738108I46146499I49852857I53513398I56325627I56890590
635I53406841I44582206I30923775I14955303H99126019H82718131H61963865
628H35485591H09445453G94287688G95284832H08473177H25859219H41841029
621H54543763H63750315H69171381H70171992H66510924H59388865H51565895
614H45909485H43712332H44525751H47265863H51101838H55596824H60554887
607H65795771H70906887H75310388H78669193H81069136H82716247H83655667
600H83926430H83826580H83804951H84127637H84821236H85914840H87523518
593H89642751H92021970H94317240H96317557H98010712H99489699I00860923
586I02220164I03584078I04810312I05743402I06458705I07193752I08034602
579I08853900I09567997I10302517I11234325I12346466I13462300I14519957
572I15653123I16949591I18287959I19439512I20157378I20143964I19100022
565I16948838I14067957I11304258I09635293I09585556I10782248I12037647
558I11910592I09224513I03311507H94544748H85180245H78950657H78617045
551H83756722H91403503H98668216I04354845I08557514I11653093I13965695
544I15897360I17837013I19830623I21569596I22823487I23746930I24667585
537I25723057I26813118I27655551I27488481I24745205I17732190I06428259
530H93772247H84585365H82447745H87192092H95409411I03368854I09330091
523I13376919I15992086I17399406I17791874I17438141I16567598I15544004
516I15103533I16032252I18452014I21586401I24406770I26437456I27826540
509I28852998I29705378I30601919I31707805I32951296I34170748I35342045
502I36470313I37473260I38354955I39299725I40451580I41759804I43102090
495I44394790I45450864I45753881I44527873I41379017I37123596I33719350
488I32850014I34488384I37083204I39044033I39798598I39737784I39724144
481I40654293I43046400I46788704I51236591I55570535I59116153I61281807
474I61232748I58209666I52666368I46622915I42266590I40559644I41568468
467I45382891I51977516I60686700I70502902I80653319I90080218I95266844
460I88064905I58272741I03569836H38638593G89713953G75050616G90834007
453H17421776H37196683H44970593H44825453H42192350H40179524H40461666
446H44186412H51130625H59489694H67576719H75028849H81804861H87016054
439H89672141H90108165H90000704H91114804H94212266H98712300I02985355
432I05342419I05276179I03585736I01137488H98173939H95134504H93139160
425H93017532H94625231H97448235I00991594I04319427I05996908I04831413
418I00745699H95453119H92150155H93396585H98878993I05873094I11874722
411I16175508I19295954I21922425I24429302I26761196I28648023I30106587
404I31533802I33142179I34596750I35463297I35851846I36374759I37513125
397I39199347I41031087I42708567I44124856I45195324I45860664I46221556
390I46498423I46866851I47403705I48116748I48977341I49971622I51083236
383I52221828I53265543I54140230I54647996I54150855I51571936I46094576
376I38377412I31137793I27850956I30212089I36830828I44537518I50765071
369I54471807I55123282I51649555I43021758I29862426I15408886I04734803
362I02112627I08090217I19086985I30171320I38148698I42384149I43843241
355I43922066I43832465I44595017I46988329I50996498I55644838I59867327
348I63295161I66057879I68350889I70414883I72518969I74747773I76966478
341I79038461I80942846I82681142I84232472I85625399I86921114I88174552
334I89496491I90953473I92401563I93764572I95353884I97440863I99712470
327A001620170A003073460A004479424A006201593A008136574A009900943A011463351
320A013304737A015793678A018759714A021812036A024755917A027628132A030543829
313A033538577A036456383A038913674A040374650A040146540A036765353A027399419
306A009510209I84512202I58717733I39116980I28864151I27654496I34758394
299I49603345I69934774I91546771A010704265A026108150A038304099A048169133
292A056312602A063064047A068430176A072129527A073741822A072885223A069050754
285A060424313A042317996A007591807I50773059H73865464G88042577G07566754
278F41043110E89256768E50145768E22493786E05323721D98048422E02167895
271E19860005E49924440E86635610F22851260F53134160F74462205F86924848
264F94911721G04850230G20016057G39315527G61166259G85562452H12023694
257H37499247H55362986H55409030H28920885G78776869G22992720F82305822
250F62961062F55801701F52618480F56617984F73805983G01132642G29159609
243G52048028G69534070G82848942G92927316H00698137H06917551H12131985
236H17026069H22271324H27925247H33234407H37402864H40561215H43550688
229H46889296H50463777H53978122H57190656H59899117H62031613H63814746
222H65838650H68673412H72227019H75803157H78881252H81498453H84001261
215H86761794H89855714H92872919H95427195H97651327H99624741I00598147
208I00010954H98692180H96089672H88678840H71355346H41425050H03379695
201G69071443G51337925G55164556G74251137G95089729H05297795H02135450
194G94430267G93709312H03198533H17315521H29638524H37801134H42178334
187H43971565H44785136H45921241H47738587H49985025H52306444H54512866
180H56664653H58734827H60475459H62002449H63869155H66114990H67966549
173H68905441H69438904H70326778H71547059H72635838H73602085H74744822
166H75872713H76578747H77059158H77856828H79000846H79973122H80337329
159H79980431H78855252H77020273H75189512H74648363H75861560H77545673
152H77919978H76516351H74399454H72976534H72773971H73338783H74083627
145H74626057H74339393H72790173H70855041H69859857H69468821H68087575
138H65611670H63975787H64136452H64292745H62409159H59235133H57159383
131H56719439H56120716H54176692H52067558H51774639H53839312H57109043
124H60138982H62311193H63749787H64769087H65547163H65988538H65935335
117H65602250H65418526H65306544H64624021H63004867H60971092H59620667
110H59650133H60557826H61045019H60542604H59793615H59553297H59454954
103H58638143H57293219H56590652H56749734H56611149H55524329H54351976
96H54149789H54955975H56179646H56968047H55989441H52195366H46186654
89H39928354H35483256H34492970H37499775H42438923H44378501H39192327
82H28409050H18503548H15079407H18738817H26309259H34530423H41549241
75H46267061H48026833H47162999H45391094H45049041H47064279H50028054
68H52465752H54569084H56852598H58821792H60014642H61333115H64006534
61H67011982H66566312H60768452H53706982H51435450H56005945H64063655
54H71056701H75510540H77801138H77844545H76121321H74715659H75267132
47H77493374H80578853H83793422H85673165H84403600H78117116H63233355
40H35412193G95739998G54984072G28779049G24906148G37012646G54877364
33G73032590G87533078G95792749H00407102H05014221H10000469H13207501
26H13554980H12321210H10818561H08781846H05512416H01118486G95825454
19G89379135G82590010G78180105G77523657G79675369G84159955G90789772
12G98295632H04712712H07802411H05918599H01409145H00021568H03484970
5H08731883H13364549H16550104H15739925H09933626
$$ === CHEMSPECTRA INTEGRALS AND MULTIPLETS ===
##$OBSERVEDINTEGRALS= (X Y Z)
##$OBSERVEDMULTIPLETS=
(1, 5.325269721677522, 5.4442698276131125, 5.401971006823011, 0.9999999999999998, 1, s, A)
(2, 6.776408123964222, 6.872269158737076, 6.834128634184124, 1.047675345074842, 2, dd, B, 0.9155552842803445 7.629627368999536)
(3, 6.930199402160729, 6.992780395595064, 6.9697981608777555, 1.041161227168891, 3, m, C)
(4, 7.131546965540815, 7.145151548617895, 7.1416733483681885, 0.8899433159056788, 4, s, D)
(5, 7.146511984745544, 7.173721150899706, 7.1572336464072634, 1.1146073469263684, 5, d, E, 7.6296273689986265)
(6, 7.292761086473719, 7.356702538215762, 7.323570736140474, 2.1633477003862067, 6, m, F)
(7, 6.993460658019007, 7.040396369824669, 7.022208227911327, 2.111216545381391, 7, m, G)
(8, 2.334056750014393, 2.3589595934103764, 2.349711760099412, 3.1711411942359238, 8, s, H)
(9, 2.270554502907144, 2.291721925376241, 2.282588905813208, 3.1704760856862664, 9, s, I)
##$OBSERVEDMULTIPLETSPEAKS=
(1, 5.401971006823011, 160836501.2899788)
(2, 6.842671542911459, 256138391.19257104)
(2, 6.840840919612743, 250032744.9968753)
(2, 6.827416348755502, 229969785.835479)
(2, 6.825585725456788, 224979986.24892643)
(3, 6.98668057574368, 188583264.0994415)
(3, 6.984239744678726, 287532084.3789981)
(3, 6.982409121380012, 136616730.82689592)
(3, 6.972035589353961, 285346049.80001295)
(3, 6.969594758289009, 513286710.3161183)
(3, 6.967764134990295, 219622274.17368463)
(3, 6.957390602964244, 153444159.71761402)
(3, 6.954949771899292, 256322092.01261804)
(3, 6.953119148600576, 102952426.36034401)
(4, 7.1416733483681885, 482786298.0379182)
(5, 7.164861243485241, 390730741.08495945)
(5, 7.149606049329286, 436399766.96646774)
(6, 7.344872534525518, 90009641.01438075)
(6, 7.34060108016185, 550964975.9788947)
(6, 7.33693983356442, 182145771.08148062)
(6, 7.330227548135801, 108116382.58242865)
(6, 7.325956093772133, 746082639.7680541)
(6, 7.323515262707179, 720735436.3391374)
(6, 7.319854016109749, 92260125.47446635)
(6, 7.31314173068113, 229880625.57114965)
(6, 7.310700899616176, 275777963.6597904)
(6, 7.308870276317462, 679840519.489852)
(6, 7.304598821953794, 86508392.65714876)
(7, 7.034276781510261, 127595597.67304085)
(7, 7.030615534912831, 735141870.4965578)
(7, 7.0281747038478795, 911578201.4041642)
(7, 7.026344080549164, 381560218.0501095)
(7, 7.023903249484212, 215261593.28310743)
(7, 7.01719096405559, 235912813.19012555)
(7, 7.015360340756876, 392288746.1744451)
(7, 7.012919509691923, 672938870.7140403)
(7, 7.011088886393209, 673039745.6789716)
(8, 2.349711760099412, 2238856181.409703)
(9, 2.282588905813208, 2319219598.27505)
$$ === CHEMSPECTRA SIMULATION ===
##$CSSIMULATIONPEAKS=
##END=


$$ === CHEMSPECTRA PEAK TABLE EDIT ===
##TITLE=CZ-192
##JCAMP-DX=5.00
##DATA TYPE=INFRAREDPEAKTABLE
##DATA CLASS=PEAKTABLE
##$CSCATEGORY=EDIT_PEAK
##$CSTHRESHOLD=0.93
##MAXX=3997.453
##MAXY=0.849273506393109
##MINX=373.96442
##MINY=0.39393019908420296
##$CSSOLVENTNAME=- - -
##$CSSOLVENTVALUE=0
##$CSSOLVENTX=0
##NPOINTS=47
##PEAKTABLE= (XY..XY)
382.46361135261895, 0.6327751311576211
395.2123983815477, 0.6149804626721366
423.54303622361203, 0.5733627707367833
441.95795082095356, 0.6918542424213118
453.2902059577791, 0.6734408172180655
473.1216524472243, 0.6683895024107611
485.870439476153, 0.6446850926252791
495.7861627208754, 0.6600402034934423
508.5349497498041, 0.6755877171085585
515.6176092103201, 0.6775183118159287
529.7829281313525, 0.6799148948778425
552.4474384050036, 0.67370909794017
566.6127573260355, 0.6833595665460033
582.1946081391711, 0.6903184689771799
592.1103313838935, 0.6918010148122952
645.9385432838153, 0.6277824674869581
655.8542665285377, 0.5942689210543507
723.8477973494914, 0.5161870147364107
759.2610946520717, 0.39393019908420296
798.923987630988, 0.7337260879638646
885.3324330492828, 0.7135238082342189
902.3308157545212, 0.733881477527396
960.4086233307521, 0.7066298758199802
1007.1541757701325, 0.6645379696751471
1017.0698990148553, 0.6130244168532154
1034.0682817201182, 0.7477483192636827
1058.1493238858725, 0.7433314361734787
1120.476727138413, 0.6979699172086845
1154.473492548866, 0.6949400342756715
1240.8819379671618, 0.6673322356486798
1259.2968525645033, 0.6282399325902719
1306.0424050039092, 0.6862723860719059
1416.5318925879592, 0.5639947684980812
1440.6129347537135, 0.6057827506586139
1454.7782536747459, 0.6340621144101612
1552.5189542298872, 0.7343425192957118
1597.8479747771694, 0.6757658756803632
3037.0443771540267, 0.6938468845942747
3361.430180445661, 0.6962616475865446
3368.512839906177, 0.6951430475845444
3388.3442863956216, 0.6900732554505901
3429.423711266614, 0.676806155261054
3437.922902619234, 0.6768718395036656
3452.0882215402657, 0.6766202485666577
3460.587412892885, 0.6768051420571913
3470.5031361376073, 0.6762770445431429
3479.002327490227, 0.676190915887225
##END=


$$ === CHEMSPECTRA PEAK TABLE AUTO ===
##TITLE=CZ-192
##JCAMP-DX=5.00
##DATA TYPE=INFRAREDPEAKTABLE
##DATA CLASS=PEAKTABLE
##$CSCATEGORY=AUTO_PEAK
##$CSTHRESHOLD=0.93
##MAXX=3997.453
##MAXY=0.849273506393109
##MINX=373.96442
##MINY=0.39393019908420296
##NPOINTS=226
##PEAKTABLE= (XY..XY)
3990.370340539484, 0.730282727686808
3979.0380854026585, 0.7304974834036021
3970.5388940500393, 0.7302711640330423
3956.373575129007, 0.7304965287298609
3946.4578518842845, 0.7303382790998441
3929.459469179046, 0.7306627669305368
3922.3768097185302, 0.7293923532390595
3911.0445545817042, 0.7320074474369247
3896.8792356606723, 0.7294794950988401
3889.7965762001563, 0.7314595018840528
3884.1304486317435, 0.731030765579103
3878.4643210633308, 0.7317457236703413
3868.5485978186084, 0.7324684892052405
3860.049406465989, 0.7302320635389306
3851.5502151133696, 0.7296893635504755
3841.6344918686473, 0.7310011422190147
3834.5518324081313, 0.7295233048949027
3818.969981594996, 0.730927292233484
3813.3038540265834, 0.7313869632896263
3799.138535105551, 0.7301877775924189
3784.973216184519, 0.7322095661840733
3776.4740248319, 0.7331451211400578
3767.9748334792807, 0.7345182338394635
3762.308705910868, 0.7343037169888416
3758.0591102345584, 0.734093073408568
3748.1433869898356, 0.733964268384484
3742.477259421423, 0.7310829799842568
3731.1450042845972, 0.7336491975757979
3719.8127491477717, 0.7334852855519843
3708.480494010946, 0.7340545099678699
3694.315175089914, 0.7372621338523602
3687.2325156293978, 0.7350449598503909
3673.067196708366, 0.7358006272231389
3665.98453724785, 0.7327992951252821
3654.6522821110243, 0.7367242610170469
3646.153090758405, 0.7342367213551259
3639.0704312978887, 0.7372106352547753
3626.32164426896, 0.7367011345004629
3616.4059210242376, 0.7387880125421412
3605.073665887412, 0.7374088791496805
3599.4075383189993, 0.7389507333988843
3592.3248788584833, 0.7394599952870244
3583.825687505864, 0.7365620764227698
3565.410772908522, 0.7336988485198126
3479.002327490227, 0.676190915887225
3470.5031361376073, 0.6762770445431429
3460.587412892885, 0.6768051420571913
3452.0882215402657, 0.6766202485666577
3437.922902619234, 0.676871838712718
3429.423711266614, 0.6768061544701065
3388.3442863956216, 0.6900732554505901
3368.512839906177, 0.6951430475845444
3361.430180445661, 0.6962616475865446
3352.9309890930413, 0.6984972395940947
3335.932606387803, 0.6997176448332467
3326.0168831430806, 0.7015135324656163
3309.018500437842, 0.6998953857847239
3270.7721393510556, 0.7051231301524012
3259.43988421423, 0.7077915706014215
3248.107629077404, 0.7084565202403346
3235.3588420484753, 0.7100210825948473
3226.859650695856, 0.7102052009567427
3221.1935231274433, 0.7101073291019561
3208.444736098514, 0.710251632744066
3197.1124809616886, 0.7104584607931654
3191.446353393276, 0.7102751167689607
3180.1140982564502, 0.7123191990093869
3171.614906903831, 0.7131801881722717
3163.115715551212, 0.7137707507722404
3148.95039663018, 0.7150071291979724
3123.452822572322, 0.7180585899721882
3097.955248514464, 0.704119745903941
3066.791546888194, 0.7007522019081239
3037.0443771540267, 0.6938468845942747
3025.7121220172007, 0.6975438630070123
2993.1318884988273, 0.7058478034528876
2983.2161652541045, 0.7072008877774192
2959.13512308835, 0.7070934209374183
2946.3863360594214, 0.7085874711052301
2913.8061025410475, 0.7115761077033198
2895.391187943706, 0.7125054632120938
2872.7266776700544, 0.7140952386029331
2855.728294964816, 0.7130261693209138
2831.647252799062, 0.7160184419050747
2823.1480614464426, 0.7163517511742387
2810.399274417514, 0.7161880171136328
2803.3166149569975, 0.7157146373538605
2791.984359820172, 0.7143616716714674
2774.985977114933, 0.7152791060181649
2763.6537219781076, 0.7158689536015123
2742.4057435965597, 0.715155367013395
2735.3230841360437, 0.7156541978847183
2723.990828999218, 0.7160128989443639
2716.908169538702, 0.7155215773294602
2702.7428506176702, 0.7160086665838099
2685.7444679124314, 0.717317167565536
2680.0783403440187, 0.7172704969120405
2663.07995763878, 0.7171419299631812
2647.4981068256448, 0.7177025710158201
2634.749319796716, 0.7176047007429287
2624.8335965519937, 0.7184123436546584
2602.1690862783425, 0.7202128211558929
2595.0864268178266, 0.7206621806283044
2586.587235465207, 0.7204867041597773
2569.5888527599686, 0.7208055295966732
2561.0896614073495, 0.7220539486175678
2546.924342486317, 0.7216061394024327
2529.9259597810787, 0.72289210945111
2521.4267684284596, 0.7247740664183284
2512.9275770758404, 0.7238288555741651
2500.1787900469117, 0.7228074709404517
2481.76387544957, 0.7225826417151515
2467.5985565285378, 0.7229493297635611
2461.932428960125, 0.7230573929780448
2446.3505781469894, 0.7242976462560202
2437.8513867943702, 0.7238441137441238
2425.1025997654415, 0.7238023912587513
2410.9372808444095, 0.7242684397253119
2391.105834354965, 0.724864784943111
2385.439706786552, 0.7253094351135717
2362.7751965129005, 0.7236999904380644
2352.859473268178, 0.7238599097584437
2341.527218131352, 0.7237197198347494
2323.1123035340106, 0.7218400273504813
2306.1139208287723, 0.7246754210167987
2299.0312613682563, 0.7250559957320459
2283.449410555121, 0.7248676458005441
2273.533687310399, 0.7252275388182079
2262.2014321735733, 0.725692216572595
2255.118772713057, 0.7255470792717251
2238.1203900078185, 0.7239941398920474
2229.621198655199, 0.7252821363484504
2216.87241162627, 0.7255736029082082
2208.373220273651, 0.7279885438636859
2198.4574970289286, 0.7283731136552102
2188.5417737842063, 0.7281250993832042
2178.626050539484, 0.7290339503666552
2163.044199726349, 0.726792279926876
2140.379689452697, 0.7290848533807048
2121.9647748553552, 0.7322368064190728
2110.6325197185297, 0.7277987037869245
2099.300264581704, 0.7303954994122951
2086.5514775527754, 0.7305380740429732
2079.4688180922594, 0.731277946192349
2072.3861586317435, 0.7309179938536159
2056.8043078186083, 0.7296223078047429
2042.6389888975762, 0.7329868715100409
2032.7232656528536, 0.7295973336345887
2027.0571380844408, 0.730794254848846
2019.9744786239248, 0.7307651084301544
2011.4752872713054, 0.728138152391282
2000.1430321344799, 0.727206591720627
1981.7281175371381, 0.7224901949698848
1973.228926184519, 0.7261293566956886
1953.397479695074, 0.7270331416598256
1934.9825650977323, 0.727677706997449
1919.4007142845971, 0.7301964202767348
1910.901522931978, 0.7284235389369155
1898.1527359030492, 0.7308588064545086
1892.4866083346365, 0.731128219813562
1875.4882256293977, 0.7284142998781167
1858.4898429241593, 0.7318556345383953
1848.574119679437, 0.7332749401589521
1840.0749283268178, 0.7324143686163948
1824.4930775136822, 0.7354267874266206
1807.494694808444, 0.7344375888231871
1801.8285672400311, 0.7345777194258122
1789.0797802111024, 0.7364509142756285
1776.3309931821732, 0.7352412967706565
1769.2483337216572, 0.7356426156683467
1759.3326104769349, 0.7367661622565748
1755.0830148006253, 0.7368416827234155
1748.0003553401093, 0.7354829945352087
1738.084632095387, 0.735558334665999
1732.4185045269742, 0.7359341423401212
1723.9193131743546, 0.7380885522779813
1714.0035899296322, 0.7385220564150037
1668.6745693823295, 0.7225353161570515
1651.6761866770912, 0.7314524687780826
1633.2612720797497, 0.7339310090383245
1613.4298255903045, 0.7007870115115599
1597.8479747771694, 0.6757658756803632
1556.7685499061763, 0.7285252840620503
1474.6097001641906, 0.7483077683583035
1454.7782536747459, 0.6340621144101612
1440.6129347537135, 0.6057827506586139
1416.5318925879592, 0.5639947684980812
1306.0424050039092, 0.6862723852809584
1259.2968525645033, 0.6282399325902719
1240.8819379671618, 0.6673322356486798
1219.6339595856134, 0.6990433960235181
1167.2222795777948, 0.71943450341701
1154.473492548866, 0.6949400342756715
1120.476727138389, 0.6979699172086845
1103.4783444331506, 0.7237989340268355
1063.8154514542607, 0.7378354704047663
1055.3162601016415, 0.7432725469616129
1036.9013455043, 0.743933383673058
1017.0698990148553, 0.6130244168532154
1007.1541757701325, 0.6645379696751471
991.5723249569974, 0.7039439119271034
974.573942251759, 0.7063300647631479
961.8251552228303, 0.7056440150153764
902.3308157544952, 0.733881477527396
885.3324330492569, 0.7135238082342189
874.0001779124314, 0.7465220135555093
798.9239876309616, 0.7337260879638646
759.2610946520717, 0.39393019908420296
723.8477973494914, 0.5161870139454632
655.8542665285377, 0.5942689210543507
645.9385432838153, 0.6277824674869581
592.1103313838935, 0.6918010148122952
582.1946081391711, 0.6903184689771799
566.6127573260355, 0.6833595665460033
552.4474384050036, 0.67370909794017
529.7829281313525, 0.6799148948778425
515.6176092103201, 0.6775183118159287
508.5349497498041, 0.6755877171085585
495.7861627208754, 0.6600402034934423
485.870439476153, 0.6446850926252791
473.1216524472243, 0.6683895024107611
453.2902059577791, 0.6734408172180655
441.95795082095356, 0.6918542424213118
423.54303622361203, 0.5733627707367833
395.2123983815477, 0.6149804626721366
382.46361135261895, 0.6327751311576211
##END=

##END=

