##TITLE=HMS-Q277
##JCAMP-DX=4.24
##DATA TYPE=INFRARED SPECTRUM
##DATE=28/7/2021
##SAMPLING PROCEDURE=Diamant-ATR
##ORIGIN=Angelika Moesle
##XUNITS=1/CM
##YUNITS=TRANSMITTANCE
##RESOLUTION=4
##FIRSTX=3997.453
##LASTX=373.96442
##DELTAX=-1.4165319
##MAXY=0.9437288
##MINY=0.27880928
##XFACTOR=1
##YFACTOR=8.7891594e-010
##NPOINTS=2559
##FIRSTY=0.94319737
##XYDATA=(X++(Y..Y))
3997+1073137175+1073238763+1073357848+1073581234+1073741823+1073528745
3989+1072952986+1072470746+1072419409+1072590509+1072585152+1072396148
3980+1072374990+1072708238+1073155485+1073325907+1073087737+1072650933
3972+1072312802+1072234882+1072399403+1072601631+1072553346+1072165438
3963+1071672483+1071377551+1071355985+1071521795+1071836530+1072227625
3955+1072424428+1072140210+1071423937+1070693964+1070405678+1070634422
3946+1071001849+1071138499+1071112729+1071320449+1071914586+1072483970
3938+1072500449+1071880814+1071035215+1070482785+1070494382+1071008360
3929+1071709714+1072233932+1072399132+1072281675+1072024380+1071567571
3921+1070815694+1070014311+1069624301+1069754508+1070022449+1070152453
3912+1070213759+1070308159+1070392590+1070370821+1070227593+1070085722
3904+1070172865+1070572845+1070925421+1070737570+1070045914+1069431703
3895+1069365854+1069957888+1071050202+1072062154+1072180629+1071297528
3887+1070142077+1069633660+1069937408+1070212063+1069922014+1069411698
3878+1069153657+1069200586+1069475716+1069794791+1069759052+1069402271
3870+1069485482+1070202501+1070687454+1070619638+1070582814+1070936339
3861+1071201771+1070934779+1070226508+1069305498+1068461187+1068299785
3853+1069253415+1070323078+1070691726+1070660667+1070411307+1069840770
3844+1068908841+1067820325+1066928205+1066607367+1067214456+1068660906
3836+1070082806+1070776632+1070749302+1070201009+1069311126+1068477328
3827+1068278152+1068868762+1069577847+1069741894+1069695440+1070291679
3819+1071216080+1071550143+1071266332+1070852790+1070565385+1070396659
3810+1070329317+1070261026+1069966637+1069335608+1068560538+1067971826
3802+1067912352+1068313280+1068417039+1068084537+1068059038+1068673384
3793+1069276608+1069303124+1069043524+1069045898+1069272336+1069238834
3785+1068852554+1068549484+1068526901+1068551586+1068499368+1068502555
3776+1068644359+1068881240+1069096014+1069119953+1068953600+1068837906
3768+1068766088+1068422464+1067856742+1067462121+1067373688+1067548179
3759+1068083791+1068867067+1069366125+1069301497+1068850384+1068367194
3751+1068281814+1068514898+1068351190+1067795165+1067717380+1068652022
3742+1069498028+1069325843+1068521611+1067384946+1065539670+1062841200
3734+1060977342+1061858206+1064700039+1067475209+1068941257+1068907553
3725+1068126786+1067877426+1068806914+1070319484+1071250667+1070984421
3717+1069883833+1068717736+1068014957+1067963485+1068364617+1068633779
3708+1068631541+1068670739+1068723907+1068522357+1068044864+1067659330
3700+1067688219+1068040795+1068442334+1068681861+1068689253+1068431620
3691+1067759020+1066836382+1066660670+1067530615+1068148962+1067787841
3683+1066909080+1066238718+1066033642+1066077384+1066279476+1066840451
3674+1067276169+1066762733+1065950636+1066288699+1067909300+1069017144
3666+1068882122+1068286154+1067931205+1067952974+1068067854+1067883869
3657+1067353547+1067039152+1067425025+1068197722+1068875611+1069158744
3649+1068717125+1067892414+1067620946+1067932086+1068302972+1068389099
3640+1068153370+1067774617+1067494198+1067463952+1067717245+1068232986
3632+1068957398+1069779193+1070441282+1070613331+1070352036+1069807947
3623+1068882325+1067593277+1066422907+1066156322+1066803694+1067346155
3615+1067273728+1066906842+1066583767+1066292971+1066088438+1066300363
3606+1066969572+1067654176+1068076467+1068301141+1068304464+1067795098
3598+1066703733+1065628713+1065393391+1066058531+1066760699+1066884260
3589+1066726587+1066964215+1067619115+1067878240+1067482398+1066941293
3581+1066656872+1066562472+1066395441+1066092168+1065785842+1065605723
3572+1065582326+1065651228+1065748544+1065923848+1066208269+1066347021
3564+1066089319+1065531396+1064983714+1064809765+1065125517+1065576901
3555+1065663299+1065214356+1064416296+1063572732+1062967338+1062822415
3547+1063137014+1063509799+1063471754+1063105750+1062866767+1062949638
3538+1063149288+1063200625+1063109955+1063092594+1063217579+1063279834
3530+1063063501+1062689563+1062537655+1062783217+1063244638+1063631257
3521+1063669641+1063216494+1062483131+1061903371+1061673949+1061682223
3513+1061847423+1062139982+1062370692+1062406228+1062407584+1062475061
3504+1062392529+1062018726+1061624308+1061548761+1061798256+1062187521
3496+1062565188+1062826484+1062922105+1062916001+1062942449+1063073267
3488+1063275223+1063511291+1063768924+1063946534+1063829687+1063347311
3479+1062803426+1062599707+1062694785+1062560102+1061857392+1061014302
3471+1060764400+1061237553+1061878008+1062211799+1062292364+1062279818
3462+1061989905+1061235111+1060329088+1059804870+1059793748+1060047719
3454+1060364895+1060641924+1060709740+1060482285+1060206613+1060328071
3445+1061000129+1061798256+1062032018+1061428794+1060450411+1059749329
3437+1059494883+1059483354+1059606237+1059878247+1060236316+1060602319
3428+1060940247+1061078049+1060786915+1060266494+1060148291+1060650944
3420+1061095953+1060791526+1060016999+1059600540+1059874924+1060415622
3411+1060623749+1060343465+1059965187+1059982480+1060439968+1060860427
3403+1060738019+1060030630+1059150580+1058541049+1058334888+1058420879
3394+1058695127+1059079170+1059425778+1059629159+1059703146+1059635398
3386+1059377764+1059049738+1058884606+1058892744+1058819299+1058506599
3377+1058088648+1057758113+1057520960+1057284146+1057031667+1056838119
3369+1056819673+1057084224+1057611426+1058197290+1058583027+1058576992
3360+1058153345+1057563548+1057165196+1057020748+1056918414+1056815265
3352+1056906614+1057279060+1057775202+1058082884+1057848986+1057021019
3343+1056107469+1055727631+1055955629+1056417524+1056871281+1057330668
3335+1057727256+1057808229+1057476133+1057065100+1057034176+1057383293
3326+1057637129+1057466300+1057039940+1056738769+1056767048+1056980872
3318+1056955577+1056469946+1055961732+1056080817+1056756604+1057205072
3309+1056879148+1056000523+1055193104+1054931334+1055260310+1055807925
3301+1056109435+1055997132+1055624076+1055234133+1055067645+1055313817
3292+1055904292+1056437462+1056562922+1056385244+1056256461+1056248594
3284+1056120964+1055794498+1055565754+1055728716+1056121981+1056225469
3275+1055781884+1055228504+1055238745+1055823455+1056255172+1055991164
3267+1055332127+1054946118+1054961648+1054870842+1054291896+1053521912
3258+1053194564+1053558262+1054246053+1054719816+1054798008+1054709779
3250+1054759149+1055035364+1055392416+1055626449+1055678532+1055615327
3241+1055400486+1054892611+1054184204+1053707729+1053798602+1054320040
3233+1054889492+1055372478+1055935487+1056587675+1056952322+1056738430
3224+1056207565+1055859737+1055866654+1056057692+1056197122+1056097296
3216+1055743025+1055433784+1055542018+1056046570+1056475371+1056382599
3207+1055837290+1055329144+1055150719+1055085548+1054857347+1054628061
3199+1054749248+1055184695+1055461046+1055205854+1054591237+1054142294
3190+1054122560+1054300780+1054395316+1054447331+1054540375+1054492022
3182+1054156061+1053765101+1053647304+1053762321+1053785921+1053545919
3173+1053130953+1052690080+1052348965+1052258838+1052479172+1052786583
3165+1052829985+1052583066+1052404032+1052485750+1052520065+1052135819
3156+1051424768+1050841956+1050771292+1051228440+1051810099+1052025483
3148+1051817898+1051572675+1051510352+1051390114+1050936560+1050292103
3139+1049877476+1049925083+1050258806+1050480089+1050320925+1049826817
3131+1049245362+1048779804+1048508133+1048474903+1048634610+1048674689
3122+1048236123+1047442674+1046833754+1046678184+1046732979+1046713923
3114+1046621693+1046586564+1046704564+1046995902+1047325353+1047475023
3105+1047378995+1047149370+1046869086+1046575510+1046395391+1046399663
3097+1046353887+1045911184+1045057989+1044103003+1043248792+1042434185
3088+1041586348+1040823892+1040304217+1039904916+1039213327+1037995079
3080+1036572365+1035510433+1034994149+1034747638+1034500312+1034298220
3071+1034343657+1034695487+1035220316+1035752740+1036202835+1036555343
3063+1036886964+1037309594+1037790613+1038117691+1038140477+1037949371
3054+1037734869+1037578010+1037423593+1037163586+1036701080+1036034584
3046+1035339604+1034889034+1034835866+1035138733+1035685941+1036355693
3037+1036980957+1037468351+1037965036+1038747227+1039915359+1041256491
3029+1042376473+1042957047+1042923410+1042390783+1041505715+1040409807
3020+1039277278+1038251356+1037377207+1036621261+1035873385+1035017410
3012+1034155671+1033623789+1033583439+1033787769+1033947204+1034117830
3003+1034503907+1035038704+1035428240+1035550784+1035632366+1036012408
2995+1036805924+1037805533+1038680632+1039238555+1039487236+1039494018
2986+1039238080+1038647266+1037753518+1036705353+1035655153+1034807384
2978+1034462403+1034648762+1034791243+1034190596+1032795144+1031135753
2969+1029661770+1028480007+1027501352+1026545417+1025484570+1024451731
2961+1023740136+1023454970+1023385729+1023228464+1022914136+1022694616
2952+1022812548+1023099003+1023055058+1022352416+1021145764+1019902152
2944+1019016135+1018593980+1018560682+1018910681+1019754381+1021101616
2935+1022686206+1024075690+1024995819+1025578834+1026212372+1027066516
2927+1027889667+1028377943+1028554401+1028610417+1028570744+1028332371
2918+1027885598+1027365246+1026976659+1026887210+1027095880+1027485755
2910+1028004480+1028628185+1029216286+1029643866+1029993119+1030415953
2901+1030930473+1031460320+1031954903+1032466915+1033179662+1034225115
2893+1035441464+1036506584+1037314070+1038004641+1038661711+1039152835
2884+1039276125+1039004454+1038599727+1038429712+1038602576+1038874382
2876+1038995095+1039047585+1039286433+1039693397+1039912715+1039712725
2867+1039300742+1039005674+1038837694+1038580264+1038175063+1037766200
2859+1037459468+1037237573+1037002319+1036516485+1035439769+1033619585
2850+1031248395+1028621946+1025897231+1023177127+1020674849+1018694823
2842+1017542627+1017457247+1018543254+1020742258+1023842403+1027460934
2833+1031028061+1033902785+1035667156+1036446499+1036870146+1037503955
2825+1038294351+1038767979+1038736377+1038523638+1038497122+1038687685
2816+1038927889+1039101702+1039199696+1039297758+1039484931+1039732120
2808+1039922684+1040062317+1040277565+1040530858+1040568496+1040285500
2799+1039939977+1039831946+1039918750+1039898880+1039581569+1039062843
2791+1038643672+1038619597+1039000588+1039442410+1039607542+1039526231
2782+1039425727+1039363065+1039238826+1039054909+1038964985+1039086376
2774+1039343399+1039518228+1039464382+1039231299+1038973055+1038781678
2765+1038617359+1038393905+1038141087+1038014678+1038106297+1038348672
2757+1038618784+1038789612+1038739293+1038502615+1038306016+1038301743
2748+1038421032+1038568600+1038745668+1038911207+1038945657+1038798089
2740+1038537947+1038285061+1038186320+1038354911+1038724712+1039069828
2731+1039250491+1039285212+1039154463+1038790697+1038325615+1038071304
2723+1038179878+1038510007+1038818027+1038946946+1038876417+1038692907
2714+1038477862+1038267700+1038152751+1038252373+1038516992+1038726069
2706+1038762282+1038729053+1038715286+1038612545+1038284722+1037812654
2697+1037420541+1037241168+1037279145+1037507007+1037828455+1038043635
2689+1038021866+1037859447+1037737513+1037680684+1037559089+1037305389
2680+1037033922+1036930095+1037063286+1037305186+1037446176+1037430510
2672+1037425153+1037558818+1037698926+1037647250+1037432002+1037240489
2663+1037164739+1037144258+1037090887+1037007812+1036992622+1037092311
2655+1037195392+1037160127+1036987332+1036771677+1036567550+1036382684
2646+1036250646+1036265158+1036494987+1036810535+1036919177+1036703657
2638+1036413065+1036367425+1036586607+1036833322+1036934232+1036929213
2629+1036902833+1036820843+1036643369+1036504888+1036618616+1037022461
2621+1037502192+1037775355+1037759215+1037601271+1037397823+1037067287
2612+1036661476+1036489087+1036693892+1037035956+1037265988+1037377681
2604+1037375850+1037141749+1036636519+1036050995+1035670750+1035618125
2595+1035770508+1035978093+1036230097+1036505770+1036672394+1036666494
2587+1036566804+1036447312+1036356574+1036359558+1036437682+1036510110
2578+1036612377+1036793988+1036847495+1036486713+1035798719+1035212992
2570+1035013612+1035113370+1035273348+1035295320+1035017274+1034383804
2561+1033590288+1032983131+1032725972+1032633403+1032380992+1031873320
2553+1031343812+1031048812+1030921386+1030623809+1029942528+1029130973
2544+1028794673+1029255823+1030119867+1030778226+1031151554+1031512471
2536+1031867285+1032058323+1032157199+1032277504+1032303139+1032171643
2527+1032158758+1032602682+1033438990+1034148347+1034266211+1033929165
2519+1033724225+1033996574+1034566094+1035093635+1035409116+1035565432
2510+1035858601+1036629127+1037739616+1038494273+1038391871+1037709166
2502+1037080240+1036789716+1036707184+1036608172+1036355015+1035987451
2493+1035743720+1035830932+1036147633+1036347351+1036201140+1035844495
2485+1035613446+1035671835+1035889389+1036011797+1035839545+1035389178
2476+1035010628+1035087261+1035532880+1035879556+1035839816+1035482425
2468+1034990894+1034549072+1034308257+1034243900+1034140616+1033826220
2459+1033386908+1033113405+1033171659+1033348185+1033278741+1032910703
2451+1032556432+1032498585+1032694641+1032915925+1033093535+1033357069
2442+1033664750+1033631792+1032938508+1031796213+1030860284+1030702476
2434+1031329164+1032191310+1032765848+1033039893+1033263754+1033441228
2425+1033354356+1032944950+1032387977+1031872778+1031540479+1031572217
2417+1032031739+1032585186+1032708408+1032325857+1031943578+1031987048
2408+1032294458+1032445213+1032348847+1032242443+1032190767+1031938627
2400+1031376161+1030794638+1030430330+1030128616+1029726398+1029360598
2391+1029148605+1028983677+1028826072+1028788773+1028867779+1028936002
2383+1028991272+1029106763+1029195805+1029095370+1028874493+1028855097
2374+1029255619+1029919335+1030504588+1030997679+1031903363+1033656138
2366+1035777561+1037011203+1036628788+1035295999+1034275841+1034092263
2357+1034314225+1034254818+1033480019+1032010038+1030364277+1029133754
2349+1028516152+1028393270+1028577662+1028804032+1028712480+1028268352
2340+1028046526+1028600516+1029647054+1030330843+1030252923+1029777600
2332+1029348324+1028968757+1028435316+1027720059+1026980321+1026461054
2323+1026434470+1026977744+1027754849+1028220949+1028067820+1027425127
2315+1026761343+1026567525+1026925797+1027419905+1027661670+1027745016
2306+1027941343+1028173003+1028104712+1027615012+1026864017+1026036593
2298+1025345818+1025117413+1025482400+1026087590+1026447151+1026445863
2289+1026233734+1025851387+1025308790+1024891247+1025084590+1026147336
2281+1027803134+1029323164+1029977318+1029572863+1028663856+1028141536
2272+1028484075+1029449709+1030552941+1031586865+1032521642+1033277249
2264+1033822423+1034141565+1034061678+1033522201+1032884390+1032536969
2255+1032431582+1032352170+1032320500+1032465287+1032765644+1033031212
2247+1033049726+1032801926+1032348372+1031349305+1029232087+1026338713
2238+1024261574+1024329119+1026034965+1027402884+1026789012+1024095154
2230+1020214988+1015516757+1009158252+999988228+987987085+974689570+962162582
2220+951726499+944091492+940526264+942595740+950234409+961124046+972488124
2210+982648331+990887444+997246220+1002529026+1007313790+1011174899+1013663547
2200+1015229352+1016436750+1017275839+1017807924+1018560750+1019922158
2191+1021779437+1023721487+1025134300+1025452154+1024851100+1024265440
2183+1024370080+1024916746+1025153831+1024432606+1022581295+1020450242
2174+1019773641+1021394242+1023943517+1025329271+1025087303+1024400462
2166+1024482044+1025756105+1027779602+1029113070+1028279407+1025876275
2157+1024374352+1024882973+1026105358+1026539517+1026003363+1025195063
2149+1024694309+1024522192+1024466108+1024546605+1024901080+1025319438
2140+1025362569+1024993174+1024668674+1024673557+1024693020+1024315013
2132+1023677000+1023171159+1022725404+1021967152+1021031155+1020553119
2123+1020778472+1021205713+1021185640+1020561460+1019725763+1019188998
2115+1019056554+1019076017+1019168111+1019370678+1019269632+1018352555
2106+1016996911+1016232691+1016516095+1017410047+1018271311+1018713472
2098+1018674952+1018341433+1017848613+1017224231+1016779628+1017086496
2089+1018281687+1019772556+1020795087+1021013455+1020617612+1020091970
2081+1019772217+1019578737+1019436934+1019724067+1020756500+1022035782
2072+1022648229+1022292941+1021418995+1020537725+1019771946+1018949472
2064+1017935893+1016835644+1015793854+1014841105+1014311394+1014983044
2055+1017076120+1019447039+1020635380+1020398159+1019470910+1018334923
2047+1017067168+1016007474+1015601120+1015847225+1016525047+1017453788
2038+1018268327+1018906680+1020329394+1023123078+1025401156+1024564983
2030+1021345279+1019203240+1019627226+1020855172+1021427743+1022300740
2021+1024537721+1026922949+1027163561+1024756361+1021814837+1020786474
2013+1021968577+1023720470+1024491742+1024095967+1023163835+1022084813
2004+1021024034+1020371779+1020481437+1021161429+1021803648+1021923411
1996+1021391733+1020374966+1019327614+1018807872+1018937469+1019286586
1987+1019495934+1019623835+1019879637+1020276294+1020539352+1020350892
1979+1019850341+1019630006+1019725424+1019122335+1017000709+1013932370
1970+1011421140+1010675637+1011734179+1013337555+1014103402+1013900293
1962+1013579048+1013726277+1014076886+1013998626+1013292525+1012426717
1953+1012022329+1012260432+1012893291+1013577895+1013971025+1013880626
1945+1013614380+1013737466+1014305494+1014888102+1015334942+1015632180
1936+1015379701+1014297627+1012875524+1011834411+1011309582+1010980199
1928+1010630811+1010383825+1010600362+1011446435+1012453301+1012982877
1919+1013035027+1012941780+1012599173+1011655783+1010249956+1008985457
1911+1008306753+1008088589+1007951668+1007807356+1007715804+1007523410
1902+1007016552+1006187975+1005149101+1004017657+1002958709+1002067470
1894+1001207426+1000269326+999593742+999825402+1001075184+1002564901+1003545318
1884+1003993040+1004353957+1004933513+1005566441+1005887143+1005879344
1875+1005941667+1006353853+1006979050+1007549790+1007889888+1007887989
1867+1007617606+1007349529+1007250382+1007323013+1007508016+1007709633
1858+1007839501+1007852657+1007695663+1007381878+1007168732+1007419176
1850+1008192348+1009128278+1009761612+1009830649+1009359666+1008651463
1841+1008020434+1007527818+1007147437+1006932528+1006932121+1007039271
1833+1007081384+1007031811+1006951449+1006759868+1006359821+1005880701
1824+1005474957+1005099459+1004705990+1004456495+1004545605+1004868817
1816+1005018961+1004770212+1004397224+1004383321+1004881295+1005520190
1807+1005818310+1005651347+1005331594+1005303111+1005665384+1006060617
1799+1006175226+1006029421+1005701598+1005229395+1004745256+1004468363
1790+1004453782+1004511833+1004510273+1004497184+1004571782+1004740170
1782+1004974813+1005254961+1005387678+1005131197+1004563441+1004001178
1773+1003660673+1003486589+1003273918+1002956064+1002576904+1002161937
1765+1001788542+1001629717+1001770842+1001991244+1002028340+1001891690
1756+1001642127+1001293213+1000946470+1000747226+1000761874+1000869159
1748+1000826367+1000576533+1000240843+999877010+999469096+999060775+998726103
1738+998506989+998481355+998623972+998476065+997665052+996687212+995895188
1728+995204684+994508688+993697472+992632284+991274267+989606534+987502811
1718+984885245+981829588+978316646+974205770+969222440+963000653+955462013
1708+946251502+933672499+916780527+898241100+878832744+852656004+816189867
1698+778526301+743561137+706613438+673092351+648584293+629526954+612730400
1689+599731479+592608755+592988932+604254066+623467111+642606779+661372780
1679+681562377+704927123+733632251+764586025+790711836+812431567+835338826
1669+858388159+875190003+886064381+895217994+904878532+914070054+920908425
1659+925540536+928969317+931810540+934951307+939104229+941870718+942408025
1649+942773554+944372929+947099882+949455745+950949055+952106337+953412543
1639+955096484+957320174+960234842+963010486+964564967+965310401+965909082
1629+966526547+967041136+967299447+967121362+966249993+964525634+961908136
1619+957793191+950056189+935821659+915173829+888851962+854306851+810434654
1609+764224565+729953092+718195884+728822259+754573318+785914389+813819287
1599+832477800+840910664+842971866+845765550+855189613+871752744+891567115
1589+910101660+924757802+935446568+943257354+949031284+953195260+955983654
1579+957481305+957452551+954616414+947745762+938663289+929599464+921869515
1570+918270176+920986821+927923729+936222926+944050735+950018347+954291236
1560+958960916+964595959+967675691+968652378+969218575+969640188+969995883
1550+970430720+970838362+971149028+971507707+971961668+972459303+973018650
1540+973208942+972670007+971854654+970946732+969947801+968913809+967636561
1530+965746391+962784930+958071237+951482293+942481741+926409260+897014713
1520+854504603+796554734+714831392+619091956+536256023+479204481+446517395
1510+439031957+469120974+558064424+667721384+732541633+767017435+794090230
1500+819932433+843833401+863599419+876644658+882294485+882172348+876886965
1490+865583514+850316349+838003659+833028535+835454249+844434184+858206005
1480+873065799+885323965+893836512+899018679+900617850+897457824+890220762
1470+882505935+876559006+872730178+871433263+872739943+874822033+875596560
1460+874514012+870555858+860166365+843532705+829769565+823034545+822677425
1451+827670317+835533051+841791730+843107905+840845018+839134696+840908019
1441+846342326+854402879+865177160+878340942+890196144+898309662+904036595
1431+908677047+912017735+913643219+913977688+913695234+913125104+912056662
1421+909635695+904739441+897658695+890428550+883669998+876477491+868261640
1411+859407774+851084773+844398174+839874908+837863551+838526385+841498765
1401+846583073+853863876+862671491+872003664+881765044+891551178+900036870
1391+906903114+913087806+919409689+925652771+930937137+935016410+938291114
1381+940997722+943049226+944318066+944662571+943616779+940377883+934493752
1371+926150270+915798415+904778503+895632079+890340932+889216880+891317280
1361+894571639+896948186+897768150+897080698+895099248+892485955+890423667
1351+890153081+892471307+897373528+904042563+911310142+918194086+924261999
1341+929614655+934370394+938233538+940851917+942259169+942554372+941528722
1332+938678479+933436499+925491030+915016224+902699804+889676673+877344385
1322+867026776+859816705+856567636+857548392+862160497+869280915+877495818
1312+884993294+889821596+890542481+887135401+881846831+878281467+878349487
1302+880171434+879506904+873002663+859693754+840226942+816129850+790273404
1292+767323625+752737401+750331828+759958323+777366307+796838273+814213163
1282+827789063+837500735+843953775+847926374+850210352+851512828+852268774
1272+852483073+851762798+849448438+844680628+836486409+823983835+806516308
1262+783670152+755551701+723210071+688392271+652769021+617679347+584353705
1252+553954565+527470346+505615797+488540959+475528475+465196388+456178171
1242+447682713+439569704+432142520+425926734+421421474+418863112+418152908
1232+418897020+420428816+421917650+422695263+422621920+422096651+421576230
1222+421033057+419878488+417284489+412537159+405342143+396002002+385255965
1213+373939765+362795004+352372349+342931874+334546516+327376626+321780679
1203+318230575+317219504+319156264+324238436+332400544+343291164+356245292
1193+370389423+384852765+398791278+411181074+420826591+426910915+429663909
1183+430302127+430009059+428901012+426347703+422653828+420176981+422188779
1173+430360177+443503580+458710525+473304514+485719946+495156758+500980499
1163+502612663+499965970+493880934+485756871+476330604+464996772+450783095
1153+433819035+415450301+397339878+381147565+368760006+361787359+360421271
1143+363305965+369074537+377800298+390255842+405637855+420747009+431954907
1133+437882203+440243864+442639908+448563169+459808909+476069376+495715529
1123+516909346+538294371+559123101+578991147+597469405+613858927+627009417
1113+635204720+636575284+630356616+618180372+603958727+592227289+586320372
1103+587102223+592161507+596795584+598001151+598017766+602136441+612439265
1094+625270341+635228388+640046111+641179657+641375714+642761807+646399055
1084+652426956+660322919+669266913+678502718+687534262+696125137+704224142
1074+711927439+719385853+726608606+733449555+739838983+745850677+751502198
1064+756719087+761480387+765755717+769368077+772164541+774243172+775776087
1054+776616261+776204414+773841023+768938801+761035581+749795335+735208568
1044+717814215+698637859+678777577+658890237+639065219+619328973+600330363
1034+583544184+570862982+563871516+563177791+568181228+577398893+589028472
1024+601337364+612669636+621261528+625760787+626816141+627814869+632704884
1014+642658658+655469050+668110309+679088446+688479483+696914381+705159800
1004+714041877+723969611+734520642+744816006+754206975+762423302+769316130
994+774781022+778871010+781803107+783810734+785000771+785402649+785198184
984+784800035+784600453+784689292+784836792+784652468+783759669+781981395
975+779482643+776696962+774017345+771520017+768984848+766163224+763072709
965+760140138+758032006+757195156+757529218+758520079+759622565+760553070
955+761376967+762314118+763413688+764561611+765846862+767660061+770283323
945+773506893+776718392+779353115+781325003+783052279+785037188+787482704
935+790326369+793440416+796683856+799901594+802939755+805599367+807665384
925+809109121+810119174+810840398+811318908+811787449+812664312+814097605
915+815768593+817245492+818317597+818923262+818962392+818313935+817001829
905+815188562+812907907+809964010+806257997+802022543+797527556+792738655
895+787500269+782033885+777144345+773781751+772291696+772298953+773455895
885+775933014+779934773+785097341+790583188+795523794+799345434+801979683
875+803844083+805479129+807108682+808442149+808782790+807288259+803201525
866+796106538+786308333+774976874+763598690+753105981+743608609+735051710
856+728050241+723834114+723058027+724528348+725282056+722270886+714307445
846+702590384+689420431+676280928+662699738+646476026+625147797+598026650
836+567579361+539210126+519566449+514057510+524359419+547150271+575371192
826+601642197+621550154+634638795+642877772+648390610+652415902+655670532
816+658769592+662038531+665418824+668905792+672832886+677445805+682311202
806+686434217+689205522+691395711+695073784+702051857+712104575+722853426
796+731509743+736591745+738019681+736094653+730798963+721945300+709793335
786+695823084+683146900+675250191+673161184+674334199+675334351+675005171
776+674171983+673383824+672135398+669375011+663821077+654671940+642822841
766+630952041+622099600+618353167+620497783+627840639+637659934+645219394
756+645585804+636593594+620689974+604018609+592694813+588368146+587514613
747+586622696+587528176+595146094+609998157+625690733+634563858+634438873
737+629682795+626915356+629957111+638078902+648075943+657113726+663643874
727+666817870+666196946+662294876+657413677+655880423+662140052+676772526
717+694627486+708021504+711855283+706319455+695814946+685579056+678750858
707+675526270+674296358+673409323+672243564+671153556+670433553+669396238
697+667251418+665201677+666478315+673419428+685123264+698363678+710211557
687+719404503+725752089+729242041+730155049+729469903+728344563+727179957
677+725377812+721591775+714452300+704039818+691941834+679403316+667552047
667+659390245+656248461+655956648+657069307+659513127+663321205+667913032
657+671949649+673876983+673312956+671827580+671796385+674364920+678604307
647+682356436+683621341+681644977+677556209+673839480+672398795+673145044
637+674834614+676894121+679870027+684328121+689851131+695304155+699914904
628+703746852+706937192+708932749+708981915+707087066+704067893+700929026
618+698316207+696235338+694195091+691887920+689656431+687982459+686658824
608+684876346+682071676+678323074+674003799+669395763+664688106+660267242
598+656882609+655272994+655590848+657376175+660010626+663021729+666226717
588+669893601+674527136+680282348+686682560+692847585+697784326+700673969
578+701159329+699380649+695864316+691115020+685029882+677148363+667653636
568+657617803+647995988+638921653+630335254+622781558+617110234+613640695
558+612159591+612495281+614404168+617217519+620313120+623359894+625492303
548+625291907+622487643+618699369+615694370+613645985+611354275+607459529
538+601615952+594955056+589007720+584172975+580104213+577387568+577525777
528+581313306+588017876+595679399+602068286+605949943+607417280+607689833
518+609037678+613567318+621326428+630675284+640153735+648994648+656870538
509+663917376+670528021+676860348+682459177+686000127+686083744+683135710
499+679144259+675329943+671457576+666667725+660224179+652251041+644325510
489+638875538+638151058+643717335+655494142+670934307+686600163+700671528
479+712697559+721746328+726558151+727347802+726129079+724890825+724028407
469+723326104+723008250+722945656+722424421+721210310+719688042+718025869
459+716399572+715735042+716401810+716912126+715883152+713755490+711970977
449+711081501+710568676+710066701+709591989+708930985+707872512+707023115
439+707726775+711200858+717147108+722784728+725500695+726422451+728640987
429+732653529+735748249+735696844+733251464+731056189+730687269+731373568
419+731544397+731670738+733504892+736503788+739024037+740295996+741033360
409+742323562+744031985+745243383+745972813+747335985+750020756+753500467
399+756463488+758283265+761089631+766614201+772407323+774774783+772790755
390+769269336+767525039+767454849+765839673+761773149+759510465+761778507
380+766530109+770088012+769676504+766188112+765569494
##END=
