##TITLE=SG-X8068
##JCAMP-DX=4.24
##DATA TYPE=INFRARED SPECTRUM
##DATE=17/2/2021
##SAMPLING PROCEDURE=SG-X8068
##ORIGIN=Operator
##XUNITS=1/CM
##YUNITS=TRANSMITTANCE
##RESOLUTION=4
##FIRSTX=3996.7798
##LASTX=399.67798
##DELTAX=-2.0601958
##MAXY=1.0903467
##MINY=0.88942158
##XFACTOR=1
##YFACTOR=1.0154645e-09
##NPOINTS=1747
##FIRSTY=0.96192789
##XYDATA=(X++(Y..Y))
3997+947278708+947256637+947661470+947912987+947593851+947312165+947321087
3982+947525528+948016469+948391777+948207586+947845779+947722515+947561685
3968+947348674+947460257+947776399+948028561+948110443+948036191+948164033
3954+948449711+948426996+948048400+947577886+947366166+947425332+947616802
3939+947915100+948078512+948162507+948286182+948141318+947928600+948126291
3925+948703693+949128776+948767438+947938696+947707606+947981251+948143548
3910+948280194+948364307+948300328+948014943+947646913+947604417+947770177
3896+947983364+948135037+948000621+947969453+948303673+948325274+948107332
3881+948056911+947851355+947755209+947823239+947860394+947769883+947692403
3867+948015060+948137678+947701208+947470001+947975205+948896512+948832063
3853+947383834+947365403+948184049+948603321+948570686+948242981+947916508
3838+947919326+947871370+947671331+948005845+948644585+948713671+948310541
3824+948214571+948394595+948503360+948557831+948278492+948016880+948372407
3809+949090564+949421204+949318719+949344839+949122143+948616587+948394653
3795+948698880+949191993+949246933+949088099+949188001+949341259+949446855
3780+949476673+949214415+948961255+948934548+949135643+949397432+949257440
3766+949049711+949409406+949862018+949647070+949327289+949689156+950010052
3752+949433120+949045896+949779725+949814767+948971468+949128659+949592775
3737+949599349+949276281+948885536+949076125+949678531+950032298+949993147
3723+949762351+949392971+949103301+949329754+949820343+950049320+949878277
3708+949689332+949942550+950309112+950038109+949431124+949233256+949181427
3694+949107117+948993714+948862938+948962370+949181779+949600464+949866127
3680+949625235+949535546+949248987+948714845+949305571+950408252+950721576
3665+950460257+950113534+949956813+950133315+950419815+950678081+951123532
3651+951093890+949861548+949212536+949736935+950340691+950658242+950527465
3636+950048381+950043568+950617389+950793773+950303243+950368866+950951374
3622+951380390+951336367+950827758+950658242+951038657+951561529+951928091
3607+951881838+951831300+951896512+951611128+951205884+951073112+951088960
3593+951366948+951867398+951982914+951823728+952121967+952410873+952055053
3579+951344585+950950318+950732728+950381897+949995495+949068846+947542257
3564+946435996+945544742+944494125+943437052+942439498+941870138+942041298
3550+942493264+942817565+942979275+942947403+943016195+943147148+942944585
3535+942778649+942924217+942553605+941526115+940707763+940063212+939110385
3521+937781662+935917213+932967869+928488706+922956462+917335527+912963310
3506+911162782+911716001+913717977+916781311+920393050+923779863+926713828
3492+929204515+931103830+932625959+934066558+935414650+936677690+937751962
3478+938602363+939363720+939939889+940472623+941192599+941841024+942386612
3463+943179725+944048674+944669042+945154701+945595514+946177905+947108604
3449+947998273+948424237+948640476+948955150+949361685+949784890+949968612
3434+949908447+950238911+951165207+951956442+952413573+952749144+952528208
3420+952097373+952249515+952695377+953147755+953543137+953759259+954080273
3406+954548674+954632669+954442433+954660257+955297882+955998429+956525939
3391+956607410+956496238+956696688+956914571+956782914+956529519+956457733
3377+956857048+957695064+958356050+958590955+958708290+958816469+958911499
3362+959047265+959297842+959604240+959781094+959687297+959446991+959324491
3348+959377494+959506627+959688001+960025567+960267340+960202890+960153057
3333+960403164+960737443+960786514+960614532+960657146+961049241+961353820
3319+961514180+961605629+961490760+961515412+961776438+961733824+961365970
3305+961167281+961374070+961967613+962377494+962235037+962057185+962133550
3290+962185379+962159024+962348028+962686064+962895142+963022867+963125176
3276+962965520+962663876+962673620+962963055+963183109+963208290+963251022
3261+963357439+963476183+963706921+963842980+963801834+963785809+963621282
3247+963281896+963123004+963298097+963532767+963521145+963529363+963676398
3232+963653741+963487864+963367476+963417838+963683031+963902323+963898566
3218+963813573+963767261+963698527+963607547+963691249+963732278+963558652
3204+963484753+963401403+963205179+963187805+963210697+963087668+963076751
3189+963234528+963274618+963114082+963108564+963324569+963251961+962893557
3175+962920265+963407977+963782875+963773307+963578257+963427876+963444604
3160+963562644+963534821+963561294+963601501+963418132+963347226+963333667
3146+963243509+963241043+963215804+963311186+963624041+963597334+963287766
3131+963254896+963448478+963496786+963339302+963273209+963127465+962672153
3117+962377729+962554876+962852822+963087023+963346052+963592051+963675635
3103+963607664+963621575+963643939+963639713+963670998+963571977+963360609
3088+963385438+963849848+964348948+964316841+963884772+963533295+963289233
3074+963227426+963394242+963532884+963674814+963783285+963588940+963274677
3059+963235350+963530947+963802890+963704162+963444545+963279255+963157694
3045+962949906+962670920+962538148+962476868+962085066+961050709+959428560
3031+957853605+956930478+956586690+956679901+957252431+957893636+958082112
3016+958031163+958212419+958765990+959617212+960461920+961010736+961256911
3002+961227093+961063622+960854720+960334078+959537972+958782307+958083638
2987+957179470+955844585+953678257+949711695+943558555+936155170+928961275
2973+923350847+919266773+914328483+906484696+898127603+894064954+894121949
2958+894285244+894370413+897382505+903734451+910933688+916857675+920492659
2944+921499076+920356247+917978082+915317996+913102070+911316861+909736095
2930+908852412+909237405+910932044+913654643+916939323+920339107+923416118
2915+925740516+927283482+928260903+928702245+928663506+928307156+927821322
2901+927458516+927288765+927146777+927069708+927680860+929727387+932659123
2886+935010345+936319580+936668181+935892032+934043314+931281682+928359690
2872+926485380+926097745+927240692+929922613+933626213+937515061+940726311
2857+942770079+943813182+944369277+944936113+945534939+945865403+945801188
2843+945541983+945580136+946013202+946459768+946882151+947323787+947671331
2829+948262351+949337326+950537561+951568807+952395906+953053722+953697803
2814+954291053+954643939+954966303+955395671+955784127+956147989+956474931
2800+956494066+956368690+956651198+957118367+957265755+957304143+957630732
2785+958048067+958286025+958512360+958717917+958728834+958628169+958542296
2771+958446150+958270705+958109934+958099603+958109875+958093029+958092384
2757+958092031+958223747+958501912+958755424+958834195+958742687+958583149
2742+958529441+958687453+958852685+958897764+958942315+958972192+958894066
2728+958749320+958708114+958766459+958616371+958328521+958220049+958217232
2713+958300288+958489468+958579040+958704651+959007586+959159729+959029832
2699+958869707+958956285+959223532+959441709+959539791+959447637+959313925
2684+959356657+959423513+959369746+959328541+959409543+959494888+959509680
2670+959500640+959429910+959332532+959169120+958988216+958941259+958958633
2656+959128267+959373385+959389468+959196825+958998605+958868944+958701012
2641+958542648+958607743+958920010+959230634+959295025+959201403+959074794
2627+958869120+958721028+958743391+958911382+959241787+959454152+959179862
2612+958610267+958319893+958406764+958466400+958513475+958811069+959047089
2598+959004064+958943606+958886142+958990447+959401501+959537795+959216078
2583+959102382+959385301+959602832+959698390+960006725+960375342+960277612
2569+959749926+959457968+959680781+959993812+960043411+960019052+960016938
2555+959829519+959757909+960054974+960216097+959972857+959772994+959824589
2540+959870607+960095005+960554661+960663661+960494731+960361900+960137443
2526+960085320+960196434+960041415+959982072+960265637+960323102+960285594
2511+960531476+960612360+960434098+960396825+960346874+959918973+959525704
2497+959516254+959453272+959302656+959391464+959719345+960042237+960017525
2483+959766303+959558163+959500816+959817252+960165442+960043117+959726330
2468+959645915+959703556+959585633+959289507+959285633+959655835+959600601
2454+959097158+958879392+959098332+959388529+959119873+958587257+958643900
2439+958963857+958877631+958469864+958190584+958240006+958614669+959163368
2425+959410541+959421986+959478570+959325841+959080488+958964033+958984107
2410+959276301+959344624+958820284+958384636+958492931+958955405+959284753
2396+959124686+958729010+958660863+959151687+959627015+959585575+959189723
2382+958798977+958733178+958916841+959159435+959306882+959151922+959034763
2367+959190075+959208271+958773268+958022299+957886064+958437522+958628756
2353+958689977+958785360+958616195+958474266+958639204+959051726+959399916
2338+959538206+959687590+959652665+959096336+958247402+957465970+957204710
2324+957577025+957838461+957786866+957917525+958336269+958746150+958757655
2309+958462116+958297529+958549398+958988686+959312047+959415354+959044448
2295+958562839+958732650+959272016+959443059+959354368+959195475+958640965
2281+957876320+957829245+958665266+959351433+959490075+959546307+959343156
2266+958649065+958249281+958744859+959564209+959510443+958630576+958801443
2252+960364953+961261665+960673640+959680664+958724197+958205493+959054544
2237+960454818+961034039+960797314+959936289+959086240+959226819+959714708
2223+959697862+959827406+959926663+959134019+958369316+958548224+959153448
2209+959960237+960795964+960848674+960219736+959965755+960079451+959791073
2194+959597901+960569746+961959278+962349965+962509973+963245739+963627269
2180+962370979+959126741+957060433+958503380+960632434+960632845+959039928
2165+958195690+958849457+959836093+960135858+959808330+959694164+959752978
2151+959457968+959132552+959545485+960548204+961173796+960761215+959827758
2136+959819599+960972114+961384225+960707566+960699701+961300171+961207606
2122+960804534+961200973+962156676+962698566+962338050+961706999+961672368
2108+962025665+962573777+963281309+963221380+962103262+961247872+961356109
2093+962117760+962646209+962123454+961648537+961891190+961940672+961836661
2079+962090877+962284518+962113769+962270548+962709953+962533980+961946306
2064+961930106+962559455+962811088+962566498+962368161+962318445+962804279
2050+963443313+963182170+962700797+962993107+963353096+963512164+962764952
2035+960549320+959525352+960449417+961310736+962103438+962553291+961400073
2021+960717545+962998038+965146698+963862878+961555502+960778003+961129773
2007+962149163+963236582+963713143+963756402+963538813+963295397+963285712
1992+963290760+963123649+962522652+961576809+961237835+961251511+961311969
1978+962492951+963467555+962396512+961314199+961877338+962444878+961614317
1963+960837228+961384518+962206158+962063289+961723728+962834215+964193283
1949+963950924+962788431+961834313+961824158+962361822+962446346+961947069
1935+961746326+962658887+963492560+963259415+963072759+963494027+963524256
1920+962688529+961772681+961636387+962262742+962694692+962165481+961639498
1906+961942080+962438715+962780801+962998214+963167026+963124412+962611636
1891+962183149+962114238+961984636+961865246+961998547+962142941+962081720
1877+962135839+962472700+962887629+963241161+963374285+963212986+962908290
1862+962556872+962364992+962441122+962338754+962025371+961968729+962176222
1848+962470000+962571781+962062233+961628052+962077494+962807214+963133217
1834+963112321+963027152+963060785+962918562+962242432+961684694+961830087
1819+962101795+962088588+962061939+962129323+962143176+962164483+962256754
1805+962359357+962323845+962026780+961653996+961348302+960992247+960631437
1790+960484753+960422065+960283364+960195260+960250259+960195847+960004377
1776+959949965+959867320+959548772+959527641+959717643+959621321+959441943
1761+959291621+959030067+958694379+958474383+958436406+958305453+957902910
1747+957495495+957269218+957173072+956948557+956505277+956131965+955620010
1733+955028991+954919756+955016019+955160531+955269883+955210482+955095319
1718+954978394+955010149+955277338+955551218+955890192+956507449+957429519
1704+958303575+958998782+959777690+960869042+962338402+964093616+965873835
1689+967536308+968861978+970165813+972103868+974102381+975660315+976901227
1675+978067593+979053761+979542882+979552215+979562780+979761587+980018973
1661+980325136+980603066+980975615+981602851+982052058+982312849+982706412
1646+983164541+983733784+984421066+985071428+985428658+985579157+986076906
1632+986665402+987007722+987334429+987657732+987672406+987594105+987743782
1617+987926447+987925507+987948751+988122729+988411988+988594770+988510833
1603+988532786+988894946+989226818+989389878+989522416+989699329+989966869
1588+990255775+990500542+990564169+990407448+990312829+990392422+990444075
1574+990489154+990653506+990709972+990503946+990294046+990265754+990344877
1560+990267397+990355208+990783930+991182483+991704768+992260745+992537208
1545+992569843+992783852+993424118+993963426+994170743+994244819+994364560
1531+994684341+995011283+995171291+995113416+994753017+994178374+993727112
1516+993169960+992437540+991594300+990406744+987869511+982496922+977364169
1502+973904455+972425058+974025958+976749202+977742823+976694614+973152313
1487+966618347+958479079+951491327+946888079+944277416+944152627+946936563
1473+950043450+950213260+948369296+945697588+941900367+937788060+935080782
1459+935113535+939613828+944669864+947035291+947617800+947402088+948133393
1444+950855640+954831065+958619952+960299447+957353683+951581427+948049809
1430+948995769+951238285+949368905+943801091+941030302+946086749+956342159
1415+964971781+970974598+974951608+977261861+978481289+979375831+980237501
1401+980693400+980581113+980243547+979527269+977906529+974814375+969011186
1387+962226878+960302969+964210364+970447969+975748889+978576202+978254719
1372+973110403+960787101+942730283+929671449+930202245+940886847+952265892
1358+959644917+961693323+958865363+954858770+952716391+953162429+955097197
1343+954036954+946901815+940130948+941684656+947929187+953023845+956196532
1329+958418093+959927191+959974911+957498664+951176360+941301189+933264171
1314+932282993+937091093+943282269+948677631+954589234+961441924+966618347
1300+969580311+972361430+975014825+975797666+973851804+969609718+964512008
1286+960872916+960184694+961754309+963876261+965628071+966940652+967761587
1271+968053722+967884440+966770489+963909719+959436602+954000386+947303478
1257+939815100+935066929+935336583+937313730+937476379+937068318+937582386
1242+936918406+933684793+931090036+932883580+938668103+945650807+951818680
1228+956472055+959593147+961403242+962422691+963261822+963910599+963602558
1213+961997079+960801012+962805571+968331241+974870959+979891953+981843449
1199+979978648+975404396+971783031+971451863+972365891+972870626+974387590
1185+977450865+980558398+982348126+982568885+981635017+979218347+974925664
1170+970677357+969223493+970915960+974468004+978885124+983373972+987001148
1156+988642314+987811870+985823336+985128012+987129577+990923512+994650884
1141+997458006+999436797+1000662858+1001376378+1002011009+1002405100+1001874832
1127+999767847+995326838+987778413+977956480+969633315+967226682+970094320
1113+972456813+971986944+972034254+974286396+977575889+981895396+986794066
1098+990108329+990404631+988581622+988504259+993975517+1004086415+1014574617
1084+1022772347+1028783029+1033647126+1037888449+1041443017+1044269392
1071+1046413473+1047837695+1048187646+1047249787+1045033508+1040499993
1059+1031867436+1019120224+1005860588+997068141+994304689+996285241+1002192148
1045+1009582913+1012900463+1007683832+995132551+980631827+966544800+950704260
1030+931453781+908363643+885405866+875876596+887688531+908150573+919934509
1016+918385967+910864249+909395946+915694948+924545857+937998254+956849887
1001+975084263+988579391+997519755+1003353290+1007321907+1009700893+1009864893
987+1006565656+999907898+994934742+996233470+1001154738+1005072406+1006722024
972+1006788821+1005504767+1001257340+991834136+978369354+968441004+968708192
958+973867359+973537130+967005453+963381681+968987472+979932688+989309229
944+994984282+997983578+999248379+999278080+998003887+994738225+990290172
929+988261019+990144486+992564678+992704259+991050180+989453506+989600600
915+991220283+991805022+988568591+980336758+970991503+967975713+973489644
900+983230575+992247245+997417387+997114159+989767652+974467594+955850161
886+943406413+941873073+947645739+955332630+962312047+967195631+968262037
871+964444624+957007019+950720813+950926076+956220773+959518484+959191190
857+960830184+967008329+974323140+980092403+984217329+986633588+987621927
843+988364795+989594965+990666537+990138264+985362682+972108623+951320167
828+935442648+936191562+949879803+964983520+975091659+979943078+981873561
814+982549397+981485868+977169824+969423767+962535037+963018875+971321849
799+981292755+988107233+991392618+993374695+995893146+998530751+1000624470
785+1002343116+1003360921+1003085632+1001115881+996809053+989079841+978603438
771+970237952+969304671+975835467+985396726+994042784+1000219344+1003762290
756+1005665832+1007596256+1009944486+1012230613+1014424587+1016246657
744+1017404161+1017790152+1017641296+1018009326+1019175282+1020203887
731+1021055109+1022570547+1025081953+1028213669+1030725076+1031629713
719+1031350903+1030662622+1029690953+1027949063+1024302576+1017875380
707+1010684419+1007001656+1006470449+1004463601+1000936855+998501989+996290993
692+994028579+994652645+999332199+1006338264+1013527463+1019216252+1023372816
678+1027063796+1030613904+1033877923+1036837422+1039879449+1043164363
665+1045551098+1046814608+1047153641+1047414960+1048236600+1049283988
653+1050082501+1050401929+1050206938+1048984398+1045776024+1037902536
641+1021900815+1001771056+990215040+991486063+997026114+1003832844+1015288371
626+1029310950+1040413356+1046811438+1051046774+1054040904+1055075613
614+1056054443+1057796920+1058202164+1055982598+1053034486+1052636639
602+1055245952+1059171485+1063187294+1065733801+1065929262+1065366828
589+1065513218+1066072600+1066153015+1065851665+1065086374+1062034838
577+1055025956+1044483636+1036202673+1036443331+1044183577+1053704923
564+1061253582+1066709109+1070377667+1072240590+1073333879+1073741823
552+1072262426+1069441217+1066756654+1064195942+1061256869+1058986824
540+1058772815+1059760332+1059845795+1058445169+1056460743+1054313375
527+1053422238+1056103749+1060803846+1064134897+1065598211+1065960841
515+1065892635+1066111927+1066240004+1065445717+1062903435+1058012455
503+1052069979+1048429360+1048771094+1050286179+1049127971+1043444348
490+1033874518+1022326602+1009014257+993182404+976510540+964602518+964298292
476+975050513+987510168+992999152+989059767+979928990+972130223+969032610
461+969407801+971686474+974241493+975475831+977604475+982366322+987636953
447+991148204+994906333+1003006978+1013225879+1020970703+1024755598+1021774499
433+1011161625+998519716+992509855+994535721+998503633+998810383+989278589
418+972454465+968106138+974539086+983661293+994421027+1001881406+1000452253
404+993466380+988081641+988635036
##END=
