##TITLE=JPK-843 X19176
##JCAMP-DX=4.24
##DATA TYPE=INFRARED SPECTRUM
##DATE=17/9/2021
##SAMPLING PROCEDURE=Diamant-ATR
##ORIGIN=Lara
##XUNITS=1/CM
##YUNITS=TRANSMITTANCE
##RESOLUTION=4
##FIRSTX=3997.453
##LASTX=373.96442
##DELTAX=-1.4165319
##MAXY=0.90232331
##MINY=0.33868134
##XFACTOR=1
##YFACTOR=8.4035406e-010
##NPOINTS=2559
##FIRSTY=0.84407693
##XYDATA=(X++(Y..Y))
3997+1004430117+1004824264+1005579789+1006298006+1006550652+1006223035
3989+1005557588+1004828732+1004214850+1003972347+1004258896+1004714396
3980+1004761492+1004403022+1004166903+1004305425+1004570767+1004704821
3972+1004688862+1004588428+1004499910+1004563745+1004789864+1004976688
3963+1004961226+1004877318+1005059816+1005653554+1006383261+1006759038
3955+1006516393+1005826477+1005113153+1004833484+1005278132+1006118629
3946+1006476248+1006030962+1005511698+1005658945+1006208779+1006563631
3938+1006695345+1006686621+1006400993+1006070824+1006388297+1007303198
3929+1007554567+1006433691+1004901079+1004503811+1005574682+1006837839
3921+1007276458+1007254896+1007545133+1008162845+1008493724+1008306049
3912+1007955381+1007684861+1007175811+1005992661+1004350819+1003159229
3904+1003272146+1004628715+1006533061+1008450104+1009714254+1009559134
3895+1007988221+1006110685+1005706112+1007391219+1008834037+1008035104
3887+1006429577+1006641652+1008585860+1009766953+1009766953+1009844548
3878+1009794402+1008868863+1007727631+1007159923+1006822377+1006621225
3870+1007559106+1009175059+1009628573+1009174775+1009536012+1010913150
3861+1011597393+1010662703+1008542523+1005924641+1003850564+1004548354
3853+1009491682+1014152929+1014850577+1013251221+1011150688+1009407206
3844+1008553942+1008705019+1009267478+1009632828+1009994703+1010560921
3836+1010641779+1009919519+1009135765+1008879360+1008787508+1008402298
3827+1008051843+1007982192+1007536409+1006492774+1006238852+1007675002
3819+1008909221+1009282515+1010685826+1013161213+1014281521+1013235759
3810+1011062950+1009095691+1008721474+1010026692+1010876480+1010321681
3802+1009997753+1010739873+1010848038+1010001654+1009685953+1010154717
3793+1010466374+1010519358+1010771649+1010985851+1010669299+1010126275
3785+1009984277+1010061234+1009918739+1010105918+1011381133+1012900908
3776+1013091066+1011934088+1010475524+1009522677+1009458062+1010213658
3768+1011207005+1012055304+1012707203+1012775649+1012072468+1011430712
3759+1011962317+1013282358+1013581462+1012108358+1009837385+1008854110
3751+1011196720+1014887388+1015511413+1013599336+1012725786+1014652971
3742+1016424115+1015419561+1012700961+1010034068+1008655511+1009166902
3734+1010990107+1012596485+1012915448+1011874437+1010214013+1009140304
3725+1009446430+1010635112+1011725772+1012498675+1012991483+1012959281
3717+1012288302+1011142815+1009905688+1009446217+1010738880+1012975808
3708+1014197897+1014017385+1012928144+1011460785+1010493965+1010817965
3700+1011966218+1012892751+1013314276+1013208522+1012261137+1010486518
3691+1009016748+1009857670+1013331157+1016242397+1016535188+1015269336
3683+1013924682+1013106031+1012455551+1011321057+1010201458+1011080398
3674+1013661256+1014402241+1013565007+1014541969+1017824447+1019565942
3666+1018423505+1016384821+1015040026+1014438201+1013793749+1012859202
3657+1012526408+1013530819+1014639353+1014340250+1013285125+1013555502
3649+1016198351+1018599335+1018472729+1016931392+1015363457+1014249320
3640+1013379955+1012446543+1011684989+1011652575+1012350648+1012898425
3632+1012530451+1012039416+1013672462+1017363911+1019322304+1018553799
3623+1016681654+1015031018+1014496362+1015456940+1016700025+1016499795
3615+1015038323+1013674519+1013179655+1013375061+1014006392+1014896254
3606+1015358209+1014801566+1013670264+1013085462+1013795735+1015335015
3598+1016608173+1017250852+1017571446+1017568042+1016835568+1015452046
3589+1014354435+1014727517+1016300771+1017032961+1016298572+1015301750
3581+1015015059+1015387715+1015797395+1015798601+1015355655+1014600839
3572+1013600045+1012386538+1011293892+1011264173+1013122558+1015675399
3564+1016865784+1016638388+1016036564+1015503966+1014710636+1013471736
3555+1012313411+1012022748+1012787139+1013736298+1013776727+1012917859
3547+1012248157+1012686989+1013872409+1014721984+1014788160+1014466998
3538+1014396283+1014787096+1015130459+1014787593+1013864961+1013126104
3530+1013138871+1013688279+1014080795+1014057673+1014074482+1014582824
3521+1015430059+1016128487+1016386452+1016220693+1015795622+1015270825
3513+1014778159+1014503030+1014623536+1015015201+1015221388+1014941010
3504+1014330533+1013780982+1013556211+1013675583+1014113777+1014906610
3496+1015907333+1016620018+1016624203+1016141183+1015811864+1015902439
3488+1016019541+1015686747+1014967395+1014440471+1014657440+1015487581
3479+1016115507+1015990248+1015431619+1015094569+1015147127+1015240965
3471+1015150815+1015123366+1015530493+1016292827+1016879614+1016914298
3462+1016488659+1015879388+1015333880+1015100385+1015246284+1015471906
3454+1015395871+1014961366+1014455721+1014279110+1014617649+1015132232
3445+1015264442+1015014562+1014952642+1015398070+1016014222+1016287153
3437+1016058410+1015496802+1014901787+1014667795+1015094711+1015968119
3428+1016604485+1016581149+1016147496+1015733134+1015448571+1015271747
3420+1015264300+1015327639+1015186208+1014865897+1014773975+1015088398
3411+1015459919+1015558013+1015505526+1015526734+1015565035+1015487581
3403+1015355939+1015364308+1015690364+1016289564+1016711160+1016485680
3394+1015792785+1015286713+1015275436+1015545246+1015881870+1016259845
3386+1016618883+1016816063+1016774854+1016597747+1016543628+1016759037
3377+1017008845+1016937279+1016603846+1016420710+1016555048+1016734567
3369+1016704068+1016603279+1016747759+1017131125+1017347527+1017112684
3360+1016674420+1016477665+1016601860+1016833440+1017112755+1017505909
3352+1017875798+1017960557+1017705571+1017317879+1017109138+1017329795
3343+1017946585+1018573588+1018817368+1018663809+1018398396+1018235829
3335+1018126316+1017875798+1017421505+1016963097+1016777407+1016931534
3326+1017235602+1017449237+1017491936+1017450159+1017420866+1017424980
3318+1017507186+1017794870+1018306119+1018787082+1018927803+1018744454
3309+1018571389+1018622741+1018770059+1018871557+1019063559+1019487354
3301+1019902425+1019842561+1019152432+1018217742+1017661596+1017843313
3292+1018599761+1019417419+1019887742+1020029315+1020177058+1020550139
3284+1021000816+1021225090+1021103449+1020731573+1020252312+1019762625
3275+1019283294+1018805523+1018434427+1018424285+1018937591+1019778939
3267+1020463891+1020671781+1020607662+1020718877+1021115719+1021568098
3258+1021918695+1022124883+1022116372+1021975438+1021931320+1021910539
3250+1021586327+1021047557+1020803494+1021008973+1021300345+1021497170
3241+1021816204+1022274116+1022496049+1022261632+1021770668+1021263179
3233+1020805764+1020478147+1020381756+1020478502+1020734056+1021274456
3224+1022090908+1022796288+1022996234+1022770257+1022544209+1022554139
3216+1022641381+1022526903+1022133749+1021649523+1021396169+1021602640
3207+1022165879+1022717770+1023058792+1023359030+1023780627+1024116329
3199+1024041571+1023564083+1023026165+1022761817+1022859130+1023121280
3190+1023182632+1022808416+1022183611+1021795210+1021953308+1022498035
3182+1023026378+1023290088+1023316828+1023240935+1023134118+1023020987
3173+1022965522+1023011625+1023110073+1023239517+1023498262+1023912482
3165+1024305919+1024494801+1024470189+1024317977+1024124840+1023944612
3156+1023733601+1023450244+1023292784+1023564651+1024189243+1024667723
3148+1024672050+1024430682+1024381954+1024663397+1025068537+1025343738
3139+1025405516+1025370620+1025457081+1025780229+1026182675+1026371556
3131+1026278711+1026126996+1026097348+1026116995+1026021172+1025740935
3122+1025303380+1024843199+1024608924+1024729360+1025011582+1025117832
3114+1024879514+1024371386+1023833539+1023610541+1023974331+1024853484
3105+1025757036+1026119620+1025867754+1025553047+1025717103+1026272824
3097+1026726834+1026734069+1026212677+1025235005+1024039230+1022912397
3088+1021920468+1020937832+1019962146+1019201798+1018839143+1018841058
3080+1018996816+1019029797+1018703316+1017998929+1017226807+1016734638
3071+1016409929+1015636956+1013824603+1010872083+1007160065+1003255407
3063+999658435+996774856+994991442+994586940+995512054+997301284+999169670
3053+1000322959+1000525742+1000431621+1001014649+1002556695+1004458275
3044+1006015996+1006962885+1007302347+1007153611+1006878623+1006933308
3036+1007442004+1008218878+1009198394+1010471198+1011962317+1013482163
3027+1015002292+1016526251+1017867358+1018855598+1019583461+1020220679
3019+1020774981+1021204734+1021576184+1021965011+1022343909+1022660106
3010+1022909347+1023116669+1023357257+1023751546+1024285634+1024723756
3002+1024843483+1024634671+1024196690+1023656644+1023255121+1023274484
2993+1023810913+1024743900+1025876549+1027003028+1027944597+1028614016
2985+1028930639+1028665581+1027519597+1025348277+1022122046+1017692946
2976+1011919902+1005223872+998815952+994051646+991466107+990451269+989787738
2966+988453014+986065506+982740614+978642393+973723464+967749340+960407439
2956+951586477+941980979+933387199+927890349+926473775+928460114+932194119
2946+936127787+939412960+941813802+943252080+943462666+942031764+938623105
2936+933113275+925714703+917065812+907963124+898867883+889805410+880739604
2927+871861545+863553179+856294123+850614704+846930419+845337092+845671021
2917+847807869+851815302+857774603+865500153+874465312+883977468+893370040
2907+902028577+909441476+915465393+920445107+924846970+928854899+932501592
2897+935955787+939370758+942613161+945397653+947594364+949349549+951056148
2887+953129232+955586817+957968296+959845689+961240985+962392501+963280095
2877+963442236+962195392+959172441+954801076+950188698+946541367+944685465
2867+944799801+946246661+947773599+948185053+946899199+943895397+939315363
2857+933259742+925916635+917720194+909350972+901788982+896461437+894952798
2847+898106612+905388011+915249701+926023666+936446537+945712999+953460749
2837+959771995+964999106+969459201+973283143+976512212+979193078+981333118
2827+982931055+984160309+985370979+986749323+988102559+989127398+989791426
2817+990317995+990894498+991575549+992403775+993429324+994568995+995585252
2808+996315455+996878978+997542652+998371233+999154704+999721348+1000134929
2798+1000469922+1000610005+1000491413+1000380553+1000639511+1001265380
2789+1001909335+1002334478+1002651242+1003111707+1003844322+1004736880
2781+1005458218+1005721503+1005619934+1005536026+1005711928+1006106642
2772+1006575547+1006937848+1007035374+1006955934+1007017287+1007352635
2764+1007685783+1007644716+1007200990+1006748612+1006754924+1007307737
2755+1008047942+1008580257+1008820135+1008903759+1008959722+1009049020
2747+1009167186+1009228964+1009192720+1009191231+1009365926+1009613536
2738+1009718580+1009682620+1009687514+1009821568+1010046764+1010300545
2730+1010466516+1010423605+1010251321+1010223375+1010534536+1011130332
2721+1011769606+1012187655+1012280004+1012194323+1012206310+1012471013
2713+1012860124+1013057588+1012898354+1012592583+1012483993+1012663299
2704+1012959281+1013200437+1013344137+1013434002+1013533656+1013673881
2696+1013844463+1014052566+1014327412+1014645808+1014882849+1014897389
2687+1014699500+1014507994+1014543813+1014787735+1015038040+1015181527
2679+1015287210+1015461338+1015703557+1015922937+1016068624+1016185300
2670+1016301338+1016333327+1016208210+1016022946+1015982233+1016220977
2662+1016745986+1017461721+1018178661+1018668206+1018795948+1018596285
2653+1018204763+1017752880+1017373841+1017262555+1017602087+1018327539
2645+1019034478+1019294146+1019088242+1018777790+1018625153+1018568127
2636+1018511881+1018557062+1018796444+1019130870+1019425221+1019657723
2628+1019845044+1020003142+1020207344+1020505880+1020765831+1020792571
2619+1020602768+1020416156+1020369840+1020402893+1020442329+1020542408
2611+1020770725+1021090894+1021439860+1021807906+1022154318+1022358236
2602+1022388239+1022412354+1022559530+1022664503+1022476757+1022079489
2594+1021839965+1021945364+1022226097+1022478388+1022760611+1023251858
2585+1023895601+1024357981+1024421887+1024294571+1024374436+1024819722
2577+1025496304+1026170617+1026601859+1026676192+1026614768+1026793719
2568+1027249928+1027665567+1027904594+1028175681+1028540889+1028695654
2560+1028464429+1028197030+1028401019+1029114839+1029802557+1029889373
2551+1029392096+1028927163+1028973408+1029267972+1029220592+1028802401
2543+1028565218+1028754170+1028900281+1028550465+1027964528+1027691668
2534+1027788343+1027943463+1028104966+1028413290+1028668063+1028430525
2526+1027646629+1026749673+1026136430+1025833993+1025713202+1025774626
2517+1026101888+1026667468+1027313409+1027847852+1028056309+1027812529
2509+1027375116+1027337737+1027948711+1028670475+1028789776+1028309026
2500+1027850263+1027870052+1028376123+1029180234+1029945264+1030187980
2492+1029697371+1028820629+1028093617+1027830829+1028164261+1029029725
2483+1029948527+1030297989+1029966542+1029400182+1029014688+1028943335
2475+1029232225+1029835184+1030491481+1030917261+1031010532+1030800727
2466+1030480558+1030448285+1030926127+1031586042+1031861313+1031537385
2458+1030876903+1030323168+1030176560+1030425588+1030820587+1031100610
2449+1031148345+1031080963+1031220195+1031793364+1032647763+1033417261
2441+1033893756+1034118455+1034222791+1034295634+1034377910+1034574168
2432+1035045981+1035712563+1036096921+1035793491+1035031157+1034423446
2424+1034182078+1033964400+1033563869+1033288810+1033455704+1033924325
2415+1034339893+1034525653+1034512461+1034458839+1034576580+1034965194
2407+1035530349+1036035285+1036139833+1035579785+1034509056+1033465918
2398+1032861966+1032718691+1032955449+1033621534+1034664105+1035706746
2390+1036282044+1036209201+1035605248+1034686021+1033746580+1033168517
2381+1033172772+1033608199+1034070153+1034166403+1033757645+1033120711
2373+1032764085+1032898139+1033290016+1033775306+1034521894+1035529852
2364+1036275518+1036214946+1035413246+1034402664+1033636287+1033261716
2356+1033181355+1033218663+1033297109+1033354632+1033195682+1032703158
2347+1032093673+1031788541+1031933518+1032208719+1032412637+1032719826
2339+1033203200+1033617136+1033636429+1033083545+1032077786+1031094227
2330+1030658658+1030737743+1030632911+1029804897+1028661183+1028245119
2322+1029089021+1030604540+1031795208+1032259787+1032340219+1032570310
2313+1033077445+1033544435+1033787505+1034095900+1034782909+1035710648
2305+1036488302+1036889613+1036921176+1036751871+1036714492+1037092609
2296+1037730748+1038082835+1037830686+1037236096+1036728819+1036430780
2288+1036289065+1036390634+1036880676+1037720393+1038716435+1039655806
2279+1040297704+1040445305+1040194078+1039955264+1040062790+1040406508
2271+1040574891+1040353028+1039975904+1039835679+1040009311+1040197057
2262+1040080239+1039619774+1039049655+1038690830+1038750338+1039217399
2254+1039861497+1040261460+1039993210+1039041498+1037964669+1037487252
2245+1038009779+1039422665+1041023652+1041791164+1041334530+1040436723
2237+1040161239+1040665962+1041287930+1041494260+1041403614+1041546108
2228+1042280568+1043367114+1044207043+1044537710+1044585302+1044435999
2220+1043709554+1042203398+1040558506+1039772057+1040087332+1040715612
2211+1040651989+1039651975+1038476060+1038295548+1039717371+1042211200
2203+1044493167+1045479066+1044921785+1043475421+1042395116+1042836927
2194+1044867951+1047096367+1047838487+1046781659+1044955618+1043272638
2186+1042029766+1041532277+1041867199+1042213328+1041901741+1041818188
2177+1043025879+1044589416+1044650627+1043390378+1042862106+1044001565
2169+1045704405+1046985790+1048513863+1051402974+1055249258+1058041836
2160+1058031339+1055514316+1052284964+1049367553+1046768821+1044965335
2152+1044724321+1045939460+1047998146+1050684331+1053564222+1055336429
2143+1055057895+1053349806+1051570861+1050498571+1050202447+1050350757
2135+1050260891+1049311874+1047631803+1046117419+1045658585+1046335380
2126+1047339863+1047742805+1047288582+1046419572+1045792852+1045884846
2118+1046702716+1047649889+1047937148+1047366532+1046596254+1046454256
2109+1047028347+1047664075+1047841466+1047651733+1047343551+1046968555
2101+1046659876+1046721371+1047188290+1047609815+1047449659+1046626965
2092+1045594537+1044855467+1044545157+1044645237+1045271673+1046369568
2084+1047473633+1048221711+1048791688+1049504302+1050308839+1050868532
2075+1050876688+1050194006+1048909287+1047451149+1046520715+1046617035
2067+1047522573+1048504288+1049176544+1049944694+1051290128+1052804724
2058+1053340373+1052270211+1050261317+1048585430+1048112127+1049124057
2050+1051263033+1053312782+1054026814+1053467476+1052695637+1052619602
2041+1053794312+1056222391+1058826229+1060224220+1060156697+1059194771
2033+1057383057+1054399399+1050884065+1048522020+1048559115+1050515026
2024+1052577471+1053437757+1053490811+1053820910+1054513451+1054857736
2016+1054787233+1054869510+1055090592+1055017962+1055064633+1056289772
2007+1058650824+1060515451+1060510344+1059071427+1057717270+1057368091
1999+1057700814+1057966298+1057928280+1057796780+1057695637+1057502429
1990+1056982597+1056193098+1055910875+1057103317+1059447275+1061013436
1982+1060228263+1057903385+1056615190+1057796567+1060017749+1061131744
1973+1061214730+1061875637+1063560816+1064837662+1063991491+1060774409
1965+1056564193+1052938069+1050415372+1048436268+1046296866+1044018162
1956+1042142825+1040979039+1040502899+1040846971+1042354333+1044970442
1948+1047941545+1050469916+1052509238+1054301306+1055164145+1053992556
1939+1051194729+1048594438+1047502359+1047563073+1047482144+1046441914
1931+1044456994+1041933871+1039549130+1038358674+1039357624+1042445262
1922+1045959746+1048290937+1049519481+1050409556+1050901655+1050604608
1914+1049809718+1049083415+1048570109+1048024957+1047339721+1046854999
1905+1047000401+1047707341+1048390590+1048527907+1048086096+1047454270
1897+1047201766+1047695851+1048726718+1049895683+1051229484+1052820470
1888+1054186828+1054774395+1054694885+1054443303+1054386206+1054572392
1880+1054798724+1054844685+1054632043+1054162145+1053508543+1052926650
1871+1052782808+1053324343+1054344784+1055100451+1055078038+1054472739
1863+1053728775+1053061555+1052332486+1051252749+1049679636+1047767488
1854+1045940098+1044711980+1044331167+1044440893+1044273148+1043491947
1846+1042788128+1043184758+1044467349+1045480911+1045921232+1046128341
1837+1046154656+1045687595+1044552605+1042963533+1041273674+1039674672
1829+1038223272+1037200916+1037022674+1037557613+1038037157+1038112412
1820+1038257885+1038920069+1039962285+1040971804+1041817904+1042812457
1812+1044419047+1046652783+1048851126+1050419415+1051400208+1052157790
1803+1052975732+1053969575+1055048390+1055866048+1056097912+1055834415
1795+1055617020+1056047837+1056985647+1057393341+1056938480+1056375737
1786+1056324811+1056608665+1056620510+1056304100+1056199836+1056485179
1778+1056653208+1056301334+1055686104+1055493960+1056024076+1056587315
1769+1056661861+1056500216+1056174940+1055535382+1054858445+1054650059
1761+1054779289+1054729782+1054663180+1054881497+1054944339+1054410322
1752+1053691112+1053562165+1054020005+1054145760+1053539681+1052544348
1744+1051531212+1050788241+1050557938+1050647023+1050459561+1050030872
1735+1050403740+1052321421+1054164627+1054379326+1053663450+1052745641
1727+1051806342+1051025850+1050469916+1049803973+1048800767+1047945659
1718+1048239797+1049858020+1050985492+1050561981+1049316768+1047948212
1710+1046737755+1046033511+1046421274+1047860404+1049159237+1049798795
1701+1050906833+1053291645+1055499422+1056666897+1057631730+1058187948
1693+1057823449+1057121545+1056805348+1056752436+1056495818+1056547950
1684+1058176103+1060569285+1061588592+1061391979+1060832995+1060478284
1676+1060667875+1061099827+1061119119+1061030601+1061868757+1063422152
1667+1064034544+1063457757+1062803447+1062961900+1063698984+1064045964
1659+1063639333+1062693863+1061677464+1061901668+1064975191+1067869054
1650+1067817490+1066640510+1066092591+1066435883+1066353748+1065237483
1642+1063379027+1061097344+1058806511+1057057497+1056136355+1055244223
1633+1053379383+1050696531+1047637690+1044583033+1041935432+1040083714
1625+1039602751+1041052733+1043718562+1046085359+1047959348+1050040518
1616+1051687537+1050608155+1046245160+1039903770+1033506205+1029563246
1608+1029830219+1033758212+1039400961+1045149251+1050129533+1053906095
1599+1056497379+1058406619+1060200034+1062033097+1063691607+1065023777
1591+1066135219+1067182613+1068098294+1068579753+1068339307+1067200487
1582+1064995122+1061675762+1057205240+1050184573+1036319848+1013535571
1574+988634235+968573027+958654524+964345433+980528582+994352168+1002131907
1564+1006296233+1008487341+1008789849+1004317625+988812903+964505092+935658882
1554+904326786+878324931+866060272+868996124+881531374+897353782+914399415
1544+932478044+950156639+968047308+987310293+1000965496+1007138716+1010974786
1534+1016395885+1023518548+1029066040+1031912240+1033662530+1035365583
1526+1036405104+1035980458+1034760921+1034503240+1036382832+1040377569
1517+1046232180+1052567399+1057306596+1060132652+1061991746+1063503080
1509+1065125843+1067362416+1068292424+1066173946+1062358799+1057603927
1500+1051410209+1041800172+1025470557+1002645142+979344439+959692059+943863693
1490+930750309+917347326+900712224+884009173+873919450+874737250+885559021
1480+900888835+915950469+930311122+944670499+956714927+960799742+953056034
1470+937836230+922341083+911805223+911786640+924915912+943423513+957669547
1460+966767625+974334438+983333998+991387519+993985328+992193261+988137952
1451+983127313+978833331+977430304+979935411+985187843+991057491+995105211
1441+995159613+990847544+984597225+981784788+985827472+993583805+1000960389
1431+1005052084+1003104188+994471965+980221393+960520782+935929827+907608413
1421+872071917+822359536+765395759+723771867+707084207+712965487+738357007
1411+776581958+816427472+848845121+870644278+881584641+883081860+879991881
1401+879187912+886335754+902760909+924836898+948148809+968817374+983790277
1391+993642746+1001271692+1008292147+1013106315+1012317596+1004087393+988056597
1381+963851703+931715710+893914980+854579651+819159761+794521071+784967635
1371+787906325+798466513+813419486+829157916+841484353+848110945+850058841
1361+851867860+858383024+870998706+888093846+906234253+921261417+930490287
1351+934053497+933924054+932210858+929821364+925828827+918383513+906820403
1341+893208536+882386908+878914485+881680819+884484320+882081846+873060157
1332+859118760+843238758+828308624+816687210+809715909+807197610+808030517
1322+811531666+817666584+826114820+836035663+847172567+860084658+874304519
1312+886838279+893374082+890521925+876713234+852631542+821732036+789724919
1302+762798091+745439524+738867476+740522439+744629242+744669529+737587154
1292+726043336+715429810+708354457+703203523+698466028+696400746+700955105
1282+713511349+731842695+752204567+771356549+787311026+799784072+810499450
1272+822426351+837808154+856428815+875899122+893633750+908352164+919981805
1262+928741698+934713482+938261727+940465532+942710119+945768819+949384091
1252+952735369+955218417+956744929+957520456+957758845+957410163+955686683
1242+950740589+940315732+923514020+902521527+882528835+869093437+864734343
1232+867854325+874749663+882080569+887372863+888188961+881891050+866762459
1222+844187562+820413130+805028347+805033099+819003081+838015761+853084559
1213+861561237+867044043+874502762+885942458+899693272+912313423+920727116
1203+923446709+920520929+912017582+896733162+874330549+849932873+834275017
1193+836257668+855410147+883068739+910059118+931843097+947960637+959527222
1183+967882330+974291740+979807528+985012935+989854977+993802405+996198140
1173+996565122+994823981+991347941+986759182+981669246+976699178+972839489
1163+971573069+973999020+979426644+985006693+986799398+981182254+966112959
1153+942032260+911425688+877622389+845253397+821829917+815660031+827988809
1143+846403211+850951328+832686088+804819748+789442980+793504673+803493678
1133+802889087+788234154+768207487+753756756+751224838+760824449+778107478
1123+796759772+812108878+823955700+835766704+850139983+866034738+881101195
1113+894751008+907665297+919902224+930753642+939523678+945642709+948627573
1103+948760421+947760336+948014187+950666469+954832639+958928661+962316679
1094+965474536+969038882+973026526+976874583+979970662+982005870+983031419
1084+983445213+983818578+984569280+985792575+987292632+988682112+989607793
1074+989927537+989585805+988509544+986851601+985185715+984196695+984118178
1064+984570769+985023645+985316932+985714129+986641725+988377263+990733421
1054+993140221+995239974+997148931+999012848+1000711503+1002095450+1003105962
1044+1003518621+1002744583+999913634+994143356+985009672+973322083+961764930
1034+954194358+953221935+958009079+964534811+967949428+964780648+954045693
1024+937926663+921617618+910666261+906826431+907135961+907920000+908438554
1014+909547443+910334389+907955818+900826134+891399305+885458091+888060936
1004+899726324+916441078+932993194+946048559+954663689+958967884+959165348
994+955762931+949889595+942594861+933629206+921157508+903667156+883316419
984+866947085+862102205+871108502+888907391+906255177+914051797+903614314
975+865726910+798283590+719699960+666198960+664592085+708563766+766984405
965+812100225+835415540+842149658+839616535+832735383+825921541+824156214
955+830165732+841947371+854988763+866564783+876932685+887421804+898829369
945+911321636+924682346+938215198+950721864+961030400+968734033+974296563
935+978493586+981970974+985079252+987716569+989472250+989674820+986219420
925+975121030+954357918+928903556+908743474+900141182+900593349+902891416
915+902541812+901312559+904628230+915235728+929620851+941622438+948591896
905+952375693+955343392+957545139+957533507+954355719+948298254+940852657
895+934975845+934376078+940759812+951990766+964066970+974353731+982141556
885+987293625+989894910+991025715+992612375+995570144+998391093+998582811
875+995357147+989931367+983563875+976422559+968247183+959052430+948282011
866+933458837+911814444+884949962+860075862+844620648+841184115+848786534
856+865864156+889679300+915236933+937533296+954465019+966745425+975893720
846+983027730+988843969+993751124+997869630+1001233107+1004053985+1006646546
836+1009135694+1011377516+1013137594+1014235205+1014454728+1013473935
827+1011228567+1008410668+1006295311+1005937337+1007661739+1011190620
819+1015905205+1020964713+1025562125+1029348192+1032474131+1035079175
810+1036982316+1038106809+1038935319+1040290398+1042704646+1045940028
802+1048962128+1050467363+1049661124+1046921813+1044080721+1043577628
793+1046432197+1051128908+1055223582+1057917783+1060449062+1064138241
785+1068689408+1072436818+1073741823+1071824922+1066430351+1056971816
776+1042376249+1022029485+995412400+958673888+904290613+830954522+753892725
766+696574662+667546592+650314773+619073394+561727102+489253992+428167524
756+403022195+420756043+469312227+529814071+588173499+637777537+677848177
747+711669987+743075635+772530266+797465364+816206389+830120125+841865946
737+852498481+860818266+865628959+868016608+870324322+872830209+872682679
727+866935949+856340368+845734573+840746347+844116563+854547449+868139030
717+880304958+886972829+886642092+882976319+883304787+892241362+907505709
707+922858432+933732193+938891852+938364715+932155251+921117362+908050082
697+897340235+892909788+895791806+903488063+911020476+912021696+901387459
687+880703715+859859248+849275654+851305968+861683020+876850267+895644914
677+915626186+932786014+944481972+950370416+951868061+952138013+955811020
667+964180739+972209648+977341502+980828395+983989727+987248515+990251323
657+992338805+993224058+993337543+993489329+993937736+993517558+989887179
647+981146790+967975245+954783131+947790622+950300481+960174441+972396756
637+982876583+989730428+992923536+993736584+994048525+995545248+998715021
628+1002283409+1004670421+1006165512+1008737149+1013807084+1020714408
619+1027218862+1030354377+1023308459+992497897+928930012+846526342+776654801
609+738813642+729381351+740583437+770393560+811119716+848574672+876480732
599+898843342+919020447+936078066+949227269+959279471+967272916+973680198
589+978264489+981018694+982934744+984998820+987261920+989436573+991505330
579+993619553+995825272+997719759+998696934+998751620+998395916+998100714
569+998352437+999411676+1000778743+1001704921+1001986930+1001861104+1001635695
560+1001417520+1000777608+998648845+993768572+986109694+978207392+972980564
550+968941711+960265654+943799857+923845892+908546719+903728509+910770455
540+927151421+947253130+964446364+974457428+976935014+973245622+964321389
530+952624934+944005691+943896107+950895851+957340937+958424576+956266591
520+955396588+958201010+964116620+971420999+978308393+981860397+976876002
510+956626479+917079998+864054286+815233895+790216521+798118824+831670399
500+872206681+905286159+927127377+938676301+941803943+938937671+931951687
490+921951972+910485253+899754341+892593236+892398326+900376025+912394281
480+920812017+918904479+904145991+880405321+857618065+847881918+855915225
470+871503075+880598387+880352054+879060951+885293183+899269690+915414892
460+930072308+943957601+957964395+970110108+978452732+982706568+983019503
450+980389137+975318635+964259114+941667619+909671070+883212226+878906399
441+896696634+921694433+942387468+956726346+966981047+974981444+980813571
431+983345488+981205164+973761695+961703861+948081569+938497705+937561455
421+946279288+961041323+971886713+974699150+975446802+977558046+979398628
411+978086956+973400813+967797925+963549337+960927058+959061084+958222785
401+960668029+968872059+981031320+989457355+990988194+989891151+990212242
391+993052199+996701091+998357473+996988491+995135000+997078854+1003279877
381+1010020379+1014022492+1014575589+1013312645+1011995724+1009376282
##END=
