##TITLE=IRMP (1)
##JCAMP-DX=5.0
##DATA TYPE=LINK
##BLOCKS=1


$$ === CHEMSPECTRA SPECTRUM ORIG ===
##TITLE=IRMP (1)
##JCAMP-DX=5.00
##DATA TYPE=INFRARED SPECTRUM
##DATA CLASS=XYDATA
##$CSCATEGORY=SPECTRUM
##ORIGIN=
##OWNER=
##XUNITS=1/CM
##YUNITS=TRANSMITTANCE
##XFACTOR=1.0
##YFACTOR=0.000102985539
##FIRSTX=4000.432643
##LASTX=450.386221
##MAXX=4000.432643
##MAXY=102.985539
##MINX=450.386221
##MINY=55.135779956586006
##NPOINTS=3682
##XYDATA= (X++(Y..Y))
3682I73839I72974I71500I68221I68357I71233I72332I71590I71304I70217I68406
3671I70875I71633I70205I68251I66803I66712I68443I70714I70778I70650I69271
3660I72752I75730I73049I72641I75517I73104I69826I70888I73644I68549I64603
3649I70799I75393I72201I68732I70853I72909I73784I74242I70254I67006I65333
3638I65329I65940I68133I70384I69571I69906I69790I67680I67546I68493I67737
3627I69654I70725I68592I68001I65035I67934I71569I69610I67608I66229I65223
3616I64695I66220I66783I65371I65522I68465I66832I65426I65317I65753I67077
3605I65901I66208I68833I68724I67847I66003I67417I71425I66845I66052I68871
3594I67714I65881I66134I66475I64987I64492I65211I63922I62432I59687I61362
3583I57572I69699I71966I71474I78110I62765I73843I80896I76445I70795I68699
3572I66676I69261I62775I69296I79951I72639I67233I60038I52797I71994I75596
3561I72685I76301I69529I66661I80973I74676I68543I66952I64149I60697I72704
3550I82504I72379I63777I67098I87881I77488I68195I58437I61883I78704I72909
3539I62139I66597I70579I67933I63890I63765I69740I59319I38629I77272I76310
3528I76234I79226I68495I65970I66107I67609I67146I64042I64390I73537I69623
3517I65089I68047I65381I58982I76982I70485I63817I71153I68813I62482I67582
3506I71923I68007I64882I60779I64719I68591I66347I67344I65428I62878I74247
3495I80814I68721I62821I51592I63488I80620I71006I67283I65835I64853I63692
3484I64036I60794I60181I86964I81876I68755I64512I57358I60265I85811I77592
3473I64392I58869I62406I78753I75723I69544I66682I66854I68098I67440I68007
3462I64058I62835I65455I70125I72682I71133I69637I67338I60788I68857I77432
3451I71231I67220I66603I66046I66375I66329I62737I54031I64236I73448I67183
3440I61628I65279I76731I72230I71763I74739I67740I61241I71053I69219I60364
3429I64851I68839I65052I59152I59053I90378I77021I72507I90595I80135I68400
3418I51597I56353A000000I81664I65841I72225I72293I62910I60530I55189I61235
3407I70742I86196I72248I71245I80732I74567I70037I65910I60816I68960I71552
3396I71892I66606I66155I74282I69464I62955I66796I71180I66328I65407I69038
3385I64662I55360I77387I86242I68869I74087I75602I66645I64321I68432I68327
3374I63191I62453I80586I80732I73516I75823I72782I69828I71278I68152I65313
3363I64058I62524I77877I75373I65994I87252I84584I75682I71175I69596I66477
3352I65618I67172I67873I74388I73625I65190I53135I75104I95152I80632I69591
3341I56460I70696I78926I78604I76998I71944I69960I72909I73691I71668I70910
3330I69768I71282I73397I71634I65488I72183I74058I69768I69009I65252I67278
3319I70684I79343I77089I73465I84468I74933I71833I71513I72121I69794I67083
3308I65979I66930I69030I68279I70345I69598I67784I73953I67948I59146I55721
3297I71234I88667I78688I68595I73620I71456I71452I65825I60947I65034I78279
3286I78159I79354I76330I65595I65311I63503I71706I76843I65588I61457I71134
3275I67126I72514I75428I71874I70582I68388I69976I70157I68824I64382I70603
3264I68368I61958I67943I72703I72537I74978I69904I65787I63649I70278I69203
3253I76633I83717I73525I66590I64780I66727I66990I71148I71395I65606I66161
3242I70147I71204I70956I64964I65761I68341I69446I66400I65458I68299I68676
3231I77252I76309I71260I66962I63970I66491I71889I71550I70875I68602I68801
3220I68740I69436I68561I68785I68855I69147I69846I69756I72455I69985I66919
3209I67362I68833I69448I68037I67072I67713I70671I70786I70668I71374I72065
3198I70986I68661I66709I67149I65389I66046I66972I68368I66495I68949I71604
3187I73608I74648I72624I72820I72306I67751I65703I67252I70133I72272I72871
3176I71665I70049I68561I70420I73162I72999I71441I68978I67471I68448I72985
3165I75292I72028I68229I67978I69264I70186I69465I71228I73888I72031I68514
3154I66141I69078I68394I68388I73003I71989I69972I67725I64793I66272I71828
3143I72880I74125I73840I71756I68581I63865I66044I69312I67687I69655I69277
3132I67352I66291I65671I67007I69038I68756I67429I68130I71810I70408I67744
3121I66931I67474I68555I71151I71047I70158I71799I71431I72203I70648I69969
3110I70436I71850I72752I70351I70396I72507I69544I70464I70866I71414I73344
3099I71642I71193I69931I70413I71883I70253I68791I69880I70548I67984I65145
3088I65592I69335I70138I69086I69334I68969I69877I70400I70221I70235I71386
3077I72769I71460I71248I70866I70085I70766I71317I72538I72475I72306I70058
3066I68178I68252I67395I69216I73820I72793I71475I72821I73268I70916I71683
3055I70874I69630I69369I69774I69200I67972I67326I68978I68705I67241I68699
3044I69813I69988I70009I68387I68408I69066I69810I70381I68109I66234I67891
3033I70680I69859I67704I68611I71958I70739I67659I71048I73961I72664I69214
3022I68125I68559I70281I72691I71685I71915I72781I73023I74162I73474I70933
3011I69092I69353I71361I71027I69280I70735I73671I74073I72064I70691I70490
3000I72966I74867I72042I72740I73469I73896I75501I73664I71831I72099I72933
2989I72410I73123I73074I73312I72505I70061I72264I70462I68143I67069I66927
2978I68967I73160I75348I74249I71223I71954I71166I67733I66103I67023I69114
2967I68366I70857I72196I70324I71533I72822I69559I68185I68140I70191I71496
2956I68410I68497I68960I69926I71483I71579I70068I72935I72716I68600I66234
2945I63900I66159I71248I69803I69056I69532I68048I70364I71378I69841I69733
2934I69964I71205I70384I70523I68851I68122I70800I72212I70438I67150I68191
2923I68125I66659I69014I69148I68054I69413I71505I72405I71498I68853I68288
2912I67989I69299I72114I69707I67117I68025I69513I70052I68236I68376I68533
2901I67564I67706I70324I70961I69356I69522I68669I67195I66421I65447I66905
2890I66756I64962I66581I69292I69317I69601I68409I68631I67844I66381I69656
2879I71006I68479I68143I70108I72262I72956I70140I68518I70413I71604I70512
2868I68479I68833I70391I72672I73386I74082I73435I69924I67268I67513I69601
2857I72480I73457I71195I68624I67370I67628I68647I68548I67543I69078I70992
2846I69909I66816I65992I65918I67231I72037I70370I66296I68273I69631I69946
2835I71771I71039I70854I69933I69311I70757I72485I72153I71218I69123I67939
2824I69348I68746I67093I68273I71592I73205I71387I71747I70830I70109I71709
2813I72230I70945I70130I70213I72477I71780I69795I69230I70979I74211I75494
2802I73080I70597I67981I69708I73023I73027I72158I73215I73989I70563I69223
2791I71225I72478I73873I73099I72825I71435I71002I69759I69566I73087I73049
2780I74797I75437I73884I72965I72716I73788I74230I73587I73789I73801I73732
2769I72431I72559I75491I75600I72479I74415I77009I74893I72905I73904I75133
2758I73921I72832I72702I72142I72817I72430I72390I71593I71880I74886I74797
2747I73031I72629I74332I74773I74263I74237I74875I75510I75071I73880I73631
2736I73484I75689I75784I74715I74033I72582I73671I74572I74733I74864I75371
2725I75114I76011I71983I70683I71479I71708I73504I74463I72703I72395I70873
2714I69922I70437I68069I68438I70834I71708I68376I68075I70616I70021I69104
2703I71150I71343I71995I71021I70544I70088I70535I69969I69833I70211I72189
2692I73995I76644I78595I77061I74746I73481I75259I73771I70739I71215I71162
2681I71869I73236I71001I68654I68987I71431I71626I71009I71156I70803I69692
2670I69980I70167I69570I69821I70194I70487I72744I73880I71738I70190I68836
2659I71284I71581I70926I69721I66575I65298I65019I64874I61725I59040I58759
2648I59271I57803I60371I61474I59933I58933I58112I59846I60736I59406I58421
2637I57780I54191I51798I50925I47838I44440I44659I44318I44330I47991I49207
2626I47758I49131I48759I48144I46360I43745I42360I40556I38517I35752I29605
2615I23842I20370I13313I06453I00237H93101H85394H78698H73218H71613H69805
2604H70469H72268H73321H74794H74314H73518H76918H81415H84923H87503H90645
2593H94614H96384H97966H98053H95235H93532H94131H93452H90640H85609H78607
2582H74386H71736H67287H61537H55918H49113H43449H37484H32224H25954H17482
2571H09710H01889G96199G90593G84860G83354G82610G80647G81200G84217G86613
2560G91038G96600H01428H06725H14011H20731H26568H33203H38775H43974H47683
2549H50635H55177H58670H59457H61259H65529H66814H66650H66702H68952H72527
2538H75272H77547H76949H78311H83018H86893H88019H89274H89119H91569H95378
2527H98225H98646H97049H97649I00347I02945I01513I00768I01174H98554H96347
2516H95903H94086H93198H91289H88875H88791H87918H85959H84621H82019H78249
2505H75985H72944H69435H66845H62911H58579H55308H53168H49596H43465H37485
2494H33914H33184H32885H33930H36389H40488H47783H57623H68450H78718H87505
2483H97343I05071I10989I16602I21677I26448I28197I28632I31072I34399I36146
2472I34647I32477I29436I25149I21634I20808I23310I27509I29312I32845I37435
2461I40704I43142I44664I45962I48506I50263I50349I52098I54038I57249I59077
2450I59038I58203I59455I60344I59211I60823I61186I58950I56602I55670I56689
2439I56496I56572I54779I52224I52148I53141I54242I55075I53817I51019I47260
2428I45644I46571I47781I47695I49399I49977I49354I51040I51829I48266I44287
2417I41271I39726I42825I47676I49692I51513I55223I56478I56317I57973I59851
2406I59819I62394I64467I65833I67754I67927I67485I67986I69298I70418I71048
2395I70405I69192I69321I68983I68359I68653I69310I70131I70752I70560I71291
2384I72527I70845I70031I71271I71114I69708I68878I68493I67950I68291I69216
2373I69879I71453I70993I69399I69636I69804I71369I72446I72917I72150I71383
2362I71533I70825I70233I72045I71957I70417I70275I71423I71186I69636I69784
2351I70991I70877I70812I71597I71462I70580I69870I69068I69982I70222I69489
2340I69537I71402I72264I71334I72075I71525I71640I71215I69561I70379I72532
2329I72457I71616I70611I70842I71853I72013I71362I71979I72625I71400I70473
2318I70452I71140I71908I73297I72131I72428I71840I71792I72311I71764I72054
2307I71653I70808I70382I70142I70914I71660I71992I73158I73971I73348I73490
2296I73528I72932I72952I71894I70255I70140I69744I70347I71066I71730I71592
2285I71316I71378I72667I72568I71080I72105I73489I72305I72034I71477I70517
2274I70133I70649I72162I71655I70535I70620I72827I71961I71202I71645I72269
2263I73301I74012I72676I71000I71689I70236I70374I72473I72730I72377I69299
2252I67665I69853I71573I70039I70685I73441I74666I74889I72656I70916I72185
2241I71779I69057I69516I72377I72858I73208I74694I72488I72757I74624I72174
2230I68901I67695I69671I71496I71635I71907I72091I70407I70547I70621I70234
2219I66706I65890I69154I70817I71978I73251I71819I68685I68223I70711I71174
2208I68889I71316I74815I77397I77011I72439I71950I72979I73269I72242I71408
2197I68446I69266I70517I72096I72307I68678I67950I70777I71883I71954I70977
2186I69699I70788I70530I71393I72566I73211I70515I71140I76110I76417I77838
2175I74990I69883I68291I69755I71423I71336I71038I72648I71165I68596I69862
2164I73923I76888I76063I73655I72623I70948I72044I73304I72544I71311I68261
2153I69341I73161I76033I74045I76168I77682I76779I74926I76204I76610I73278
2142I72126I72834I73033I72693I71749I71373I73568I70717I68372I71384I71237
2131I68802I67579I68855I71390I71747I74285I73299I67670I69214I71582I71239
2120I70689I68969I70480I72617I71144I71410I71343I73576I76142I75843I72921
2109I71342I71550I70921I70879I70719I69975I69911I70585I72290I72119I71216
2098I71295I69679I70698I73204I73680I70956I68102I66972I67362I66207I70832
2087I70071I67909I68693I66968I67538I69893I71603I72878I72542I70948I68409
2076I69407I71543I69354I70039I73476I73237I72865I73557I73243I69607I69227
2065I69818I68138I68139I70257I71627I70769I72693I73641I70995I70732I73822
2054I74973I72568I69186I67259I70325I73600I71365I69685I69359I70092I72836
2043I74621I70575I65665I67988I73353I73305I71071I73166I76265I77312I77265
2032I78222I77042I75659I75511I73449I71674I70414I69189I71062I74243I76225
2021I75463I74763I72222I73170I77220I76429I74514I75611I72527I72003I74291
2010I76456I76303I74247I74796I75390I73947I69982I69926I72584I73348I73478
1999I72388I68048I66524I72334I77693I73244I67163I67324I72387I77218I76789
1988I71260I65424I64677I72422I72843I70803I77310I77439I75142I77342I76899
1977I74419I77073I81250I82235I74989I75640I74272I68745I67747I71090I70171
1966I70649I72912I73404I74088I76116I73195I70751I69121I72884I75441I73317
1955I72179I71322I71972I69639I67344I68539I71518I72054I69622I72167I73065
1944I73615I71093I76767I74837I73458I68680I72258I70037I73352I74259I77693
1933I72563I76856I72066I75317I71794I72437I69862I70756I70019I67653I66133
1922I65024I68656I68612I69768I68578I70578I73957I71164I70510I69838I70235
1911I69876I71319I74556I75671I71958I70109I71123I70689I72732I73058I68944
1900I68541I71029I72260I71068I70485I70989I69270I67698I68445I72806I74866
1889I70541I68453I70764I72022I71373I69990I69123I69177I72118I76690I77536
1878I72482I69901I69873I70702I71348I67386I63003I62615I66137I67029I66094
1867I65901I65834I68125I69604I71701I76682I76653I73359I69935I68684I63217
1856I68114I72452I76210I83057I82428I82100I79544I70718I66703I70174I67575
1845I70847I77298I73053I66936I66759I70188I68109I67057I68314I68211I65456
1834I72749I76417I78395I84866I77938I70567I63504I60429I66947I63528I61246
1823I67339I80398I87135I81017I77727I74764I73985I77851I73843I61030I62958
1812I80539I79204I76177I74856I68172I61622I60663I67024I66126I58755I47419
1801I52840I64171I67800I67338I71734I70685I76389I78448I76835I95944I93381
1790I80124I71207I71326I68470I65175I74605I70692I68864I70425I81723I76660
1779I63906I54168I58335I71108I81887I88363I96620I88179I85397I91499I76754
1768I83879I81432I65636I51934I58003I72519I63577I69096I73918I70270I81254
1757I80257I78650I82277I72953I67639I69475I69671I61371I66794I72010I68444
1746I63639I67013I65020I64092I65080I64674I62801I63967I70645I71713I67651
1735I65229I66688I69363I72622I65778I59574I62523I66915I70724I73731I69475
1724I61921I63079I69223I72943I72419I70803I68892I68446I73980I70134I68458
1713I68878I66189I66351I68438I69140I64358I61434I62682I72863I77974I78064
1702I67162I60136I69332I69591I69216I71692I72540I74558I72490I67811I66187
1691I68923I73145I73734I76146I75375I77992I80395I79307I72869I67631I61040
1680I59237I57213I68722I74998I73348I72408I69986I70006I76294I74905I69629
1669I68853I70979I71197I68257I66499I70900I71114I69167I73653I70276I70721
1658I79816I82545I85554I87723I80447I77867I76547I79531I76434I72391I65994
1647I62814I66794I63475I65937I70728I76763I69334I65700I65559I63840I55380
1636I71656I90020I87383I83560I76010I68338I74493I80759I71730I55992I55859
1625I58628I66198I79510I72626I63243I59196I64137I72268I79912I71910I74211
1614I74759I73317I68296I64508I84103I87138I72296I58040I66282I71168I73205
1603I70172I66807I68085I69423I77257I66191I64570I73848I83030I86189I77063
1592I82186I75640I71242I83688I88156I75389I72304I74542I74287I73589I72410
1581I78696I57812I53247I61008I60293I66645I70537I69761I75972I82168I77933
1570I80706I78640I70020I76924I74686I73864I80990I78891I67552I59982I64046
1559I63450I66970I71181I66781I69296I71268I75797I74368I67553I67466I66871
1548I70472I73356I75856I80770I79472I78590I75224I70943I71464I68065I66346
1537I72509I76300I70794I72862I74969I70282I70765I68463I66591I71039I66736
1526I60776I64594I64938I65994I70984I69790I65882I66467I62367I66572I73508
1515I70076I66198I65007I66785I66947I67394I68908I72014I74243I71640I72435
1504I72078I71411I68742I69129I67728I67555I67369I63885I61905I63964I65643
1493I70080I69918I68414I68102I68782I68862I68446I67963I66650I66536I67650
1482I68435I66739I65964I65552I64505I65304I64573I64035I65986I65983I66920
1471I68701I68784I67624I68099I67738I68110I67707I67716I69856I69783I67329
1460I65683I66190I68809I68568I67399I67528I67226I67004I68483I67611I67648
1449I69317I70135I67791I70018I71048I70385I70186I68555I68355I69684I71003
1438I70401I69160I68778I69920I71709I69089I65694I69558I70784I69427I67673
1427I66518I70563I71220I71649I72241I71378I70073I70300I70984I72491I72067
1416I71196I71311I69514I68901I69842I71234I71359I70275I69968I69100I68949
1405I69926I70603I71141I72006I70315I70786I73101I71909I70010I71108I72225
1394I69844I70748I72471I70638I72391I72243I71727I72087I71740I71638I73194
1383I73160I72044I70228I72019I72264I71214I69759I68778I70634I71502I68007
1372I71464I73945I73222I71157I69629I74143I73537I71832I70431I70364I68706
1361I68497I72326I70430I70025I68849I68352I73530I74661I73614I72253I69258
1350I71134I73782I70553I71229I71148I71798I72598I70821I69845I72122I71171
1339I68279I69937I72666I71296I71072I68381I65061I70947I74348I72028I69386
1328I69522I72204I70697I69624I69117I69804I70394I70720I70982I71120I70461
1317I68177I67402I73161I75109I71018I72078I73277I71422I70730I71023I73221
1306I73747I72343I70866I72691I72473I74094I75029I71941I61680I71393I78805
1295I74938I72403I70204I79490I78667I76148I76221I75605I74540I74331I74771
1284I76471I74991I68325I67296I77938I79689I77292I74514I75455I75632I74983
1273I74080I70045I74383I77791I74500I73119I74271I71772I71994I76989I74561
1262I73099I72605I73156I72039I74103I74705I74323I74490I73249I72421I72547
1251I71502I67491I61742I72393I82992I75543I71255I67866I66734I67788I68666
1240I72783I69756I68240I68615I70107I69556I68978I67282I68400I66908I67828
1229I76403I72733I70739I70653I70798I71338I70272I70363I72117I72106I71477
1218I69900I73430I75130I72852I71872I70909I69123I66885I74282I75457I73024
1207I71713I70523I69840I69552I70116I72012I69476I68552I68191I67420I66816
1196I66759I65901I64891I64350I63864I61241I56421I50603I49573I53326I57001
1185I61452I66482I69077I69674I69384I69836I70825I71479I70911I71309I70752
1174I71638I72298I71841I70427I66691I60876I72613I73481I70496I69694I70901
1163I67248I63955I73471I73499I69786I65471I61686I62256I62167I59969I52878
1152I48038I53843I50661I62086I57897I47337I41622I43586I38212I30199I19136
1141I14488I06294H92886H79503H65478H56944H46235H34261H29197H23981H11955
1130H16842H14921H03245G89693G78629G65653G62788G56951G50491G45037G40906
1119G41431G44850G45277G51882G65996G64047G68431G79218G95976H08694H08540
1108H08848H31731H46997H55392H67229H73831H85686H96099I01065I08828I15037
1097I22866I37721I50360I50923I54483I56722I59308I61222I61525I65404I67298
1086I66207I72228I70483I68958I67347I62983I57440I57782I53672I42431I27052
1075I06365H81219H61803H55175H63917H80898I00206I14581I22261I23161I26460
1064I29992I19614I05491H90678H65686H42025H22093H11997H07509H04473G96421
1053G99559H03128G99432G97972G98455G96843G96191G98475H07180H26476H22588
1042H19664H21873H29162H40291H48135H51684H51367H56107H58921H63132H69878
1031H74525H76704H77566H84015H86045H88441H87410H90157I05436I07521I11346
1020I16398I19608I16639I08049I04447I07241I16569I24974I29372I26528I25517
1009I17552I03887H91074H66213H39653H20056H15369H28759H52866H76472H97516
998I06244I16755I16924I14751I00136H81038H47531H32806H30121H21339H11949
987H08593H13687H32257H51583H56136H52139H36417H12988G95256G88124G95189
976H10394H27326H41694H57873H78698H89800H98004I06724I10512I11863I19098
965I20819I21813I23671I26029I25920I23602I19135I07201H85703H63296H55800
954H66073H90901I11927I26579I38466I43677I45560I54484I57944I62106I64584
943I65626I69716I72191I72117I74333I75803I75054I76237I76572I75334I75614
932I76605I75716I73633I71526I68706I64721I62692I56121I48573I41796I31750
921I20408I12154I06052I02329I02433I03315I07683I14576I19604I22998I27554
910I33789I39298I43343I46769I49810I53147I54367I55864I57684I58429I58829
899I60935I61823I62092I62873I63926I64996I66196I66544I67551I69457I69908
888I69829I70596I71215I71553I72535I73540I74183I74191I73841I74846I76392
877I75323I72983I73570I73762I72773I72580I72502I72934I73178I71353I69565
866I69522I68361I66507I66439I65545I63268I60966I58890I54024I49656I45245
855I39585I32203I21831I09755H96132H79747H60443H39831H17715G97011G77492
844G58314G42406G31017G23984G23775G31469G41152G56534G78009H01646H26019
833H49410H69403H84376H93342H96137H98462I05603I15000I24496I34577I40645
822I45338I49927I50550I49160I49191I46334I41416I36317I28909I22277I21197
811I22894I25024I30223I37239I44436I51872I56066I59570I63259I65635I67192
800I69711I70729I70236I68276I65501I63917I60611I55085I51090I48172I46489
789I49096I54667I58182I60552I65314I68420I69759I71468I73256I74033I74085
778I73184I71477I69819I66801I62480I58181I56133I57805I60365I60327I61436
767I63885I65360I66727I69129I71436I72738I72522I72246I71102I71851I69892
756I65969I62948I56705I47325I37247I29087I26520I30539I37697I45899I54024
745I58075I58692I58720I55882I51719I45943I40746I33609I26911I21501I10879
734H90836H66492H50045H51786H63434H69950H68173H65555H64620H65346H66853
723H65248H60490H55377H54095H58318H67034H76721H86723H93949H98752I05202
712I10518I11480I12230I13252I13956I13519I12130I11516I10503I09855I07692
701I04936I03073I00237H97147H94240H89553H86796H81824H75698H70308H63643
690H55653H44769H31402H15874H02349G92569G88005G87675G87380G88345G90737
679G90968G88885G85991G81956G75370G66719G62111G62925G64082G65166G65117
668G65586G66403G64686G63200G64410G64485G63315G63279G65671G67182G66606
657G66476G67369G67859G70155G73455G74585G74901G76056G77803G78891G79306
646G80281G81698G81773G80222G77794G75938G71393G61059G44531G30698G29077
635G38470G50445G61027G69421G74852G76487G79192G82521G83831G81149G80947
624G80747G76972G70671G64175G60891G61699G62335G61484G62661G59171G54136
613G48913G36680G23501G16438G16133G17136G13855G03792F87825F64849F34445
602F09771E96622E91680E95767F06330F18855F31276F41248F45321F48506F53028
591F55329F54372F54871F55900F54728F54335F55756F58770F60308F55417F48463
580F39491F24314F06937E97565E97671F08951F30041F53662F78917G06149G29598
569G49472G69803G85575H01287H18182H31206H41201H50837H60089H68213H77403
558H84131H91181H98418I02584I06674I14636I18911I21102I27285I32038I33585
547I35932I36120I40610I46520I44659I43653I48595I48069I47376I50023I48832
536I46313I43694I33235I21289I16549I15776I24316I40449I49722I52762I59180
525I62239I62966I64671I63420I64960I70040I66895I63199I64816I58708I57976
514I63573I64583I68014I71719I69550I71501I73734I71026I70671I73541I72132
503I69434I67978I62163I55402I48269I40214I41536I50664I52774I56090I65113
492I66684I64993I69948I70109I70489I75078I73760I75024I75859I71692I74088
481I78433I73475I71035I71377I67625I67302I69327I68265I69396I70318I69205
470I71302I74479I69626I67071I72046I71653I67001I62546I57910I59988I62287
459I57595I57159I58520I50854I46446I46543I42399I38559I34844I24769I16051
448I11575I05094I03019I04728H97989H90200H88171H78081H67529H62338H55272
437H49081H47490H48518H55974H66949H72510H78671H88182H92864H97183I03187
426I04256I10582I17821I18970I23888I29267I23733I20473I24198I22270I19711
415I18781I09563I00138H90782H76257H63774H56238H54532H63599H77750H83149
404H86651H92521H93186H93729H90362H78227H62211H39341H16044H10392H19798
393H30566H34538H34640H34420H28567H19677H12905H05124G97596G90406G83672
382G76979G71557G66262G61897G57436G51955G42735G34260G28284G21179G11791
371G01863F89151F76160F68395F62167F53975F46122F36435F28240F25493F23271
360F18590F13022F07117E98117E81160E55143E35374E36678E54560E80803F07429
349F31647F53563F74225F93948G10510G27316G45967G64946G84611G97344H09822
338H23975H37791H51898H63771H74652H80927H84142H89885H96997I00566H97959
327H96811H94749H85399H69345H37095G81661G12991F62170F53485F81665G18826
316G59411H04786H38934H58673H79318I01259I18083I30068I36066I39308I44221
305I44975I46669I53152I54254I53180I57146I55085I44650I29476I10972I00504
294I08156I22216I36653I52297I59156I59903I66316I69717I65153I67186I63366
283I64793I67863I67275I66871I72355I73488I70520I72473I72806I70519I69828
272I67452I62935I60222I54842I48371I45430I37966I30541I29248I22975I14541
261I07521H99703I02198I16105I23356I26794I33306I33489I34426I41824I43301
250I41598I42626I43650I44046I44841I40356I40550I47442I47341I44828I47682
239I49020I47208I49564I50251I50632I51527I50124I49961I52550I49523I46972
228I48994I50959I50800I51864I51394I51622I53046I45412I44231I46556I38936
217I41858I58184I61507I59129I62934I64365I65189I69192I73237I68163I68425
206I69461I70373I74611I71488I71316I75963I73905I73666I74819I63931I62684
195I67303I55627I43815I47694I47103I51124I65338I64966I61186I68187I63664
184I56521I53642I45039I45898I59340I62084I63323I73317I73934I69285I77142
173I72300I69243I72246I69041I69428I75386I73054I71843I75586I72881I70540
162I74520I72833I71050I75920I74439I73555I73496I66838I62826I72171I67822
151I61786I70655I71191I72031I75164I67922I63154I70271I68926I74097I79041
140I73748I70136I75862I67604I63034I73855I71480I67435I72555I66608I66703
129I75051I67452I60853I67328I72232I73898I71728I62905I63099I77726I77012
118I73060I75015I67741I61619I67836I66586I70213I65623I44155I33092I36848
107I30761I34472I51422I57905I53525I61186I65435I62385I64915I68915I74152
96I78379I76285I71275I73083I73976I70043I66890I60094I60904I71634I66306
85I61334I61743I66994I73839I69094I57965I65402I75091I74915I78589I77073
74I72319I71044I69303I63936I66591I73316I70549I68182I65155I66687I69628
63I74046I73587I69789I72811I74116I72744I73779I68847I68877I66404I66854
52I61556I59307I63758I72292I80397I76959I61066I53303I57050I54960I54587
41I55334I66100I71002I65647I67002I71337I76478I71359I49327I46669I48365
30I36418I25123I19213I26249I41815I49495I48613I70012I74697I70998I78310
19I78251I72361I73375I75141I71761I71669I70597I52572I44408I36698I12177
8I41430I66332I64893I72654I84669I89242I84158I69294
$$ === CHEMSPECTRA INTEGRALS AND MULTIPLETS ===
##$OBSERVEDINTEGRALS= (X Y Z)

##$OBSERVEDMULTIPLETS=
##$OBSERVEDMULTIPLETSPEAKS=
$$ === CHEMSPECTRA SIMULATION ===
##$CSSIMULATIONPEAKS=
##END=


$$ === CHEMSPECTRA PEAK TABLE EDIT ===
##TITLE=IRMP (1)
##JCAMP-DX=5.00
##DATA TYPE=INFRAREDPEAKTABLE
##DATA CLASS=PEAKTABLE
##$CSCATEGORY=EDIT_PEAK
##$CSTHRESHOLD=0.93
##MAXX=4000.432643
##MAXY=102.985539
##MINX=450.386221
##MINY=55.135779956586006
##$CSSOLVENTNAME=- - -
##$CSSOLVENTVALUE=0
##$CSSOLVENTX=0
##NPOINTS=38
##PEAKTABLE= (XY..XY)
757.0731979616949, 67.299545
790.8280539165985, 55.135786
830.3694566066283, 83.458712
842.9069745327351, 88.004445
869.9108592966581, 87.279258
1005.8947075721267, 61.540648
1014.5745276748162, 67.387048
1018.432225498234, 67.390857
1028.076470056778, 60.934529
1036.7562901594674, 73.751347
1044.4716858063025, 78.421863
1047.3649591738654, 78.360791
1062.7957504675355, 75.084479
1083.048664040478, 78.935983
1086.9063618638952, 78.606754
1090.764059687313, 78.598626
1094.6217575107303, 78.796031
1098.479455334148, 78.486425
1107.1592754368376, 81.088945
1143.807404759304, 87.959479
1155.380498229557, 87.542371
1259.5383394618307, 74.538417
1370.4471518850855, 88.135034
1392.6289143697363, 81.165573
1401.3087344724258, 83.273395
1416.739525766096, 83.97125
1448.5655328092907, 87.678525
1454.352079544417, 84.413572
1459.1742018236891, 81.99619
1462.067475191252, 82.179662
1465.9251730146698, 82.019974
1483.2848132200488, 88.070697
1518.9685180866609, 83.268113
1523.790640365933, 78.685848
1529.5771871010593, 76.302634
1540.1858561154577, 83.619636
2852.767540533279, 85.775128
2922.2061013547946, 80.395436
##END=


$$ === CHEMSPECTRA PEAK TABLE AUTO ===
##TITLE=IRMP (1)
##JCAMP-DX=5.00
##DATA TYPE=INFRAREDPEAKTABLE
##DATA CLASS=PEAKTABLE
##$CSCATEGORY=AUTO_PEAK
##$CSTHRESHOLD=0.93
##MAXX=4000.432643
##MAXY=102.985539
##MINX=450.386221
##MINY=55.135779956586006
##NPOINTS=60
##PEAKTABLE= (XY..XY)
1172.740138434936, 95.418169
1232.5344546979081, 94.869976
2828.656929136919, 94.829921
853.5156435471335, 94.795485
476.4256813080683, 94.665704
961.5311826028251, 94.311784
458.1016166468348, 93.9411
1429.2770436922028, 93.145
879.5551038552021, 92.997953
1334.763447018473, 92.926844
2879.771425297202, 92.766079
733.9270110211896, 92.738968
700.172155066286, 92.656466
2884.5935475764736, 92.383145
2945.3522882953002, 92.020924
2889.4156698557454, 91.566468
1437.9568637948923, 91.390481
2895.202216590872, 90.313243
2955.9609573096986, 89.959821
2961.747504044825, 89.577428
2900.9887633259987, 89.252426
1149.5939514944307, 89.043415
1370.4471518850855, 88.135034
1483.2848132200488, 88.070697
842.9069745327351, 88.004445
1143.807404759304, 87.959479
1448.5655328092907, 87.678525
1155.380498229557, 87.542371
869.9108592966581, 87.279258
2852.767540533279, 85.775128
1454.352079544417, 84.413572
1416.739525766096, 83.97125
1540.1858561154577, 83.619636
830.3694566066283, 83.458712
1401.3087344724258, 83.273395
1518.9685180866609, 83.268113
1462.067475191252, 82.179662
1465.9251730146698, 82.019974
1459.1742018236891, 81.99619
1392.6289143697363, 81.165573
1107.1592754368376, 81.088945
2922.2061013547946, 80.395436
1083.048664040478, 78.935983
1094.6217575107303, 78.796031
1523.790640365933, 78.685848
1086.9063618638952, 78.606754
1090.764059687313, 78.598626
1098.479455334148, 78.486425
1044.4716858063025, 78.421863
1047.3649591738654, 78.360791
1529.5771871010593, 76.302634
1062.7957504675355, 75.084479
1259.5383394618307, 74.538417
1036.7562901594674, 73.751347
1018.432225498234, 67.390857
1014.5745276748162, 67.387048
757.0731979616949, 67.299545
1005.8947075721267, 61.540648
1028.076470056778, 60.934529
790.8280539165985, 55.135786
##END=

##END=

