##TITLE=X7398
##JCAMP-DX=4.24
##DATA TYPE=INFRARED SPECTRUM
##DATE=29/10/2018
##SAMPLING PROCEDURE=Diamant-ATR
##ORIGIN=ComPlat
##XUNITS=1/CM
##YUNITS=TRANSMITTANCE
##RESOLUTION=4
##FIRSTX=3997.453
##LASTX=373.96442
##DELTAX=-1.4165319
##MAXY=0.92505288
##MINY=0.36782989
##XFACTOR=1
##YFACTOR=8.6152263e-010
##NPOINTS=2559
##FIRSTY=0.84103185
##XYDATA=(X++(Y..Y))
3997+976215619+976681236+977386095+977651766+977354270+976782869+976264118
3988+976082783+976487240+977415499+978318643+978634888+978399105+978060997
3978+977853441+977705177+977567983+977481916+977451544+977477904+977593512
3968+977770765+977895921+977859945+977679925+977573310+977824729+978457636
3958+979076774+979103618+978276232+977030829+976252218+976508549+977539409
3948+978456252+978542180+977974723+977707737+978452516+979725663+980525513
3938+980566402+980068060+979155646+978167957+977900695+978679444+979705530
3928+980180417+980200204+980160284+980038380+979533120+978605277+977582235
3918+976929472+976918887+977311375+977610117+977692862+977830541+978071029
3908+978006341+977397649+976688777+976535047+976934592+977517270+978367626
3898+979486351+980320517+980539281+980473209+980610957+980833595+980458957
3888+979427474+978532356+978386859+978533670+978318228+978184838+978739704
3878+979419449+979482961+979054635+978348946+977334898+976555595+977046188
3869+978611711+979880914+980420421+980610680+980369639+979369774+977897996
3859+976532418+975628236+975587625+977170790+980182009+982248848+982552225
3849+982171084+981656069+980983935+980094143+979003853+977849636+977107624
3839+977335036+978283151+979043012+979404712+979688026+979763092+979327640
3829+978777479+978878074+979558234+979895097+979718467+980106112+981321282
3819+981731619+981005936+980792292+981796100+982634002+982170807+980659387
3809+979145129+978864168+979785646+980114622+979068749+978066117+978503298
3799+979789244+981201730+982876635+984313059+984627713+983976749+983187692
3789+982750303+982726572+983038667+983347786+983051812+981956610+980651500
3779+979949062+979984900+980219853+980360022+980541495+980923951+981482276
3769+981902023+981854285+981619124+981782540+982313536+982662645+982591661
3759+982210658+981524894+980529872+979375170+978187813+977282525+977345622
3750+978213827+978602579+978488285+979059201+980456951+981027106+980107704
3740+978470435+976906918+976150308+976708910+978103269+979490364+980742686
3730+981843769+982582944+982944021+983082254+983030711+982794374+982464014
3720+981997983+981315609+980528834+979807440+979377108+979811798+981652264
3710+984147222+985768232+985879828+984710528+983062328+982121409+982486430
3700+983307590+983547386+983263381+983003659+983088826+983617401+984637399
3690+985913867+986581228+986041583+984907844+983947138+983321081+982768914
3680+981970308+980943461+980413502+981492654+983562261+984382313+983920917
3670+983940150+985331604+986898234+987462717+987062134+986068427+984678910
3660+982990583+981397178+980818305+981761438+982963532+982816236+981507944
3650+980684224+981613105+983048284+983450665+983328276+983408531+983782062
3640+984313958+984895253+985292376+985163207+984393660+983173509+981736532
3631+980475700+980324046+981618917+982759574+982684093+981976258+981719858
3621+982623279+984347651+985558462+985493013+984667287+983894557+983589381
3611+983697449+984188525+985208800+986339494+986652350+985983190+985152691
3601+984853811+984753423+984095540+982856571+981732657+981249952+981126387
3591+980768284+980213695+980305573+981716745+983792855+985338868+985697940
3581+984937663+983935100+983584054+983711839+983700009+983682643+983986089
3571+984201671+983975504+983953503+984742699+985298879+984571466+983309458
3561+982672469+982919322+983563229+984078106+984165694+983763936+983160156
3551+982811393+982875321+983179459+983432192+983289256+982791537+982694263
3541+983599759+985023799+985844336+985552305+984672753+983918980+983438558
3531+983029742+982599756+982266214+982212249+982483179+982921605+983324056
3521+983557003+983512517+983159603+982748227+982671362+982923750+983012031
3512+982648946+982244490+982360306+982895799+983281576+983256324+983007672
3502+982663268+982039770+981094908+980285025+980192317+980851860+981653855
3492+981962698+981712040+981401952+981518045+981952182+982163750+981889085
3482+981435576+981198616+981139601+981073737+981257285+982112346+983357403
3472+984087861+983917250+983289809+982598510+981844045+981171496+980859124
3462+980751680+980486147+980224696+980481027+981320728+982244905+982840590
3452+983216473+983711147+984335682+984667080+984364325+983647359+983026352
3442+982725950+982575610+982247672+981552706+980723521+980353311+980771605
3432+981620300+982357400+982942499+983644591+984417459+984849244+984596026
3422+983661265+982325644+980844872+979209472+977239561+974852393+972194712
3412+969678030+967941134+967588497+968794603+971084219+973550258+975405806
3403+976394532+976690645+976573168+976283213+975996925+975799262+975768821
3393+976036429+976658059+977513119+978369840+978972858+979161941+979053943
3383+979079749+979682560+980794644+981719650+981894897+981652679+981686096
3373+982007669+982033267+981454878+980574220+980022813+980235281+980955845
3363+981571871+982112415+983152753+984546905+985235160+984621141+983310081
3353+982207199+981632615+981537001+981859266+982317826+982407144+981991341
3343+981490371+981240404+981113380+980888874+980526689+980090753+979825497
3333+980168033+981286067+982724635+983757086+984019298+983733840+983392203
3323+983254871+983173786+982909775+982514796+982275485+982348613+982651368
3313+983071184+983501516+983676831+983361416+982792921+982588548+983089864
3303+983971422+984468449+984008851+982749057+981426374+980637870+980501644
3293+980924920+981734318+982564610+983062051+983219379+983254179+983234669
3284+983067655+982859477+983022478+983776458+984655526+984916077+984467619
3274+983935584+983746778+983715921+983643277+983652202+983723739+983581079
3264+983350000+983646044+984588762+985359278+985190189+984307109+983520265
3254+983226851+983101349+982654343+981963598+981709757+982362658+983513416
3244+984340802+984687628+985154559+986006575+986615405+986399616+985771899
3234+985503045+985608414+985542411+985123910+984669640+984492387+984705408
3224+985274249+985937390+986291964+986207212+986017230+986103988+986435108
3214+986738762+986962577+987233368+987488384+987523807+987359700+987238972
3204+987275571+987323447+987235858+987159270+987459465+988313626+989417615
3194+990177338+990209647+989677405+989092582+988715592+988328777+987792799
3184+987481397+987762012+988379006+988804426+988919550+988938991+988874441
3174+988529899+987944938+987484718+987422728+987660171+987917886+988058125
3165+988153462+988311827+988484928+988501187+988281178+987845588+987124539
3155+986130278+985296596+985137470+985616993+986328356+987032730+987544355
3145+987564626+987109388+986596518+986272523+986115334+986235440+986733435
3135+987319572+987596175+987523046+987342334+987304352+987549682+987996481
3125+988346904+988373679+988173457+988069056+988240082+988466664+988396856
3115+988035916+987643428+987211989+986515571+985663140+985191435+985507957
3105+986420649+987296119+987680996+987665568+987530518+987325038+987060405
3095+986956281+987098733+987098595+986447285+985111456+983531750+981964151
3085+979942558+976649203+971896662+966581714+962117606+959470440+958644369
3075+958964627+959762125+960681389+961465742+961891785+961991896+961936755
3065+961738401+961423678+961287452+961579621+962173300+962746638+962972943
3055+962505458+961278665+959827851+958798513+958126517+957119872+955334824
3046+952957896+950260640+947197464+943892416+941173160+940051736+940695367
3036+942369995+944389374+946625786+949077365+951475325+953509786+955114469
3026+956399861+957484409+958487595+959607980+960984559+962350068+963100174
3016+963022825+962679044+962732939+963173649+963429288+962888813+961153440
3006+958162217+954310536+950346292+947141355+945432825+945449015+946754886
2996+948676091+950820626+953124632+955586381+958065980+960279354+962020470
2986+963309114+964125845+964210667+963424446+962092976+960750851+959782812
2976+959381122+959471270+959581898+959067298+957509523+954783487+950789146
2966+945191092+937422144+927076253+914438463+900747467+888132369+879171775
2956+875841820+878322457+884814799+892676317+899785100+905111048+908507490
2946+910184263+910275242+908776413+905842959+902072848+898394269+895570474
2936+893705863+892026253+889000437+883096169+874259277+864862746+858573670
2927+857700068+861507055+867190553+872391553+876583278+880326753+883945417
2917+887228326+889921292+892067833+894003567+896127207+898540804+901024899
2907+903512939+906300689+909554539+912926351+915895020+918269319+920181806
2897+921780746+923134079+924346411+925533699+926595070+927216215+927330440
2887+927499321+928561591+930844565+933900200+937025367+939778247+941945198
2877+943385012+944158295+944606615+945121146+945887442+946801240+947556881
2867+947923010+947973653+947965558+948098048+948482095+949130569+949848711
2857+950366701+950710206+951268392+952316479+953563889+954410440+954644286
2847+954575377+954420056+953865122+952266320+948945429+943167493+934027155
2837+921039842+905900660+893572958+889762304+896114339+908743827+921976125
2827+932590247+940333113+946011352+950238293+953375014+955706210+957477490
2817+958941035+960388113+961998884+963654348+965086621+966244989+967328499
2808+968470747+969577573+970460861+970993725+971144618+970971102+970654372
2798+970503340+970773578+971434020+972217889+972891753+973373974+973686276
2788+973921644+974187523+974516084+974880137+975243290+975501351+975499414
2778+975280581+975184552+975469802+975949256+976264948+976407055+976640901
2768+977064729+977586594+978167335+978747038+979128179+979221095+979226768
2758+979387209+979704838+979960132+979923394+979601129+979286406+979210302
2748+979207050+978939234+978378626+977790413+977281625+976673141+975926286
2738+975437631+975668295+976555388+977494854+977929061+977803974+977431826
2728+977118279+977022942+977192515+977546535+977937224+978347700+978909761
2718+979646930+980373790+980899044+981160357+981168728+981043434+981076228
2708+981524825+982309731+983054925+983445130+983461735+983278255+983023723
2698+982711075+982401886+982310977+982578032+983018603+983337547+983522825
2689+983728582+983855468+983665623+983286973+983176276+983507674+983951843
2679+984136706+984037217+983819284+983568280+983312571+983127847+983087166
2669+983219725+983533549+983938490+984212533+984221942+984068489+983897671
2659+983725469+983557003+983517567+983782823+984403207+985133734+985507611
2649+985280268+984721252+984295763+984215577+984435378+984827036+985203334
2639+985351322+985154766+984633179+983944993+983442086+983543304+984330770
2629+985365435+986147367+986680578+987238280+987681965+987581439+987036674
2619+986715585+986920235+987255438+987372222+987388965+987410205+987290861
2609+987101501+987245475+987860324+988575492+989046920+989301453+989400941
2599+989224795+988832653+988683836+989176712+990152777+991113345+991748742
2589+992018288+991938240+991614177+991360889+991513166+992123311+992875562
2580+993295447+993187726+992875077+992753519+992743556+992585053+992403373
2570+992450695+992643376+992928834+993598132+994587343+995044657+994327621
2560+992959760+991918107+991496700+991497461+991925233+992762029+993511236
2550+993619857+993089137+992314539+991658248+991383098+991624485+992215050
2540+992717058+992694504+991997878+990917758+989983619+989498838+989453107
2530+989848569+990698925+991759050+992733594+993602422+994291230+994420053
2520+993945996+993612800+994148570+995362702+996506334+997190368+997571510
2510+997944902+998463238+999039689+999392327+999379043+999201029+999023708
2500+998703034+998244959+998096418+998520939+999123404+999352753+999037199
2490+998245789+997160273+996206623+995835514+996082574+996569569+996860009
2480+996738312+996359938+996163382+996397436+996779062+996852952+996620628
2470+996565971+997075659+997992363+998769175+999074697+999201237+999620430
2461+1000121470+999938751+998932176+997944695+997653632+997844445+998159238
2451+998698122+999465040+999993823+999955148+999580580+999230848+998950025
2441+998589639+998107211+997615304+997248207+997091018+997250075+997877239
2431+998967806+1000162220+1000897036+1000850959+1000224071+999526753+999085836
2421+998861607+998733960+998708430+998757829+998759558+998731400+998857317
2411+999189475+999524816+999628317+999482060+999374062+999684496+1000426300
2401+1001141468+1001459789+1001501992+1001512854+1001476808+1001392610
2393+1001547862+1002190385+1003178143+1004105778+1004555551+1004295484
2384+1003549806+1002929214+1002773340+1002772025+1002522958+1002142232
2376+1001962766+1001952595+1001831314+1001565435+1001455223+1001643545
2367+1001664646+1001025582+1000379738+1001032362+1002920358+1004458554
2359+1004751276+1004525594+1004630410+1004827380+1004296591+1002795410
2350+1001005588+999819269+999622437+1000109639+1000588678+1000703041+1000688858
2340+1000771188+1000889564+1001117391+1001787727+1002975499+1004216613
2332+1004960354+1004993563+1004295138+1002923402+1001275549+1000072417
2323+999842999+1000551733+1001821904+1003271543+1004500549+1005187143
2315+1005399058+1005471425+1005519232+1005441122+1005362666+1005616576
2306+1006225614+1006731081+1006674557+1006152416+1005807043+1006229557
2298+1007367585+1008515507+1008869043+1008192550+1007044974+1006295698
2289+1006393941+1007176080+1008200299+1009028584+1009381083+1009373334
2281+1009454073+1009849882+1010273019+1010340129+1009995379+1009387656
2272+1008690476+1008247068+1008516198+1009539656+1010737390+1011619917
2264+1012352520+1013085745+1013189661+1011994624+1009958019+1008211299
2255+1007234404+1006773561+1006613189+1006621768+1006614296+1006833129
2247+1007841366+1009462514+1010715528+1011230543+1011756766+1012785273
2238+1013512825+1012727434+1010301593+1007464099+1005769545+1005832849
2230+1006948530+1008097628+1009274538+1011274199+1014220383+1017096551
2221+1018770972+1018806118+1017452094+1015550884+1014263001+1014431052
2213+1016183929+1018899657+1021422635+1022800459+1022953150+1022290148
2204+1021076778+1019584591+1018184904+1017046599+1016355093+1016409473
2196+1016844025+1016553585+1014952086+1012578894+1010364966+1008963204
2187+1008608353+1009101644+1010172355+1011888840+1014241761+1016645671
2179+1018340432+1018830195+1017639171+1014465298+1010251364+1007432412
2170+1008051620+1011533574+1015045486+1016362773+1015924692+1016259963
2162+1019739012+1025995640+1031316953+1032505348+1030725558+1029091264
2153+1029004160+1029907443+1030696500+1031045470+1031454978+1031780909
2145+1030866419+1028489560+1025779506+1022944225+1019145887+1015317245
2136+1014309839+1017282936+1022064189+1025701049+1026991492+1026357271
2128+1024727890+1022908457+1021455152+1020827088+1021363689+1022773753
2119+1023928247+1023860307+1022969686+1022481307+1022729959+1022874971
2111+1022354145+1021588679+1021100508+1020815119+1020416958+1019923114
2102+1019725382+1019952725+1019936605+1018978320+1017626856+1017201851
2094+1018038577+1019220953+1019920070+1020114757+1020153639+1020243718
2085+1020355037+1020303563+1019924982+1019417024+1019458397+1020535542
2077+1022171496+1023483663+1024438765+1025587032+1026848694+1027789475
2068+1028749351+1030429168+1032550595+1033874731+1033526799+1031694359
2060+1029130907+1026687700+1025449769+1026399820+1028970121+1030530179
2051+1028796397+1024708103+1021719163+1021909284+1024022547+1025983740
2043+1027718768+1030247972+1032964254+1033527560+1030914295+1027303172
2034+1025724503+1026598105+1028218285+1029669238+1030898313+1031219264
2026+1030492196+1030439961+1032363795+1034816412+1035440739+1033950904
2017+1032133547+1032108709+1034991312+1039752847+1043312843+1043404997
2009+1041274092+1039782666+1039478182+1038716591+1036901862+1035326445
2000+1035322086+1036855231+1038469184+1038363884+1036224677+1033975534
1992+1033961628+1036265358+1038700540+1039270972+1037577318+1034397910
1983+1030972342+1028807190+1029427020+1033442462+1039468288+1044593461
1975+1046914142+1046919884+1045896842+1044306412+1042323079+1040864516
1966+1040944701+1042301770+1043644517+1044184853+1044452877+1045431018
1958+1046894216+1047187977+1045071670+1041383197+1038406295+1037647956
1949+1038429610+1038748001+1037625332+1036212431+1036213123+1037738658
1941+1039503711+1040876069+1042337746+1044133103+1045604534+1045990657
1932+1045356990+1044516389+1044239095+1044550428+1044773966+1044434059
1924+1043965052+1044128606+1044940079+1045832776+1046521931+1047051751
1915+1047119898+1045957379+1043218405+1039761288+1036991526+1035470420
1907+1035071705+1035991800+1038310889+1041208643+1043632478+1045191498
1898+1045931158+1045984154+1045664587+1045257363+1044597474+1043086192
1890+1040292561+1036994847+1035163929+1036093917+1039072065+1042170871
1881+1044288562+1045834368+1047326762+1048400863+1048535913+1047977934
1873+1047489624+1047608139+1048282210+1048874920+1048859561+1048582751
1864+1048636231+1049073759+1049527960+1049624612+1049281453+1048877342
1856+1048977384+1049679199+1050530661+1051137070+1051492544+1051823733
1847+1052474628+1053833980+1056003213+1058398199+1060279207+1061595663
1839+1062705810+1063624105+1063847574+1063157382+1062078438+1061241366
1830+1060939926+1061326394+1062456743+1064111446+1065754042+1066782688
1822+1067044762+1066845992+1066463398+1065918564+1065177660+1064359544
1813+1063703322+1063423330+1063590066+1064235426+1065493836+1067277155
1805+1069090569+1070570303+1071791630+1072757317+1073185989+1073014894
1796+1072463626+1071809479+1071443697+1071641636+1072179828+1072797929
1788+1073431527+1073741823+1073227846+1071803806+1069730878+1067145703
1779+1064075885+1060653637+1057110108+1053469788+1049269622+1044203533
1771+1039034220+1034350172+1029788928+1025307386+1021407068+1018561964
1762+1017298987+1017802241+1019396614+1021473417+1023679111+1025354777
1754+1026176560+1026382386+1026012867+1025169776+1024553336+1024333534
1745+1023905969+1022913092+1021166234+1018113712+1013494975+1007972057
1737+1002073669+995372664+987427363+979308130+971598058+962139814+947691447
1727+925111254+890619233+841960497+783810792+723661426+661545885+593282337
1717+528709129+490092803+479289563+483975306+496827225+514561649+535475722
1707+559972207+586854960+610641051+629439578+648443793+670737144+691023431
1697+707648365+724127181+738793275+749098208+756941461+764467085+771311442
1687+776921603+783208050+792480463+801674627+806434156+807761890+807630853
1677+807155619+807735807+810694306+815700134+822364817+831604159+842271484
1667+850603393+856061139+861238547+868157901+876198539+883189015+888304917
1657+892026529+895347628+900483732+909355147+916872953+919282052+919658628
1647+920781089+922749962+923422028+921932400+918691210+914108035+908652156
1638+902634079+896620706+892946001+893406360+897267380+903827801+912532133
1628+921596298+929000848+934630796+939411427+943287322+945807463+947637966
1618+950091482+953198591+954430503+951261543+941838376+923251486+893055867
1608+853154667+809971873+769774215+735858091+709923522+693683464+688447318
1598+694229059+709535946+731313382+755232724+777017148+793711821+803937122
1588+808277250+809757745+812525155+819008295+828387184+838033612+846440932
1578+854722889+865227006+876901392+885587806+891158393+896747107+904442581
1568+912793169+919597537+924870559+928811557+931094324+932522031+936232227
1558+944030233+950476429+953702744+955940610+958147480+960277278+962179319
1548+963730175+964951294+966189157+967811896+969904888+973127744+978532425
1538+984027255+987296534+989132018+991176372+994014282+996579947+998161936
1528+999219294+1000212933+1000984279+1001214666+1001200067+1001816162
1520+1003490445+1006067180+1009791006+1014484601+1018983717+1022616149
1511+1025408534+1026882111+1025461669+1018795256+1008045047+997946909+988110498
1502+974700878+952118610+911374388+845304288+767296207+706390924+675434752
1492+670702067+683614591+701770734+716568971+730665670+748952019+772316288
1482+798066340+821482636+838990167+849863042+854033112+849177416+831149612
1472+802174006+773892466+753542944+740880455+734100717+730003983+723855007
1462+714186924+703362894+695277423+696042819+708239553+724302981+740000349
1452+756476744+774162980+792531867+810672305+826089404+834295049+829133347
1442+805683980+767486259+727607544+701380322+697474262+708038985+719362463
1432+727816553+734313046+738247472+739646052+741885993+749271517+762359287
1422+777088685+790234226+802381561+814447466+825607875+835917651+846247283
1412+856662013+866408621+874506338+880511685+885059369+889116806+892852463
1402+896127830+899525517+903873255+909177272+914646711+919586121+923252316
1392+924425421+921594638+912066517+892098413+863489419+839273896+832611012
1383+844371187+865418304+885163285+898201658+903536323+898853452+880084674
1373+849961285+821244846+807120335+812421308+831219281+853208148+872780028
1363+889220515+902428322+912223775+919387491+925016609+929807825+934076830
1353+937919863+941300184+944138716+946418784+948190272+949485835+950348298
1343+950945090+951672227+953135218+955597174+958378351+960519703+961655794
1333+961656140+960054502+956322374+950550734+943813061+938033603+935223645
1323+936248140+940165615+944685763+947103095+945316594+938876141+929562909
1313+921060736+917191136+919451210+926363161+935055801+943167286+949744103
1303+954874811+958898140+962129229+964783797+966588425+966070366+959407758
1293+940723663+907546715+868425717+841326760+839534516+860018673+888381229
1283+912034761+925345308+926280416+913758372+889402264+860362454+838175580
1273+832379933+844023877+865588568+887275234+902877542+910156520+907772812
1264+894279685+871697417+849068311+837932394+841385706+850335300+851932787
1254+838731276+809533654+766081730+712570618+656842535+608767722+576385643
1244+563164967+567615031+584896464+609508834+637283800+665554201+692382021
1234+716261650+736444644+753197225+767521682+780400167+792175010+802622257
1224+811412172+818343287+823395746+826889808+829590938+832548399+836700136
1214+842357136+848941287+855362230+860646875+864020070+864480775+860635252
1204+851147258+835631847+815739016+795811247+781881423+778535902+785843108
1194+799790782+816104176+832849147+848904619+861109655+864192687+853573653
1184+828452011+793536921+758609724+734867428+729144148+740547674+762417956
1174+786776417+806723904+815834215+807438033+777478198+730329153+680126964
1164+642121232+621970548+616048845+620855490+637013078+663922191+695902512
1154+725659496+748983844+765608157+777847647+788892032+800872562+813824730
1145+826471445+837681182+847133269+855041556+861615468+866891534+870965299
1135+874166569+876986282+879925617+883328008+887255377+891569492+896098426
1125+900621204+904705900+907533085+907752956+903283244+890519398+863552655
1115+816886661+753158897+688311577+644408011+634175515+653600861+689170304
1105+728755950+765551217+796681874+821652970+841451086+857511953+870798770
1095+881437868+889186960+894357242+897970025+900987124+903747131+905906194
1085+906326495+902948456+893046251+874209671+846122819+811797464+776321698
1075+743697193+714903821+689393080+668762874+658307601+663541810+684951596
1065+717019575+752284672+785475112+814262880+837881612+855761152+866242715
1055+864905918+845044290+804198712+752866312+712787168+701274745+717605435
1045+746920602+774671077+794239151+804085732+803097490+789692574+763962102
1035+730235822+696810914+671330338+654992176+640707224+617749349+581037104
1026+538066571+505432968+496150212+510316477+538023710+568840578+597313692
1016+622170493+643827824+663141089+680920172+697631589+713414401+728255326
1006+742077221+754780875+766312532+776682637+785808861+793173906+797564747
996+797351864+791650309+781915462+772342302+767767635+770508616+779231006
986+790667879+801967765+811707385+819580319+825622473+829844433+832489661
976+834112054+835177438+836149283+838014586+841806421+847343800+853203997
966+858116840+861845232+864809197+867484244+870189732+872994087+875653775
956+877787171+879182360+879963254+880533202+881213708+881604051+880547454
946+877554362+874186010+872819948+873897300+875781352+877361612+878714529
936+878725599+874792488+866832173+859859478+860095192+868842696+881710596
926+893210358+900468858+902659608+898170593+882856926+852078145+807112240
916+760319914+730391420+728835928+751346243+783385579+812567288+834572275
907+850396736+862059499+871018779+878158349+883945833+888610785+892315585
897+895296708+897867216+900109164+901728582+902523936+902825514+903229003
887+904062546+905261180+906618526+908071346+909749780+911720175+913707245
877+915230773+916139313+916826461+917683804+918568061+919095875+919171010
867+918815467+917496036+913828319+906626482+896655852+885435114+870505079
857+845487076+810237268+778853462+770458180+790898404+827802776+863537434
847+888492340+901645698+904074169+896159794+880001029+861645910+849304786
837+848546931+858887633+875108111+891596474+905356172+915720812+921750582
827+920140364+906763123+879768843+838615806+782910899+719804280+670673908
817+658873606+687681507+737527808+785526240+821453717+846362684+864288024
807+877990298+888685990+896840023+902899750+907580823+911651959+915460744
798+918808964+921527874+923751349+925107587+923692127+915602021+896031524
788+863991151+828342975+806148144+810002038+836779630+871509233+901057555
778+921434197+934567976+942855468+946904395+945145499+932526112+898851860
768+833932104+741791278+645768677+569788692+518684327+485451373+467654060
758+462722191+457893027+442904426+426953252+429170189+456650114+500515697
748+546791140+583680949+604801610+612750855+616266571+620358117+623591904
738+626802445+637028022+658656641+686810880+713478882+735450728+753669207
728+769234639+782534324+793911075+803720988+812216934+819528983+825861577
718+831707868+837408869+842771763+847631333+852278644+856891016+861063024
708+864383293+867296406+870809148+875034428+878726083+880879751+881949008
698+882811264+883442856+883276535+882373321+881840249+882992737+886001533
688+889670357+892789435+895247448+897618772+900222697+902874567+905354235
679+907819235+910483351+913124290+915295184+916776094+917610122+918159868
669+919235975+920943743+921804477+921162161+919959722+919642162+920768013
659+921853806+919680006+909731100+885548024+840310152+774445671+703401222
649+652911361+640804222+663672363+703523334+743948336+777828829+804389248
639+824536057+839525038+850982389+860389506+868644826+876032149+882319841
629+887198161+890927660+894305007+897770841+900912681+903186938+904837282
619+906782979+908972899+907505965+894421169+865001255+827276761+800099832
609+797379123+815952107+841593054+862909024+876037545+880264071+875489114
599+864935944+856125412+855695495+863927777+875738596+886159552+893530962
589+897983309+898674539+892084161+871687454+832577180+781383497+739619208
579+728892937+750900206+787689662+820335060+842300542+855473065+860854776
569+858332421+852028955+849803335+856072001+868086847+880067862+888889671
560+894723785+898314360+900202149+901696619+904119832+906409379+904149028
550+892625604+873081122+855045154+849210210+857758806+873812825+889417693
540+901001030+908480854+912815239+914555871+913108654+907803323+900487261
530+895767237+897463036+905300270+915179783+922843224+927062139+928693527
520+928679829+928158587+928854521+931651127+935406916+938272846+939543156
510+939596290+938487043+935292415+928138316+913830740+890001824+861790714
500+842586277+841837070+856457640+874626097+884149306+878568687+859745945
490+838368607+828238228+835741574+855333518+875274847+887436366+890113627
480+882308356+860565651+824275160+781857208+748158465+735737986+746089549
470+768353634+790246126+804998770+808458170+797297277+772092059+741378381
460+720021384+720793629+744650704+777712944+805427441+824407511+836936611
450+845677958+853529997+862638233+872703647+881129855+884535498+881180637
441+873964825+869153753+871034277+878997428+889159770+898105698+904070295
431+906442242+906745757+907942177+910986604+913650236+913469870+910288941
421+904252598+893674245+879263791+866897553+860269123+859468374+863657332
411+871252348+879871722+887134234+892248822+896915504+903297288+911119094
401+917240534+917437851+911241898+905236896+901830146+893625608+875635717
391+852461985+833549094+825250671+828617156+842321367+863220565+885640041
381+905237727+920752031+931115910+933275804+925068705+913492286
##END=
