##TITLE=X9461
##JCAMP-DX=5.0
##DATA TYPE=LINK
##BLOCKS=1


$$ === CHEMSPECTRA SPECTRUM ORIG ===
##TITLE=X9461
##JCAMP-DX=5.00
##DATA TYPE=INFRARED SPECTRUM
##DATA CLASS=XYDATA
##ORIGIN=ComPlat
##OWNER=
##XUNITS=1/CM
##YUNITS=TRANSMITTANCE
##XFACTOR=1
##YFACTOR=9.2243469e-010
##FIRSTX=3997.453
##LASTX=373.96442
##MAXX=3997.453
##MAXY=0.9904567056390399
##MINX=373.96442
##MINY=0.48677882845947
##NPOINTS=2559
##XYDATA= (X++(Y..Y))
2559A016412310A016172841A016100147A016126059A016228993A016496829A016981454
2552A017549822A017992252A018205616A018195148A018008600A017721185A017373806
2545A016930148A016373346A015796643A015365779A015265688A015628575A016408304
2538A017288060A017742444A017405339A016605643A016241012A016667223A017178147
2531A017088136A016593172A016099049A015404614A014007020A012000156A010477335
2524A010542663A011667703A012264826A012017215A012232711A013658025A015409589
2517A016430920A016331540A014978273A012558961A010210598A009622651A011092938
2510A012867570A013145615A012018184A011150318A011336607A011514174A010780258
2503A010008735A010907294A013705325A016907468A019231083A020347271A020002929
2496A017537609A012644772A006344971A000976231I98393956I98458056A000524690
2489A004342759A008630139A011215839A011001247A009270619A008989407A010918021
2482A012269478A010968292A008071140A005976720A004977488A004541326A006015555
2475A009680676A012480258A011788989A007847566A002844493I99018023I98235387
2468A000662324A003193229A003235682A002062437A002996406A006512586A009725391
2461A010369361A008030302A002914149I96099548I92659809I96906093A004296752
2454A010191859A013351936A013661450A011273542A006724594A001067793I95783960
2447I92919310I94173196I98482093A003093913A006792505A009761964A011886624
2440A012522129A011650515A010107405A008047167A004341661I99143638I96124877
2433I97538948A000933326A004938008A010186819A015614618A018963699A019221778
2426A016806730A013377331A010892756A009065978A006126373A002727601A002153870
2419A004928057A008505558A012129325A016176976A019937472A022486082A023859186
2412A024380255A023964964A022699834A021398907A020574334A019525541A017850936
2405A017072240A018972358A022631082A025462390A025770999A023363576A019543052
2398A016552012A015517693A015861001A017048591A018428544A018434295A016150031
2391A013012699A011557402A011759459A010943027A006932465A000011892I94261010
2384I94140629I97149116I98835094I99081348A000535998A003884756A006621918
2377A006742815A003411310I97372302I92730629I94645156A002522120A010984382
2370A016141114A017061126A014763164A011684116A010429648A011839325A014997529
2363A018468994A020974117A021673722A020104958A016024740A010223844A006238935
2356A008114821A014596841A021335453A025522354A026277400A024541990A023129276
2349A024144856A026478745A028094356A028231537A026582326A022426570A015889949
2342A010105143A009874785A015027058A020954215A025197720A027342153A027005823
2335A023882513A018121162A010473393A004267545A004475869A008963302A011716876
2328A012361944A015572940A022823640A030232391A034884338A036549962A036282061
2321A034942946A032619783A029521479A026792588A024846141A021641090A014625207
2314A003977029I96315432I99671879A010573743A021110910A027998400A031340761
2307A032489387A032669473A032193507A030843213A028703109A026079996A022638190
2300A017909478A014182906A016117529A022404601A027549379A029149093A027164974
2293A022664295A018362506A017036249A017844668A018353653A018438753A019271791
2286A020452661A020769476A021051528A023252371A026873812A029436702A029613299
2279A028293892A027108952A026488373A026172979A026755111A028853601A031074863
2272A030800695A026936490A021848445A020495243A024262459A029415895A032951913
2265A034502648A034883305A034849122A034767705A034869994A035247419A035301116
2258A033503157A028324197A020446974A014781386A016212257A022575899A028834992
2251A033048385A035855010A037955697A038974831A038282851A036232759A034330832
2244A033824431A034032885A033192287A031004108A029534661A030826154A034210193
2237A037395212A038989370A039296364A039468179A040066917A040484793A039931545
2230A038472114A036871301A035833751A035471316A035453417A035690237A036528897
2223A038066127A039752945A040996945A041703528A042040892A041986678A041335536
2216A040214373A039476838A040028923A041404741A041923677A040759220A039185417
2209A039119120A040629470A042104410A042488168A042317774A042711419A043820693
2202A044697153A044559713A043734236A043204185A043393641A043752651A043661930
2195A043348474A043508271A044153792A044537808A044291813A043940944A044057513
2188A044436425A044542008A044303508A044036189A043918522A043887571A043853841
2181A043767642A043609590A043457806A043442233A043501551A043330575A042706572
2174A041657198A040190141A038292092A036430873A035448506A035532508A035967960
2167A036116772A035922793A035552216A035134211A034700956A034054531A032957987
2160A031558519A030241761A029096043A027916337A026580517A025018344A022999074
2153A020403100A017632144A015286688A013399299A011384101A008670395A005050958
2146A000608369I95627911I90465751I85379127I80501991I75845327I71254185
2139I66670667I62471747I59273998I57481403I57090795I57664785I58560695I59477153
2131I60598640I62040948I63484355I64493990I64964916I65167813I65375361I65453483
2123I65044589I64152168I63146733I62213475I61244871I60206287I59133134I57893334
2115I56331679I54555690I52841087I51346892I50042217I48803128I47520875I46223437
2107I45101239I44283257I43568597I42448403I40397212I37249928I33536409I30297887
2099I28161208I26654541I24765215I21974034I18440601I14496077I10419283I06569164
2091I03317848I00722585H98454799H96149858H93702890H91236924H88957055H87012481
2083H85293484H83449389H81290224H79021598H76911993H74907197H72741570H70309657
2075H67777395H65363252H63114140H60905284H58540379H55864539H52895145H49797552
2067H46649687H43362767H39866941H36156330H32190999H28023936H23917289H20034280
2059H16146037H11896135H07228293H02374354G97552659G92847597G88276486G83823235
2051G79409142G74962547G70595107G66630746G63260923G60145172G56636940G52546124
2043G48409625G44796197G41650852G38558298G35297160G31849797G28132724G23987566
2035G19372709G14460744G09520607G04662210F99716063F94425122F88730004F82805238
2027F76863995F71022262F65342393F59917114F54882830F50397401F46509029F43002154
2019F39554080F36122354F32985926F30400743F28443633F27109041F26281883F25690899
2011F25111352F24526507F23956524F23285156F22370378F21194355F19835079F18412091
2003F17055400F15745427F14209489F12216517F09953254F07852244F06092861F04594530
1995F03515949F03355247F04364624F06208977F08454406F11099554F14340596F18092627
1987F22121023F26465847F31308219F36503850F41675057F46733507F51932692F57417225
1979F63074413F68769790F74375479F79645807F84412190F88833585F93183255F97482266
1971G01585423G05545778G09602412G13765663G17692546G21133771G24295787G27594790
1963G31236908G35133551G39003960G42512062G45544910G48353473G51198867G53934995
1955G56218677G58098505G60111507G62703023G65719974G68573640G70787988G72322375
1947G73507574G74772703G76323051G77973425G79325658G80143446G80522423G80741150
1939G81037805G81538907G82325680G83421837G84637276G85601680G86163392G86630571
1931G87391302G88412892G89362757G90130467G90964927G92126346G93630234G95366936
1923G97227702G98990638H00336603H01204599H01940130H02892127H04034873H05145439
1915H06142798H07105586H08191146H09675261H11852455H14790638H18294089H22072096
1907H25857598H29462819H32827990H35997114H39092187H42337430H45932248H49800524
1899H53576786H56863060H59447791H61423898H63150067H64869322H66342905H67147189
1891H67256197H66934471H66135680H64471348H61784652H58309052H54203245H49279197
1883H43209173H35718487H26675838H16329032H05405328G94755663G84954350G76305604
1875G69041077G63401787G59614476G57795065G57818585G59340954G61995987G65523475
1867G69685369G74167698G78680913G83129834G87538111G91804168G95655062G98848676
1859H01286791H02954159H03888710H04219806H04198612H04168759H04419084H05042634
1851H06070556H07681772H10030329H12917789H15869349H18484191H20603424H22306654
1843H23878777H25661486H27822913H30237896H32556923H34427188H35710733H36526131
1835H37181861H38103617H39581788H41422716H43010154H43792597H43573417H42376329
1827H40264398H37316263H33604295H29122354H23827924H17858573H11631401H05576109
1819G99813725G94265998G89043033G84545068G81159026G78993334G77963022G77972585
1811G78854538G80284763G81998396G83960804G86144653G88403587G90742387G93343983
1803G96142142G98704839H00684952H02123900H03269424H04318992H05384973H06552984
1795H07835302H09069609H10030717H10723343H11458358H12620747H14445069H16920468
1787H19816974H22898801H26071931H29206873H32061378H34629826H37286540H40318482
1779H43551383H46604003H49272283H51579679H53694001H55877785H58334058H61031739
1771H63771485H66371983H68663354H70434367H71646446H72651106H73920177H75553363
1763H77252071H78733278H79971333H81068589H82118480H83232924H84534303H86042973
1755H87578652H88795642H89399550H89405107H89084156H88561278H87660651H86282378
1747H84664570H83122623H81798240H80762758H80094751H79827691H80017534H80762758
1739H82003527H83466384H84863525H85964528H86551441H86581940H86340532H86227970
1731H86448442H86946055H87540205H88082339H88539243H88927073H89220561H89398193
1723H89502613H89591784H89742664H90113176H90814461H91687819H92387230H92745529
1715H92951656H93329405H94022161H94957551H96072641H97426231H99024459I00694283
1707I02289216I03886152I05604696I07357100I08971805I10487001I12147456I14120073
1699I16323113I18564600I20722409I22682426I24243435I25350642I26344769I27665986
1691I29350671I31106823I32779360I34425728I36021178I37430855I38655470I39836597
1683I41023928I42159308I43236920I44231629I44969938I45388977I45799164I46529074
1675I47462720I48297567I49040012I49861549I50719593I51506172I52294172I53111637
1667I53758191I54129802I54459024I54977831I55568879I55956062I56079028I56115989
1659I56243800I56491928I56787808I57069343I57313981I57467640I57434556I57226749
1651I57058552I57164781I57577488I58181137I58909302I59742921I60577058I61257536
1643I61760577I62236155I62877411I63777133I64862822I65937785I66826393I67491363
1635I68013530I68496023I68969857I69338689I69500166I69554314I69746291I70148400
1627I70592963I70956173I71286558I71640916I71991332I72311636I72615981I72924267
1619I73257107I73634339I74033153I74390807I74687526I75026311I75549319I76204079
1611I76694713I76845852I76908465I77244601I77783246I78131852I78189103I78297077
1603I78751591I79492098I80327268I81158367I81894610I82415032I82721638I82959040
1595I83206392I83380599I83396171I83339632I83411098I83700257I84057523I84239936
1587I84215963I84260419I84668926I85391598I86036279I86232455I85895350I85158526
1579I84256801I83525017I83247101I83379177I83652506I84008931I84609737I85353087
1571I85810896I85783692I85526066I85303526I85111679I84907426I84771860I84755641
1563I84818255I84956599I85207958I85504484I85635591I85411113I84860514I84278383
1555I84060625I84393206I84979990I85163631I84553133I83491287I82663031
1548I82367474I82499615I83013964I83926093I84984837I85784726I86185285
1541I86375710I86615502I87032409I87593023I88194152I88804586I89469426
1534I90145123I90689583I91086717I91524753I92176735I93028189I93930431
1527I94669129I95084614I95317298I95744479I96484792I97206043I97552324
1520I97506317I97321125I97356406I97867330I98728864I99520741I99985658
1513A000195210A000305058A000416393A000602165A000807517A000820117A000561392
1506A000357268A000690626A001628730A002656975A003253581A003534986A004041452
1499A004894714A005550509A005535647A005074155A004712108A004648913A004720185
1492A004749650A004673919A004574474A004723028A005334237A006215156A006886394
1485A007029907A006659525A005959468A005132568A004382369A003945043A004036799
1478A004671787A005506182A005992358A005850266A005412229A005326741A005870038
1471A006738745A007503289A007989335A008227577A008345244A008497933A008687131
1464A008754914A008720344A008907732A009538584A010395530A011117557A011649158
1457A012132297A012525102A012681345A012692459A012795070A013047398A013370934
1450A013748489A014131536A014361055A014391489A014429807A014660230A014941377
1443A014984153A014796119A014696157A014842578A015037591A015074422A014998369
1436A014932072A014905256A014971747A015274088A015828951A016383427A016677174
1429A016772031A016914769A017157534A017377425A017583810A017880078A018153018
1422A018113215A017689717A017143706A016747929A016628970A017002131A018157025
1415A019916665A021552953A022690206A023857377A025686674A028034714A030272066
1408A032030867A033464517A034920136A036362832A037319288A037499891A036946902
1401A035561650A033278162A030550629A028035878A026102095A024910822A024587804
1394A025165993A026450831A027933525A029027872A029473210A029350116A028908267
1387A028484769A028282455A028118910A027604303A026611920A025412894A024341873
1380A023527961A022969027A022634313A022488344A022540425A022782285A023025050
1373A023015422A022716247A022223286A021537316A020705182A020005966A019698649
1366A019776383A020068644A020328080A020288793A019942771A019564311A019258803
1359A018865159A018444310A018326579A018528958A018656576A018481530A018167363
1352A017920075A017811713A017942110A018445926A019307653A020275223A020968883
1345A021169582A021136305A021478644A022472060A023652090A024339029A024424065
1338A024408298A024772349A025499868A026197792A026545107A026521651A026287674
1331A026063648A026112692A026578449A027267521A027765392A027795827A027357596
1324A026556027A025491403A024441641A023941249A024329208A025361136A026668266
1317A028251568A029978642A031146976A031322087A031120871A031369903A031930646
1310A032088763A031739704A031450480A031506890A031601489A031456296A031138382
1303A030729229A030274586A030026264A030176886A030520776A030860982A031466117
1296A032701394A034408501A035971320A036975075A037581244A038074850A038296550
1289A038048228A037883197A038707964A040656674A042938869A044611148A045081041
1282A044405797A043508853A043460196A044257372A044971968A045027086A044445213
1275A043254586A041867719A041477757A042797746A044920662A046372921A046604637
1268A046045444A045685271A046713903A049499786A052898041A055232123A055605608
1261A054091187A051477831A048943889A047351864A046787825A046814705A046932889
1254A046800942A046185081A045049314A043819142A043148356A043187514A043406629
1247A043244571A042672584A042167346A042251219A042920324A043557057A043541872
1240A042799426A041749147A041014844A041133157A042185633A043657988A044878661
1233A045566376A045827169A045749629A045232050A044268228A043242761A042690741
1226A042755229A043146999A043658440A044311650A044939013A045151860A044943342
1219A044829165A045212859A046003896A046880421A047541772A047824470A047900265
1212A048155824A048674308A049120809A049240156A049151567A049103880A049177672
1205A049249913A049227427A049276988A049581914A049862415A049605628A048863829
1198A048246740A047891348A047006423A045015002A042818488A042012848A042821978
1191A043815136A043918458A043721312A044321730A045739743A046969333A047008168
1184A045689277A044147847A044165875A046236257A048904990A050649510A051534564
1177A052332580A052861144A052287090A050807239A050084179A051432470A054020044
1170A055943747A056744347A057447505A058224133A057756373A055452466A052827802
1163A051862882A052822568A054139650A054204912A053181062A052877040A054864132
1156A058916565A063172283A065752749A066265611A065765801A065376745A065176174
1149A064576338A063565281A063013778A063496658A064417252A064727735A064074913
1142A063041111A062645011A063750731A066308711A069008007A070410059A070469506
1135A070269453A070394486A070441269A070287610A070647008A071582722A071625821
1128A069399519A065533117A062326968A061650884A063422091A066115959A068109835
1121A068456116A067306779A065910543A065708422A067107437A069087808A070092662
1114A069350087A067342577A065111299A063205173A061560162A060414056A060534502
1107A061909415A063366714A064143794A064652844A065458678A066276402A066448283
1100A066035899A065811421A065981492A065494347A063455821A060939648A060012722
1093A060769706A061420784A061275913A061532764A062829427A064061989A064046869
1086A062937853A061986826A062221384A063534847A065087779A066129852A066344250
1079A065893161A065250807A064821558A064840879A065480713A066431676A066705392
1072A065779371A064700854A065075179A066977558A069136206A070506790A070751235
1065A070116635A069373414A069371346A070220538A071044336A070656765A068357834
1058A064296225A059980414A058362219A061026040A065836104A069811063A071825810
1051A072278320A071998659A071713894A071897276A072591840A073410986A073741823
1044A073023480A071140744A068503286A065568139A062914204A062049374A064138689
1037A067626761A070180928A071229334A071608116A072076458A072185531A070688880
1030A067262517A063859222A063020175A064311087A065701185A066939046A068867659
1023A071131504A072554750A072768179A072383646A071881316A070924666A069135302
1016A067172700A066450221A067471487A069185703A070139057A069360684A066703066
1009A063337249A061355779A061620191A062718221A062705427A060678144A057491122
1002A056156206A058784683A063120202A065925792A066300246A065154657A063541502
995A061963176A060978870A060852997A060487331A058171535A053190108A046746600
988A042201012A042090582A044925831A048004815A049742422A049155961A045984446
981A041675807A038644446A037212670A036061137A034958777A033864817A031169268
974A025154233A016827666A010549318A009067658A010327554A011479798A011632229
967A011145536A010595325A010522244A010719389A009955620A007894930A007443454
960A011664731A018334979A024794771A030359299A034316681A036246005A036842158
953A036727205A035007756A030178760A023082623A019671445A024792186A034526879
946A043593048A049938275A053106752A053200059A051275387A049614545A049411649
939A048924504A046094294A042200624A041201780A044637253A051867211A060156817
932A065600577A066875399A065205252A062315207A058136965A051360746A044699156
925A045253632A051797360A058222970A061945536A062566114A060975575A059069900
918A057250360A054315988A051642280A053410451A058949326A062854240A062599650
911A060131035A059358802A060821335A061286058A058098971A050048446A037110899
904A025879749A025216524A027393782A024897576A019256800A017362627A021085839
897A024748311A024926589A021302563A014309490A005183228I98514143A000251103
890A007294577A012803276A014786103A014435751A013787646A013609692A013515546
883A014269751A016871412A019627118A019983867A018028696A017498129A020791898
876A024785014A026385180A025418644A023436658A021912868A020924879A019582597
869A017378588A014655771A011723080A008081931A003014887I96453776I88996174
862I81287213I73397778I64892610I55377485I44464765I31456140I15692455
855H96855084H74934723H50494443H23709417G92435020G55277664G20002269
848F94846552F75476417F55256186F34136555F17125186F05082838E94501150
841E83572147E72104888E58631863E41771988E29089289E27710887E30339428
834E32683429E34962135E38320392E43695593E50431040E56809285E62520945
827E68691771E76659328E90494077F14152884F36832426F48110553F49820051
820F46110150F40769196F35505588F28423667F17218299F01895816E85180973
813E69956513E58176638E52718663E54448645E60700436E70346216E82756233
806E95005871F04449337F10150076F12120755F12915992F20227238F36382306
799F49366700F54741255F55285780F53515736F51760618F52773678F57274422
792F62103613F64385033F64682140F66866119F75279660F88859625G02658512
785G13965716G22886239G30332404G36095758G38678421G37009631G31633202
778G25065824G21972172G25723040G32952610G38339183G40175266G39185403
771G36790516G33269490G27108098G16660554G00868178F81324225F65907595
764F58993031F56475373F55426192F55290562F56151772F58079158F60448198
757F62058316F62406212F62028463F61786474F62953968F68475978F81326809
750F98456685G14162345G27941459G41831649G55545242G65948653G70801751
743G70817453G68420305G65078137G60279769G54551438G51929682G55097061
736G62294193G71818365G83376863G96455339H09378735H20305024H29197310
729H37757207H46588107H54084867H59156047H62656590H66137747H70607411
722H76741470H84501349H91929679H96669440H98289574H98505264H99666038
715I02077854I03824055I03358234I00563692H96002209H89798881H81438842
708H70868914H59453865H48749599H38335785H26675322H13457597G99663104
701G85753141G71580124G58288413G48069095G41277884G36525200G33125653
694G31610457G32586944G35758782G40231870G45360106G50870162G56556751
687G62081669G66747961G69730666G71142281G72740316G76627331G82835505
680G89526754G95270657G99848554H03646268H07050145H10290476H13472071
673H16538196H19243566H21252498H22384517H22910044H23464003H24345762
666H25144424H25414521H25232819H24742637H23671681H21659389H18622471
659H14545935H09220618H02355745G93800499G83566901G71721957G58365371
652G43728019G28214400G12357924F96813289F82335992F69664537F59374528
645F51709248F46480468F43244272F41572962F41103199F41470610F42314374
638F43248666F43840232F43759784F42966162F41649662F39978870F37954300
631F35511274F32678674F29595942F26483293F23633634F21266015F19351294
624F17752614F16457567F15491742F14746324F14074957F13469499F13061832
617F13032367F13525327F14596995F16246076F18465659F21220137F24414203
610F27931094F31689263F35685868F40019061F44842307F50266940F56298969
603F62843926F69713968F76525727F82576883F87118465F90139940F92808866
596F96654332G02185260G08594263G14752359G20099517G24611956G28426730
589G31767476G34975499G38315404G41732139G44864884G47243100G48310438
582G47197804G42609311G33160094G18086126F97985500F75138020F53020837
575F35179791F24171309F21087156F25538016F35887924F49838144F65214581
568F80479814F94811078G07946675G19913356G30745369G40416157G48980060
561G56620592G63495158G69619977G75003449G79821009G84308829G88483001
554G92099466G94875591G96601954G97073721G96136068G93916292G90953748
547G88047678G85993386G85433030G86791531G90136218G95053481H00816964
540H06724929H12203129H16690497H19752422H21452939H22486870H23801883
533H26057005H29380950H33480877H37855618H41991020H45565096H48593097
526H51407153H54486460H58197523H62549907H67174069H71576467H75445001
519H78818249H82038356H85418841H88892115H92144530H95103520H98018765
512I01045797I04035158I06806501I09447255I12272941I15533562I19189508
505I22998272I26782288I30517260I34219795I37921812I41721724I45692094
498I49744075I53725043I57628858I61562139I65525660I69388379I73049236
491I76464743I79536748I82114306I84049446I85158397I85211706I84024827
484I81435702I77120150I70434199I60378103I45697974I25143416H97812767
477H63462618H22654809G76723028G27821401F79262824F35570527F01417782
470E79756275E70644035E71891394E80823161E95352733F13593692F32984440
463F50289620F62751653F69345330F70900718F69034460F65046966F59724686
456F53813813F48360490F44534408F43169252F44513666F48365207F54291653
449F61723214F70060766F78865238F87921068F97094566G06188714G14961717
442G23266185G31128352G38659617G45930607G52937766G59616091G65888042
435G71787155G77480852G83099270G88626450G93978647G99084333H03951970
428H08735218H13561953H18274639H22596331H26533230H30345095H34202580
421H38101097H41975447H45739755H49304398H52620783H55701382H58681502
414H61798803H65119712H68371933H71259457H73801412H76170711H78419887
407H80579635H82798700H85153137H87483343H89598117H91532933H93498507
400H95628078H97803140H99740153I01328366I02823531I04536195I06416992
393I08193886I09806717I11420389I13080456I14650382I16086745I17519361
386I19018339I20502971I21970286I23585961I25392707I27130249I28514790
379I29553438I30489217I31543567I32746664I33946402I34992416I35905514
372I36812150I37806665I38933386I40178032I41402517I42398325I43080354
365I43625912I44363834I45407522I46464974I47225060I47817982I48603204
358I49667505I50846177I52038548I53220839I54321390I55288120I56163417
351I57029474I57981665I59119694I60408473I61584173I62402995I63007161
344I63822042I65013896I66256927I67121756I67526515I67733611I68039959
337I68530916I69105099I69673209I70204423I70567827I70602526I70502952
330I70847294I71939251I73303244I74183581I74422663I74474485I74711628
323I75165948I75801582I76590551I77444654I78351420I79363252I80359835
316I81139887I81703215I82129297I82373742I82473769I82706776I83291686
309I84119361I84945161I85768120I86844439I88261159I89657073I90532758
302I90741534I90606938I90681247I91334392I92423312I93466225I94215261
295I94885465I95780406I96884446I97936599I98831087I99748644A000789683
288A001732375A002352824A002692837A002855284A002901937A003038407A003483939
281A004095600A004471023A004455257A004237111A003896904A003194844A002060369
274A001010737A000656831A000942049A001228365A000971385A000042068I98580052
267I96759607I94618598I92032317I88820417I84839901I80071645I74622716
260I68450080I61120678I52100063I41212674I28602669I14350690H98308830
253H80214098H59929379H37902724H15718404G96064021G81756472G74489165
246G74139396G78910496G86341346G94603490H02949119H11159182H18967007
239H26074774H32463940H38498748H44716873H51448184H58585676H65807685
232H73021230H80438576H88224043H96164397I03715370I10401255I16156402
225I21254915I26035514I30691402I35091021I38823150I41578146I43379916
218I44353560I44421795I43377655I41224111I38241341I34770458I31187787
211I27757483I23900515I17830491I09108470I00310395H92336700H83987905
204H74521112H64210556H53510102H42508405H31043989H18864396H05876448
197G92145796G77505859G61593361G44423552G26828566G10668328F98722453
190F93708653F96654009G05965205G18441712G31263143G42682392G51661975
183G57979674G62294839G65439280G67829191G69555490G70562088G70718719
176G70065315G68983051G67947052G67078798G66098370G64834856G63524042
169G62439193G61632648G61245271G61605315G62719048G64019910G64958273
162G65671706G66734133G68308776G69987840G71450696G72740445G73948712
155G75169837G76616087G78354275G80179954G81882086G83268566G84024710
148G83985035G83512429G83265787G83472302G83630161G83156779G82191729
141G81259763G80340074G78855442G76387344G72985536G68913847G64361474
134G59182384G52665278G43664500G31450402G17109252G03955175F95528710
127F92971441F94737092F98120226G00411662F99734608F95949559F90398729
120F84397005F78334089F72047470F65525258F59262224F53900270F49370642
113F44907828F40274749F36283701F33814893F33041496F33531097F34337771
106F34316189F33042659F31329930F30583802F31573600F34043959F37272336
99F40385373F42607927F43972114F45340372F47099431F48485652F48972087
92F49559969F51675712F55178387F58673373F61269541F62954549F64075778
85F65319584F67638417F71389543F75922789F80455260F84807644F89081519
78F93043424F96216296F98642199G01207222G04821748G09313058G13697751
71G17499213G21247496G25666436G31041831G37361727G44203662G50619967
64G55611280G58760179G60594194G62239851G64070634G64719838G62701343
57G58171651G51911524G43305878G30529679G13740527F96990016F85563788
50F82327204F86939154F96613365G08237514G20283416G32010111G42078162
43G49372154G54494381G59496874G66429465G75876937G86460047G95489643
36H00449747H00553715G97100407G94729428G99851461H10686188H20141415
29H25171434H27421192H30753990H37036990H44431462H50321205H53997958
22H55800310H55818661H54800044H55411447H61302354H72069750H82287130
15H89430759H95896689I04487151I13955107I19448492I18412428I14980185
8I16279562I23161882I30420012I34234656I33878683I30647721I28602604
1I33258040
##END=


$$ === CHEMSPECTRA PEAK TABLE EDIT ===
##TITLE=X9461
##JCAMP-DX=5.00
##DATA TYPE=INFRAREDPEAKTABLE
##DATA CLASS=PEAKTABLE
##$CSTHRESHOLD=0.93
##MAXX=3997.453
##MAXY=0.9904567056390399
##MINX=373.96442
##MINY=0.48677882845947
##$CSSOLVENTNAME=- - -
##$CSSOLVENTVALUE=0
##$CSSOLVENTX=0
##NPOINTS=28
##PEAKTABLE= (XY..XY)
443.37448271305675, 0.6294022829003068
518.4506729945265, 0.5816723739168914
526.9498643471461, 0.5839394361198962
552.4474384050036, 0.6392208963576883
609.1087140891318, 0.7021990455688509
641.6889476075057, 0.6399009262803725
721.014733565285, 0.7140930337660473
1014.2368352306485, 0.5932816295861518
1036.9013455043, 0.5263818535255741
1144.5577693041437, 0.7245106735438107
1184.2206622830336, 0.5729123382078416
1246.5480655355746, 0.5654823214136112
1280.5448309460512, 0.5913758306275733
1355.6210212275214, 0.6748628651035533
1417.9484244800624, 0.6936060231174686
1440.6129347537135, 0.6104548009903831
1450.5286579984358, 0.6044627464183958
1473.1931682720874, 0.6659721766674467
1498.690742329945, 0.6012066036190384
1521.3552526035965, 0.5098468685616194
1556.7685499061763, 0.48677882845947
1735.2515683111992, 0.9297172473071217
2840.146444151681, 0.8115835834010008
2940.7202084910086, 0.7176200790300332
2998.79801606724, 0.7417931599158497
3024.2955901250975, 0.6990164558668048
3197.1124809616886, 0.5565558102263184
3396.8434777482457, 0.8828537507876786
##END=


$$ === CHEMSPECTRA PEAK TABLE AUTO ===
##TITLE=X9461
##JCAMP-DX=5.00
##DATA TYPE=INFRAREDPEAKTABLE
##DATA CLASS=PEAKTABLE
##$CSTHRESHOLD=0.93
##MAXX=3997.453
##MAXY=0.9904567056390399
##MINX=373.96442
##MINY=0.48677882845947
##NPOINTS=52
##PEAKTABLE= (XY..XY)
3902.545363229085, 0.9209532193007336
3869.9651297107116, 0.920806949754375
3852.966747005473, 0.9156638431903742
3838.801428084441, 0.9159032159148639
3820.3865134870994, 0.9188601421167831
3749.5599188819388, 0.91702980292802
3735.394599960907, 0.91572917001512
3648.9861545426115, 0.9190359166591361
3396.8434777482407, 0.8828537507876786
3197.1124809616886, 0.5565558102263184
3024.2955901250975, 0.6990164558668048
2998.79801606724, 0.7417931599158497
2940.7202084910086, 0.7176200790300332
2840.146444151681, 0.8115835834010008
2825.981125230649, 0.8174874227762793
2711.2420419702894, 0.8828240087259689
2627.6666603362, 0.9070665886086341
2620.584000875684, 0.9078749467229564
2606.418681954652, 0.9069812348043337
2588.0037673573106, 0.9083727644315863
2575.2549803283814, 0.9077316575630813
2565.339257083659, 0.906169836345273
2524.259832212666, 0.9199636027698262
1636.094335863956, 0.9210640839588207
1556.7685499061763, 0.48677882845947
1521.3552526035965, 0.5098468685616194
1498.690742329945, 0.6012066036190384
1473.1931682720874, 0.6659721766674467
1450.5286579984358, 0.6044627464183958
1440.6129347537135, 0.6104548009903831
1417.9484244800624, 0.6936060231174686
1355.6210212275214, 0.6748628651035533
1280.5448309460512, 0.5913758306275733
1246.5480655355746, 0.5654823214136112
1184.2206622830336, 0.5729123382078416
1144.5577693041437, 0.7245106735438107
1036.9013455043, 0.5263818535255741
1014.2368352306485, 0.5932816295861518
841.4199443940574, 0.8952255896722049
798.9239876309616, 0.9137702037658793
721.014733565285, 0.7140930337660473
641.6889476075057, 0.6399009262803725
609.1087140891318, 0.7021990455688509
579.3615443549647, 0.722511533418951
552.4474384050036, 0.6392208963576883
526.9498643471461, 0.5839394361198962
518.4506729945265, 0.5816723739168914
443.37448271305675, 0.6294022829003068
419.29344054730245, 0.7330859935510573
400.8785259499605, 0.7884972135991264
385.29667513682534, 0.8440094633066176
375.380951892103, 0.8565752551539327
##END=

##END=

