##TITLE=cz-PHOS-12.F2
##JCAMP-DX=5.0
##DATA TYPE=LINK
##BLOCKS=1


$$ === CHEMSPECTRA SPECTRUM ORIG ===
##TITLE=cz-PHOS-12.F2
##JCAMP-DX=5.00
##DATA TYPE=INFRARED SPECTRUM
##DATA CLASS=XYDATA
##$CSCATEGORY=SPECTRUM
##ORIGIN=Angelika Moesle
##OWNER=
##XUNITS=1/CM
##YUNITS=TRANSMITTANCE
##XFACTOR=1.0
##YFACTOR=9.3705321e-10
##FIRSTX=3997.453
##LASTX=373.96442
##MAXX=3997.453
##MAXY=1.006153221953402
##MINX=373.96442
##MINY=0.10158174424593204
##NPOINTS=2559
##XYDATA= (X++(Y..Y))
2559A049237245A049741534A049795920A049244051A048421401A047854649A047719035
2552A047829332A048080396A048539650A049093617A049371269A049128538A048455241
2545A047614971A046965846A046923610A047599833A048546265A049167085A049306897
2538A049295829A049525456A050046156A050483401A050399184A049871105A049473551
2531A049512225A049677926A049667557A049735173A050266432A051100532A051640251
2524A051576070A051189075A050861936A050665004A050457195A050165804A049928480
2517A049948898A050223497A050471252A050474242A050477231A050942846A051798954
2510A052448080A052473842A051898502A051057278A050352495A049955959A049771303
2503A049664759A049687149A050026564A050746614A051655199A052376457A052615943
2496A052459530A052312276A052522311A052990916A053095616A052415831A051368579
2489A050604130A050187367A049840382A049574752A049704832A050277564A050746296
2482A050793557A050782616A051136980A051685540A051956895A051892205A051603867
2475A051086347A050542557A050414004A050865753A051371886A051306815A050935277
2468A051071018A051811931A052484210A052444709A051685095A050930633A050743561
2461A051046783A051404772A051284234A050457195A049929879A050855766A052216863
2454A053038304A053342481A053483883A053698180A053871704A053679098A052994796
2447A052057587A051283916A050920202A050942655A051318646A052007018A052708557
2440A053015215A052888506A052708494A052811158A053147202A053319327A052677008
2433A051091754A049450525A048873595A049748913A051192574A052314884A052932905
2426A053010126A052486373A051686176A051263434A051491789A052160697A052653282
2419A052468626A051896848A051525756A051589873A051771157A051713655A051469907
2412A051331177A051502348A051988254A052479694A052348024A051322717A050002966
2405A049256073A049156144A049128793A049085539A049338955A049856093A050142459
2398A049737590A048816792A048184205A048570500A049873904A051185895A051733628
2391A051414377A050615707A049721943A048937712A048502884A048640151A049217081
2384A049746178A050194173A051007854A052399102A053646975A053556587A052396048
2377A051282453A050934959A051448662A052284097A052852758A053139824A053247768
2370A053152991A052857529A052294338A051380791A050417694A050031208A050418521
2363A051116243A051606666A051781526A051771603A051645467A051312603A050654636
2356A049867606A049290740A048953296A048769913A048670556A048517641A048259327
2349A048146421A048361991A048738935A049094953A049357974A049319746A048728694
2342A047867752A047554480A047846825A048081668A048066720A048018568A048203796
2335A048732829A049354539A049434241A048301054A046276837A044607620A043698463
2328A043364390A043358475A043207086A042565403A041509754A040378539A039518296
2321A039043712A038829288A038733620A038724079A038765870A038722489A038422256
2314A037795075A037078715A036595608A036177382A035621124A035010227A034541496
2307A034296348A034052727A033503403A032723562A032158463A032060442A032172457
2300A032030292A031333905A030454261A030274058A030928145A031987992A032953125
2293A033466637A033466447A033037661A032237528A031258338A030510746A030207841
2286A029956524A029220636A028001513A026726288A025600925A024533573A023553618
2279A022926883A022884074A023311842A023804045A023953780A023687133A023324373
2272A023131385A022939096A022262555A021001132A019908209A019403221A019026531
2265A018256167A017129404A016117455A015512155A015207025A014981596A014694467
2258A014243863A013487557A012286500A010860077A009921341A009701891A009720083
2251A009642099A009513610A009367628A008960978A008046414A006701219A005279503
2244A004110822A003272397A002654440A002160901A001792098A001557700A001287809
2237A000700574I99741993I98686662I97847092I97333199I97082199I96879224
2230I96396944I95558264I94792989I94564507I94741021I94839805I94686890I94503443
2222I94449884I94358606I94017537I93492066I92922260I92203419I91225946I90221884
2214I89465323I88831973I88091378I87365349I86934973I86756360I86540791I86278787
2206I86287692I86726655I87250345I87274007I86537865I85327584I84196623I83469195
2198I82998682I82472321I81825040I81253071I80950612I80913211I80941580I80850238
2190I80692425I80684220I80869003I81015557I80872692I80369484I79666164I79155132
2182I79230636I79878171I80627417I81017783I80933947I80455674I79697141I78884796
2174I78348830I78247310I78383624I78411484I78174288I77735579I77164756I76601120
2166I76447505I77011968I77941099I78492712I78438518I78260668I78367721I78577185
2158I78569043I78392783I78244194I78113796I77968259I78015012I78515103I79411475
2150I80280559I80670735I80499691I80109198I79872129I79885359I80141320I80632188
2142I81156831I81473093I81745529I82346440I83151406I83556212I83299805I82882278
2134I82969104I83627517I84416581I85039373I85550850I86030713I86457463I86829319
2126I87087252I87068997I86819714I86713488I87000108I87427240I87570932I87452811
2118I87545043I88146399I89073113I90069732I91122391I92185164I92993947I93380624
2110I93470884I93459753I93468785I93649943I94199584I95150597I96219348I96971520
2102I97198094I97067887I96882341I96798823I96885712I97288418I98116475I99175749
2094A000023461A000376043A000350981A000284701A000424577A000771562A001122935
2087A001328518A001508340A001854752A002277304A002472010A002288690A001878924
2080A001536964A001419479A001419797A001421323A001570358A002037945A002659656
2073A003134112A003421114A003670714A003943659A004224936A004543488A004914835
2066A005261184A005493610A005613448A005641563A005521343A005217230A004877115
2059A004758358A005000961A005552766A006260284A006935044A007417134A007691732
2052A007883894A008005259A007838477A007304483A006823666A006926775A007555292
2045A008136865A008358032A008511583A008990683A009692795A010163626A010207643
2038A010032274A009817786A009584724A009562588A010171641A011384911A012550475
2031A013102025A013140381A013158573A013476871A014062961A014647842A014913662
2024A014824928A014795032A015241437A016047040A016770779A017186461A017288744
2017A017093402A016772178A016686561A017062806A017828145A018731387A019388464
2010A019392980A018723308A017964013A017865992A018643352A019810061A020762219
2003A021344873A021724807A021998579A022156392A022208487A022201172A022260901
1996A022564377A023101170A023630012A024007211A024312533A024604242A024857468
1989A025161898A025654165A026223081A026570066A026642516A026749505A027121488
1982A027597408A027906291A028031728A028119762A028207923A028245643A028238646
1975A028216065A028176628A028183689A028367072A028706678A028982358A029059388
1968A029028983A028961431A028781609A028469418A028148259A027936951A027907882
1961A028092219A028383801A028605414A028755721A028992917A029353196A029688477
1954A029864482A029879239A029824663A029799919A029823709A029830134A029774794
1947A029726770A029795276A029981013A030124196A030029038A029653620A029193984
1940A028966074A029143542A029614882A030121397A030473344A030569266A030352360
1933A029882165A029319420A028758074A028204807A027705479A027317149A027014308
1926A026772786A026628458A026517143A026201835A025511428A024583823A023739737
1919A023112620A022477552A021447919A019834487A017873625A016211405A015610240
1912A016428564A018293760A020403657A022161671A023393770A024116236A024399994
1905A024422703A024404511A024454825A024575045A024731522A024841756A024794940
1898A024568112A024249751A023924139A023586568A023143152A022457960A021451990
1891A020239229A019132884A018392289A017900404A017165343A015754822A013700074
1884A011390382A009100027A006740211A004139637A001463496I99174095I97567724
1877I96517037I95686054I94825875I93836507I92715023I91494565I90147271I88620728
1869I87006533I85492648I84093577I82594386I80764748I78454484I75564745I72135033
1861I68367622I64398191I60176806I55711419I51348568I47764415I45682378I45466681
1853I46938966I49730493I53692863I58684230I64162521I69403234I74006461I77914001
1845I81112814I83563527I85301632I86442643I87088270I87233425I86736832I85372364
1837I82919235I79258624I74436710I68550497I61490642I52823143I41926544I28276838
1829I11836495H93416398H74713497H57948051H45247640H37938184H36126484H39086192
1821H46178551H57214771H71795453H88586597I05598018I21170549I34536751I45568137
1813I54323924I60945580I65758334I69224367I71741677I73516930I74655142I75326276
1805I75794117I76283840I76845122I77369830I77801732I78313273I79124155I80144373
1797I81028851I81631161I82151161I82754107I83273726I83455837I83387776I83494511
1789I84076912I85030341I86122373I87341559I88784839I90376199I91975255I93675895
1781I95719321I98084989A000432464A002526968A004475300A006428402A008304156
1774A009902704A011070558A011738130A012009357A012149741A012281474A012204762
1767A011659637A010653031A009461832A008402749A007552048A006611404A005107569
1760A002711179I99274915I94655404I88627598I80928477I71469114I60837636
1753I50764578I43789322I41932396I45317837I52044574I59551407I66248311I72038220
1745I77684883I83927813I90941361I98249162A005075701A010866374A015534100
1738A019339612A022641344A025613201A028061751A029638099A030344727A030688277
1731A031223353A032050455A032858984A033396095A033782136A034315812A035056089
1724A035754512A036195446A036457323A036783317A037288306A037856967A038311132
1717A038600488A038801682A039006756A039295412A039692711A040061386A040189303
1710A040070419A039932515A039958849A040188349A040657781A041371406A042124086
1703A042610374A042775438A042891587A043196718A043576652A043751321A043717418
1696A043788278A044126930A044451398A044366862A043882101A043423991A043353768
1689A043593127A043777973A043732557A043667422A043835285A044124958A044205996
1682A044008936A043797247A043763471A043816075A043810159A043752339A043705078
1675A043661570A043587338A043457195A043183424A042667812A042037133A041661206
1668A041757891A042121860A042390415A042401738A042201625A041945664A041878175
1661A042167404A042717618A043257019A043573408A043630529A043569910A043605848
1654A043817729A044095571A044296638A044379202A044410243A044480721A044567992
1647A044549609A044445418A044466791A044687322A044884254A044849651A044684841
1640A044647121A044781017A044843735A044651828A044372905A044279782A044344917
1633A044347143A044240790A044128139A044015361A043910852A044011926A044485237
1626A045146640A045601123A045653727A045439303A045219281A045163369A045253057
1619A045316793A045195237A044877321A044481739A044207840A044281753A044745333
1612A045266669A045390897A045013761A044437213A043980630A043735419A043649929
1605A043632246A043542049A043303835A043097361A043246714A043800236A044417176
1598A044792276A044948308A044966882A044735156A044199062A043632628A043410252
1591A043628748A044053081A044327170A044230930A043884581A043675882A043847816
1584A044242062A044550563A044671801A044728731A044895449A045243961A045650038
1577A045902628A045946899A045866117A045701497A045539105A045614990A046029463
1570A046534897A046802753A046698371A046284788A045874322A045972088A046774066
1563A047821699A048463256A048510072A048224024A047892877A047660897A047596970
1556A047714710A047961447A048267341A048635571A049176881A049935858A050649356
1549A050884962A050534479A049982674A049730212A049998195A050667866A051457058
1542A052177108A052802507A053250757A053334275A053091163A052895567A053049182
1535A053461492A053795247A053793402A053480766A053096761A052809313A052574979
1528A052315265A052070945A051943791A052041049A052428234A052998485A053477585
1521A053666948A053589346A053339364A052949507A052520276A052291667A052393186
1514A052685213A053065402A053698053A054645885A055501929A055706685A055137452
1507A054216717A053517977A053343180A053634890A054164558A054671010A054880346
1500A054657843A054199479A053905799A053986009A054197889A054075888A053529617
1493A053014451A052849260A052734573A052384281A052148929A052459593A053117243
1486A053673691A054151900A054882063A055797900A056318091A056017541A055171864
1479A054432732A054141341A054202405A054433686A054743397A055071808A055362690
1472A055529981A055431069A055001202A054435340A054112972A054245787A054612490
1465A054767759A054538004A054143568A053788441A053397057A052881573A052464237
1458A052547755A053219016A053950961A054030535A053400492A052795828A052867706
1451A053464864A053956304A053960756A053567274A053084357A052781898A052799391
1444A053127547A053603085A053968453A054050890A053885762A053603467A053282561
1437A052991234A052828078A052830559A052962801A053197072A053473578A053635144
1430A053541639A053197962A052688521A052094734A051548146A051234428A051233538
1423A051391287A051422264A051172601A050803416A050723206A051284743A052457049
1416A053789713A054756055A055139487A055071999A054856238A054885307A055537105
1409A056847506A058317373A059251974A059297709A058657679A057887888A057474114
1402A057502547A057668565A057574425A057017404A056104812A055172755A054476113
1395A053985882A053532989A053083149A052846588A052971325A053250884A053446226
1388A053599141A053819800A054046056A054162777A054156734A054025764A053646657
1381A052863508A051714673A050501784A049642496A049417766A049713928A050026628
1374A049929752A049552617A049418084A049791085A050362863A050675245A050661569
1367A050487281A050107920A049407907A048555806A047796447A047133009A046604040
1360A046575798A047359392A048747777A050125603A050868361A050669266A049737400
1353A048659361A047970289A047931615A048556824A049564893A050475387A051061985
1346A051567674A052238363A052853140A053003765A052726813A052536178A052769558
1339A053217999A053610909A054071817A054653327A054808723A053954396A052333267
1332A050760862A049723978A049169184A048923909A048960548A049358674A050131264
1325A050988390A051395103A051051808A050170383A049302508A049122750A050050227
1318A051638279A052781389A052859246A052105293A050878474A049617434A049313639
1311A050577669A052336384A052849451A051882282A050723715A050388561A050786942
1304A051262670A051195309A050403509A049408734A049017732A049364399A049651782
1297A049204360A048529663A048739444A049881155A050636889A050133236A049256964
1290A049459239A050925227A052669947A053868333A054359582A054352077A054311431
1283A054657525A055193682A055424899A055515351A056062512A056957294A057541603
1276A057805069A058208094A058443509A057594907A055471333A052891496A050714491
1269A049387425A049333485A050932287A053844035A056827405A058695208A059223668
1262A058914403A058285823A057524810A056586901A055695935A055326815A055347996
1255A054992615A054194900A053864517A054223015A054195154A053182950A052149056
1248A052363417A053922273A055783016A056803743A056728239A056135280A055433041
1241A054514915A053509390A052976350A053114571A053508372A053723878A053529108
1234A052768604A051706213A051132591A051511189A052423909A053276709A053974432
1227A054561285A054821762A054612363A054180461A053978567A054339927A055204495
1220A056017286A056106783A055308941A054126648A053307369A053330713A054124930
1213A055100304A055581949A055361990A054766614A054208766A053920619A054027927
1206A054494560A054983010A055149665A055085420A055115825A055225550A055107238
1199A054766677A054616625A054887597A055405499A056098196A057106965A058047927
1192A057901691A056231329A053925708A052255855A051688275A051904099A052389751
1185A052806515A053278999A054267095A055648865A056482583A056468653A056717362
1178A058083866A059772611A060806632A061679724A063080004A064116506A063571062
1171A062010616A060879019A060573252A060946126A062395448A064886615A066905298
1164A067086582A066449606A067461491A070727666A073737115A073741823A070994313
1157A068223903A067634251A068903497A070018683A069725958A068461164A067068963
1150A065735536A064162558A062024419A059450560A057429715A057136988A058505337
1143A060103439A060916802A061373957A062045919A062592380A062471969A061824052
1136A061242733A060993896A060626429A059503928A057824788A056448807A055573425
1129A054715472A054056551A054535778A056283488A057898829A057955186A056516677
1122A054779145A053867125A053998158A054673427A055600777A056859082A058216872
1115A059104911A059293892A058964909A058299181A057568382A057291366A057739807
1108A058464373A058737126A058350640A057654826A057117206A056869641A056536141
1101A055700961A054498885A053556842A053429879A054109601A054942046A055134208
1094A054611854A054076842A053895685A053601177A052790931A051883554A051391223
1087A051113063A050461838A049291249A048103295A047339419A046891042A046462574
1080A046015470A045673891A045397957A045010517A044491789A044054862A043878284
1073A043832359A043498096A042444483A040699444A038806834A037157463A035654264
1066A034040705A032242935A030341165A028452562A026837921A025933980A025995553
1059A026788307A027814568A028590211A028646378A027777802A026287134A024588785
1052A022974717A021776267A021321656A021643707A022457515A023502986A024662952
1045A025700409A026278166A026411489A026566058A027116400A027895987A028378713
1038A028335713A028087067A027868063A027566367A027051901A026490237A026243372
1031A026545513A027433616A028728814A030010718A031023240A031886791A032703080
1024A033433243A034131029A034908962A035710240A036302945A036505347A036336657
1017A035901002A035245961A034432089A033628012A032952171A032345472A031720200
1010A031076035A030399558A029606422A028758583A028200036A028278211A029038397
1003A030153838A031134682A031887681A032751231A033841928A034904764A035553318
996A035633274A035406891A035300346A035535062A035993425A036427618A036665705
989A036630275A036396259A036236601A036318974A036531300A036654001A036501595
982A035971608A035145141A034419939A034130330A034100688A033916605A033428790
975A032884491A032600034A032636927A032616381A032098989A031164769A030147159
968A029230941A028409117A027618653A026914761A026456333A026330834A026541951
961A026911008A026966474A026544622A025821583A024876550A023733122A022457833
954A021180445A020099926A019463331A019614020A020958769A023252177A025252922
947A026502768A027450345A028365418A029254285A030030373A030591338A030893987
940A031032463A031124632A031160507A031045630A030733376A030170058A029357076
933A028633910A028282854A028186678A028120207A028022059A028027148A028259383
926A028516552A028265744A027519869A026638890A025737556A024765108A023725680
919A022890944A022485566A022208551A021444166A020011319A018574210A017573138
912A016846282A016149832A015442886A014819076A014293796A013850699A013523242
905A013314415A013096810A012869345A012795050A012771070A012523950A011960124
898A011506404A011476826A011810262A012320148A012788817A013079953A013236303
891A013456007A013823792A014295895A014900495A015712713A016692922A017637001
884A018399541A018991991A019440495A019778257A020155329A020744408A021408482
877A021744399A021762400A021706234A021644025A021541424A021415924A021303019
870A021168232A020990955A020857441A020885874A021100107A021426483A021737593
863A021924857A022026630A022213767A022560179A022947810A023231186A023367372
856A023388427A023353124A023313878A023273423A023214076A023174320A023231314
849A023351343A023448537A023600307A023886864A024105487A023900921A023373415
842A022888527A022600571A022503122A022664052A023230359A023795140A023660481
835A023111793A022407328A021690204A021138082A020771187A020471146A020223772
828A020167542A020453462A021050302A021473363A020913353A019690668A018689850
821A017978452A017377287A016841702A016442622A016174257A015942786A015710042
814A015598218A015697384A015693631A014957361A013407156A011692650A010270170
807A009223109A008393653A007591485A006797268A006047259A005085179A003019808
800I99734169I96810908I94571886I92616112I90690234I88478945I85533230
793I82078711I79103864I76961208I75227365I73383924I71259079I68976866
786I66517821I63721841I60434866I56652317I52650000I48656970I44479412
779I39589819I32974588I23100943I10527939H98677148H88753252H79335489
772H68991713H57975594H48448234H41660687H36962110H33650965H32292794
765H33758336H36738844H40171164H43858110H46905280H48258998H48733645
758H51260497H57764095H67314290H77194678H85051740H91344730H99742528
751I13346118I28859366I41387843I50995541I59233300I66163139I71113224
744I74332646I76712498I78794408I80661702I82569769I85092677I88167135
737I90813253I92633032I93931347I95010594I96014719I96941433I97692460
730I98113231I98021316I97403613I96458771I95283284I93849546I92186309
723I90089769I86727482I81085272I72675197I60769193I43336238I19182080
716H93912164H79115276H80104199H92716068I09747143I25097362I35386690
709I39388179I35434587I20458132H93723564H59711918H26414468H04187333
702H00931081H15787316H42513042H74060746I02295841I22075127I34428490
695I42654418I49449534I56600031I64730483I73299579I81240413I87638739
688I92155204I95040299I96805056I97907902I98633613I99136884I99539590
681I99927666A000320767A000749299A001290926A002048886A003143717A004596220
674A006147951A007367456A008003096A008098318A007773978A007083634A006114175
667A005045932A004005614A002977890A001963905A001099082A000470820I99884921
660I98947839I97370155I95155813I92522862I89719185I86908385I84120356
653I81218277I77919662I73930195I69098294I63377210I56586164I48245296
646I37595753I23553518I04528567H78710471H45551498H08016125G73379270
639G50402571G44085855G52515394G68729736G85362367G97942622H05279811
632H07912189H06412743H00780647G90740920G76009676G56304304G31576206
625G02321719F69438171F33875747E96594872E58738213E21687920D86920539
618D55824234D29652538D09556100C96461952C90702193C91671047C97971384
611D08018172D20551133D34752994D50127829D66305787D82892175D99527542
604E16050449E32460164E48695878E64513365E79560998E93552600F06378193
597F18051517F28605074F38133261F46920662F55387095F63816188F72145671
590F80062207F87284264F93661917F98991427G02880775G04883492G04678291
583G02059334F96811306F88656302F77378624F63046079F46056094F26954113
576F06361846E85172803E64651205E46160184E30775554E19265036E12532002
569E12006245E19355838E35546898E59897925E89907255F22178634F53723284
562F82602353G07879648G29382409G47348086G62043199G73666272G82462769
555G88753469G92846364G94889346G94707807G91782765G85319686G74178703
548G56725902G30751520F93530438F42630326E78304283E06865080D42173860
541D01977008C99319155D34709263D95893232E65616148F30114379F81991138
534G18566656G40262596G50390167G54417100G57779260G63791927G73128270
527G84556065G96081498H06095973H14096345H20579333H26329996H31749322
520H36665567H40522602H42486008H41139669H33595561H14954425G81426267
513G37786250G00527957F87794977G04060015G37458920G71929884G98514972
506H15963448H25945609H30211457H30346943H28051627H24939512H21966764
499H19206342H16230159H12493408H07448292H00662017G91897324G80953401
492G67441725G50892611G31280426G09368662F86173658F62057856F36622430
485F09381855E80293069E49821050E18714186D87556689D56372858D24725957
478C92416667C60442659C31483507C09142385B96081281B92336833B95143626
471C00406729C04658424C06173930C04854306C01356819B96260307B89793984
464B81998591B72830238B62083183B49372244B34319364B16908624A97811811
457A78379335A60224789A44636578A32140398A22548062A15479556A10762128
450A08405524A08562828A11529653A17423968A25882600A36265432A47956248
443A60314349A72491437A83304550A91442125A96472802A99928467B04707079
436B12848201B24100562B36753506B49379273B61505394B73097744B84066761
429B94370432C04233073C14034141C24023013C34204651C44491625C54917997
422C65642280C76759155C88199353C99828214D11554683D23297689D34936441
415D46423042D57900005D69515890D81114124D92313722E02906303E12966258
408E22591003E31777962E40599775E49328847E58307710E67735904E77577491
401E87629622E97671512F07573399F17270848F26664440F35642985F44251327
394F52730672F61297733F69912500F78313607F86277722F93814069G01079507
387G08141397G14889443G21138925G26760589G31779690G36378210G40750665
380G45041065G49487561G54424288G59999137G66071596G72459426G79051313
373G85580799G91514973G96373016H00107414H03034300H05455052H07483849
366H09110766H10251395H10909426H11500605H12842237H15615318H19879066
359H25091091H30509208H35631100H40316446H44489425H47812911H49697952
352H49594524H47356837H43362471H38113426H31662242H23517415H13057998
345G99733395G82476445G59444915G30512415G01510773F83740947F85535600
338G04075536G27647738G45507571G54018911G55070933G51880644G46713781
331G40542283G33365516G24594589G13309787F98431608F78835960F53414655
324F21329968E82471600E37517239D87388158D32992594C76090057C20625677
317B72713898B38371995B20637535B18541870B28427744B46273964B69458346
310B96954881C28281386C62639477C98963010D36244361D73587699E10158543
303E45198232E77981087F07685605F33398619F54294362F69681792F78829218
296F80783910F74237313F57501508F29021265E88543868E38094105D81700722
289D23955243C68582333C17977429B73803576B37769781B11327860A94509857
282A85625389A82438073A83600489A89012133A98971491B13217576B30815023
275B50563681B71291736B92030112C12142580C31337302C49638197C67264872
268C84389961D01055256D17273001D33067366D48467263D63451192D77822824
261D91248310E03448789E14278027E23822561E32481186E40457928E47100383
254E51511767E54255524E57923069E65358596E77318731E92179418F07765115
247F22850086F36952622F49736997F61155886F71572176F81375279F90743491
240F99708741G08173901G15945282G22927789G29297809G35436294G41649073
233G47941300G54098358G59983298G65719967G71561845G77545061G83340059
226G88567350G93215358G97654793H02255794H07037253H11786080H16510736
219H21446446H26540541H31370469H35682178H39652182H43621358H47702423
212H51558249H54750256H57414884H60352202H63832228H66973857H69447532
205H71439881H72853518H73619175H74261367H75586844H77770145H79951348
198H80963297H80554230H79613586H79108661H79240585H79668989H80005161
191H79957836H79392546H78321187H76663356H74114877H70408022H65658813
184H60383561H55159704H50157715H44786795H37826933H28155817H15432570
177G99963913G81914272G60671035G34850268G03110339F65302658F22735273
170E77308363E30821543D84814236D40082536C96089810C51712346C07236830
163B65107295B28543051B00340873A82459382A75031837A76092622A83015337
156A93410891B04778050B14848834B22895513B30059655B38270015B49046536
149B62983324B79834562B98543220C17601279C36272026C54931482C73800338
142C92325898D10101322D27422198D44749531D61992456D78300652D92516888
135E03624349E10727585E13260893E11381927E05177003D92752876D69498366
128D30425351C74925447C10455012B50989461B09828176A92394203A95305791
121B10959582B32378840B55308374B77891797B99509180C19837662C38459717
114C55124948C70139472C84019378C97004787D09439347D21936974D34313745
107D45348279D54582054D62937648D71341330D79949959D88584381D97036692
100E04939489E11958666E18199783E24275200E30849371E37954675E44909957
93E51126362E56648734E61820940E66861668E71855961E76833779E81796586
86E86811869E91825881E96235993E99386336F01738073F04567320F08374867
79F12364971F15860519F19508345F24475413F31094906F38430123F44986834
72F49994103F53650198F56134623F57191543F56752517F54825367F50742013
65F43315772F32316127F19990180F10756055F09028827F16022657F27510052
58F38296990F47087889F54569470F61220449F67253915F72623435F77272461
51F81573420F85372507F87203290F86075255F82579835F77391218F71141228
44F65634568F62345812F59532022F52949422F39995212F21870514F00608130
37E76643398E50387803E21454349D83944865D31382438C78069143C46007291
30C33050696C31092377C38560600C55668579C79952721D06925058D32998096
23D57659279D82012786E05507037E25744209E40531332E50416554E60034874
16E71601144E79287990E73140282E44543381D92358725D25400971C57121367
9C01995736B73611574B73126177B89494896C13916974C42891455C75236938
2D07964836D34576862
$$ === CHEMSPECTRA INTEGRALS AND MULTIPLETS ===
##$OBSERVEDINTEGRALS= (X Y Z)

##$OBSERVEDMULTIPLETS=
##$OBSERVEDMULTIPLETSPEAKS=
$$ === CHEMSPECTRA SIMULATION ===
##$CSSIMULATIONPEAKS=
##END=


$$ === CHEMSPECTRA PEAK TABLE EDIT ===
##TITLE=cz-PHOS-12.F2
##JCAMP-DX=5.00
##DATA TYPE=INFRAREDPEAKTABLE
##DATA CLASS=PEAKTABLE
##$CSCATEGORY=EDIT_PEAK
##$CSTHRESHOLD=0.93
##MAXX=3997.453
##MAXY=1.006153221953402
##MINX=373.96442
##MINY=0.10158174424593204
##$CSSOLVENTNAME=- - -
##$CSSOLVENTVALUE=0
##$CSSOLVENTX=0
##NPOINTS=23
##PEAKTABLE= (XY..XY)
382.46361135261895, 0.25593376089287817
413.6273129788897, 0.3102511746743802
458.9563335261919, 0.5706924173228847
546.7813108365908, 0.18028360550654163
597.7764589523063, 0.16401414471304676
648.7716070680217, 0.8237715927288518
770.5933497888973, 0.17095418193086434
817.3389022283031, 0.20478536080290272
854.1687314229866, 0.6407016491947899
1009.9872395543389, 0.10158174424593204
1042.5674730727128, 0.27393516776388394
1096.3956849726346, 0.6445004910197262
1137.4751098436277, 0.37418329600723754
1178.5545347146208, 0.47977709541729646
1242.298469859265, 0.3661087441046895
1276.2952352697416, 0.6972480389433445
1366.953276364347, 0.75051504043982
1385.3681909616885, 0.823777791335836
1457.6113174589523, 0.7799026342775688
2852.8952311806097, 0.8826407752747911
2954.8855274120406, 0.7834950057982136
2998.79801606724, 0.8859525883790961
3440.75596640344, 0.9149832689567411
##END=


$$ === CHEMSPECTRA PEAK TABLE AUTO ===
##TITLE=cz-PHOS-12.F2
##JCAMP-DX=5.00
##DATA TYPE=INFRAREDPEAKTABLE
##DATA CLASS=PEAKTABLE
##$CSCATEGORY=AUTO_PEAK
##$CSTHRESHOLD=0.93
##MAXX=3997.453
##MAXY=1.006153221953402
##MINX=373.96442
##MINY=0.10158174424593204
##NPOINTS=38
##PEAKTABLE= (XY..XY)
3345.8483296325253, 0.9340535368163718
3527.1644118217355, 0.9319598638364175
3360.0136485535572, 0.9309246505544572
3374.1789674745896, 0.9252958262710733
3379.8450950430024, 0.9246030412806965
3498.8337739796716, 0.9241957033132563
2909.556506864738, 0.921486672175561
3396.8434777482407, 0.9210129936520124
3479.002327490227, 0.9191678730989573
3473.336199921814, 0.9189532963473462
3412.425328561376, 0.9181923238689841
3464.8370085691945, 0.9175204595285738
3433.6733069429242, 0.9166822991661443
3450.6716896481626, 0.9166697820093651
3423.7575836982014, 0.9164082963740614
3440.75596640344, 0.9149832689567411
2998.79801606724, 0.8859525883790961
2852.8952311806097, 0.8826407752747911
1385.3681909616885, 0.823777791335836
648.7716070680217, 0.8237715927288518
2954.8855274120406, 0.7834950057982136
1457.6113174589523, 0.7799026342775688
1366.953276364347, 0.75051504043982
1276.2952352697416, 0.6972480389433445
1096.3956849726346, 0.6445004910197262
854.1687314229866, 0.6407016491947899
458.9563335261919, 0.5706924173228847
1178.5545347146208, 0.47977709541729646
1137.4751098436277, 0.37418329600723754
1242.298469859265, 0.3661087441046895
413.6273129788897, 0.3102511746743802
1042.5674730727128, 0.27393516776388394
382.46361135261895, 0.25593376089287817
817.3389022283031, 0.20478536080290272
546.7813108365908, 0.18028360550654163
770.5933497888973, 0.17095418193086434
597.7764589523063, 0.16401414471304676
1009.9872395543389, 0.10158174424593204
##END=

##END=

