##TITLE=LL-48
##JCAMP-DX=4.24
##DATA TYPE=INFRARED SPECTRUM
##DATE=14/2/2018
##SAMPLING PROCEDURE=Diamant ATR
##ORIGIN=Lara
##XUNITS=1/CM
##YUNITS=TRANSMITTANCE
##RESOLUTION=4
##FIRSTX=3997.453
##LASTX=373.96442
##DELTAX=-1.4165319
##MAXY=0.91939801
##MINY=0.43773124
##XFACTOR=1
##YFACTOR=8.5625612e-010
##NPOINTS=2559
##FIRSTY=0.82899344
##XYDATA=(X++(Y..Y))
3997+968160598+967497904+966944916+966694596+966587673+966567556+966817737
3988+967325547+967598213+967184238+966364362+965904096+966148847+966818990
3978+967623412+968484984+969132156+969091642+968336435+967505491+967214866
3968+967448759+967798135+967997779+968034046+967993950+967992767+968084723
3958+968218306+968373886+968632768+969021614+969423198+969658065+969586575
3948+969242350+968904529+968847587+969067487+969385817+969654167+969712222
3938+969399739+968835892+968486168+968730710+969434754+970041203+970132045
3928+969811139+969538195+969684796+970158497+970535021+970604702+970511841
3918+970418493+970306420+970097309+969808564+969572374+969565970+969856525
3908+970335656+970898459+971505952+971960163+971929604+971444486+970938416
3898+970671737+970545602+970491654+970686773+971337286+972253572+972867052
3888+972941605+972720869+972387016+971893336+971422350+971481171+972209369
3878+972951838+973090363+972711402+972219741+971927794+971993785+972464353
3869+973172713+973859214+974483066+975117985+975643964+975781028+975476829
3859+974994844+974629596+974582261+975086382+976023970+976368056+975606514
3849+974321360+973243020+972747112+972767508+973076441+973620588+974370505
3839+974987187+975113043+974970759+974997002+975236811+975555280+975912314
3829+976238092+976342926+976066015+975475298+974938111+974892516+975251151
3819+975374084+975138799+975018860+975199360+975386683+975408054+975337956
3809+975331134+975591896+976075342+976352184+976256748+976135068+976246446
3799+976373207+976433072+976717084+977281140+977726858+977773567+977620005
3789+977643394+977980380+978456031+978746864+978617249+978209539+978032588
3779+978475174+979337164+980083878+980413276+980327377+980062856+979999440
3769+980256722+980478711+980341647+979937487+979583864+979616442+980266537
3759+981308401+981876564+981386783+980353063+979767010+980208203+981322950
3750+982038409+981968659+981696969+981921394+982828004+983512765+983059112
3740+981578421+979849847+978915531+979265604+980216905+981045621+981809181
3730+982568704+983205364+983803599+984440329+984797432+984648604+984388956
3720+984512167+984996241+985505443+985829481+985986941+986089199+986081333
3710+985727502+985093139+984596605+984557902+985017193+985740380+986332280
3700+986700939+987192460+987915786+988463414+988482278+988164853+988025840
3690+988390949+989052181+989465809+989412487+989061788+988607577+988115220
3680+987559448+987059016+987172203+988525089+990408269+991267683+991020356
3670+990678846+990935918+991483268+991697321+991433983+991027108+990844728
3660+990815770+990679403+990581112+990816745+991102706+990946986+990383557
3650+989887580+990095299+991175658+992379576+992990062+993088562+993260640
3640+993773392+994128616+993765526+992976071+992604558+992977393+993718887
3631+994591667+995684695+996574808+996657784+996214433+995778322+995536912
3621+995581393+996101037+996964002+997672570+998051113+998288347+998506159
3611+998711371+998941574+999203311+999479457+999834123+1000298845+1000769135
3601+1001125125+1001355467+1001557338+1001920288+1002566137+1003247696
3592+1003455415+1002951224+1001986627+1001154988+1000963488+1001269845
3584+1001560122+1001610799+1001527893+1001536107+1001839192+1002394129
3575+1002827108+1002850845+1002635469+1002476966+1002385428+1002229917
3567+1002001037+1001740901+1001477703+1001286065+1001187705+1001057115
3558+1000743936+1000173058+999356524+998489452+997900963+997661084+997410833
3548+996775496+995700915+994363135+992970363+991610447+990175908+988481443
3538+986524963+984521913+982607408+980649953+978490906+976185536+973875503
3529+971588928+969304999+967093535+965016767+962979956+960845829+958635966
3519+956496966+954528165+952689327+950817006+948781239+946675444+944741935
3509+943060000+941498839+940001233+938610410+937188402+935403025+933130233
3499+930673252+928467078+926601718+924724176+922570210+920368422+918388204
3489+916389540+914004605+911456921+909334350+907715342+905961360+903424883
3479+900097071+896358972+892354056+887929457+883067214+878012707+872959592
3469+867925411+862935781+858033582+853104582+847944336+842521867+837044752
3459+831812389+827127167+823286672+820503076+818823925+818168401+818371943
3449+819143996+820100726+821024043+822075931+823602356+825711563+828111394
3439+830380426+832384311+834301253+836231907+838044920+839718432+841519402
3429+843640303+845894021+847912385+849454890+850508031+851255442+851938881
3420+852674875+853441568+854209236+854984282+855790096+856698517+857825724
3410+859196847+860623659+861809548+862642510+863312027+864074682+865011713
3400+866081143+867213501+868276597+869139979+869908970+870946170+872530929
3390+874514696+876399825+877824340+878922520+880065389+881295272+882285833
3380+882862350+883278622+883951828+885109455+886619939+888003035+888817760
3370+889231108+889946220+891407211+893385688+895372657+896950803+897804718
3360+897924588+897779798+897818989+897938858+897846346+897640159+897644335
3350+897960646+898493587+899189903+900073472+901156477+902363597+903550252
3340+904692982+906007512+907704692+909661242+911464717+912768875+913536403
3330+914019502+914600334+915543421+916751725+917845588+918618407+919276855
3320+920106476+921159548+922397297+923756378+924924516+925464069+925314197
3310+924836319+924375844+924151697+924462440+925516973+927045974+928425311
3301+929279783+929776804+930296379+931021514+931928891+932967831+934077009
3291+935098129+935818671+936188304+936448161+936895340+937520027+938077610
3281+938495692+938939878+939528855+940265754+941126979+941947272+942450071
3271+942648252+942939434+943576025+944329840+944862153+945180553+945558818
3261+946152250+946819956+947283633+947433366+947458426+947647976+948113394
3251+948761540+949447971+950032493+950359037+950364119+950223783+950290679
3241+950788327+951559475+952224745+952616653+952889806+953167762+953365387
3231+953460336+953644665+954079036+954700034+955315184+955772806+956092110
3221+956491467+957139126+957840733+958185097+958040724+957740911+957764091
3211+958322161+959259191+960266250+961160957+961897996+962332715+962218414
3201+961628185+961139308+961270316+961860685+962299581+962248974+961908368
3191+961700650+961892845+962412072+962950789+963317777+963608750+963949565
3182+964246385+964317179+964149696+963966967+964066580+964520512+965011755
3172+965127657+964855131+964589705+964627017+964897385+965254488+965734315
3162+966360533+966927861+967192382+967141636+966939208+966746734+966701348
3152+966925703+967462681+968223178+968990359+969507915+969641985+969462668
3142+969176080+969053287+969327484+969987602+970730210+971244634+971450682
3132+971437595+971335058+971252152+971187414+971047705+970836645+970700138
3122+970741069+970902566+971031973+971022227+970998977+971301714+972048916
3112+972821387+973054862+972666573+972046550+971598535+971539992+971945475
3102+972663440+973279217+973454706+973301910+973209537+973316877+973398321
3092+973320009+973299474+973539283+973875155+973998784+973818352+973431177
3082+972932904+972368221+971689586+970751024+969519400+968268077+967399265
3072+967116785+967365991+967992419+968835614+969728163+970514904+971104368
3063+971488967+971739497+971952784+972138784+972188904+972067015+971972762
3053+972171501+972687665+973254157+973530860+973435354+973299822+973532879
3043+974080576+974497057+974571541+974548639+974685911+974934700+975108101
3033+975141653+975147152+975242032+975326191+975168314+974752738+974325606
3023+974035260+973743660+973219700+972378802+971380096+970598646+970360020
3013+970599551+970924633+971077498+971159848+971346335+971592966+971761215
3003+971867998+972056017+972390427+972784076+973098229+973271421+973346879
2993+973388088+973398808+973361915+973334001+973431734+973677251+973882394
2983+973765100+973203968+972283574+971032460+969164246+966121977+961354058
2973+954586847+945919889+935772031+924866669+914221025+904673282+895912071
2963+886243345+874327443+861740076+853173358+853078757+861895726+875796230
2953+889809365+900775706+907832985+911318604+911834699+909961891+906183906
2944+900783502+893891688+885785932+877166031+869124526+862790573+858850325
2934+857249208+857279697+857914756+858210045+857748386+856845047+856120539
2924+855849474+855891658+856113229+856570433+857327241+858347039+859643609
2914+861463791+864205203+868076188+872876407+878125128+883292405+887937531
2904+891852580+895161041+898166834+901054775+903806002+906416127+909054375
2894+911856696+914613352+916859413+918277802+918835175+918472155+916735227
2884+912765882+905859102+896342127+885943044+877070177+871536260+869746707
2874+870789058+873193484+875826163+878292473+880652904+882957786+885143773
2864+887162137+888987749+890605016+892097123+893589856+895037273+896264928
2854+897320784+898576354+900394587+902845443+905785802+909068715+912552803
2844+915973824+919027092+921672371+924177732+926753539+929304565+931587728
2834+933439514+934859434+936031540+937209006+938469240+939665013+940621326
2825+941289033+941781529+942359298+943263403+944487578+945819997+947101601
2815+948312132+949432378+950415213+951322520+952285933+953251643+953956869
2805+954273529+954401543+954615735+954995671+955481833+956045123+956705520
2795+957444438+958175003+958819321+959380871+959917709+960531954+961371739
2785+962462679+963526749+964184849+964358945+964293651+964244784+964309661
2775+964485289+964768187+965195806+965771418+966350788+966746316+966990024
2765+967318586+967849369+968426790+968830115+969015488+969112247+969264277
2755+969495245+969678670+969649503+969393683+969057255+968719851+968283322
2745+967678892+967027683+966463279+965930687+965319574+964727465+964458907
2735+964753082+965552074+966545768+967410473+967989843+968308591+968512898
2725+968811668+969376072+970201307+971084390+971792192+972238049+972449596
2715+972474656+972462335+972700821+973323907+974070552+974567016+974721483
2706+974665794+974529426+974477706+974720717+975268484+975858574+976232245
2696+976320581+976185188+975983317+975944753+976178645+976556979+976900996
2686+977163428+977372678+977552692+977740641+977930052+978005858+977892879
2676+977717252+977685509+977867472+978196034+978575970+978924998+979185830
2666+979341271+979380183+979259687+978962449+978588500+978334073+978304558
2656+978354608+978243091+977962490+977732427+977657247+977644717+977697273
2646+977983095+978536640+979132926+979554558+979802929+979971318+980081164
2636+980140124+980245584+980492076+980835466+981184355+981562202+982051287
2626+982653281+983315906+983981037+984515439+984755109+984739516+984745224
2616+984981692+985366570+985682394+985851270+985955407+986068942+986208512
2606+986451941+986935527+987614023+988153785+988233211+987904300+987492761
2597+987224829+987146308+987293257+987644304+987970291+988051944+988017139
2587+988178079+988568317+988882122+988865625+988575556+988259524+988151905
2577+988452485+989300065+990525145+991517447+991703029+991216032+990766903
2567+990782357+991053491+991318638+991705257+992355073+993028209+993408284
2557+993525996+993612870+993775968+994011322+994359306+994875052+995503986
2547+996049525+996314533+996308199+996245549+996283835+996336391+996183804
2537+995733284+995147022+994679725+994399124+994209504+994125344+994300207
2527+994791659+995458530+996012423+996130274+995753679+995267796+995110754
2517+995286104+995501062+995596011+995614319+995640005+995720475+995798857
2507+995713584+995425186+995188092+995304968+995746718+996188677+996377810
2497+996289543+995981724+995527862+995099965+994926912+995104211+995499600
2487+995884548+996167376+996451945+996832020+997202140+997305860+996906851
2478+995982420+994894126+994207416+994127711+994294081+994304105+994209225
2468+994292480+994583940+994861687+995034461+995242667+995553479+995842572
2458+996103404+996556013+997214879+997660249+997575393+997248849+997183345
2448+997420857+997638739+997742111+997949969+998399306+999047522+999859044
2438+1000738367+1001398068+1001651869+1001725796+1001971452+1002389604
2429+1002703340+1002786942+1002741626+1002646050+1002522909+1002487755
2421+1002652385+1002911407+1003067752+1003133186+1003271781+1003483329
2412+1003549250+1003339722+1003046521+1003009697+1003332204+1003766923
2404+1004006732+1003971230+1003802007+1003697173+1003762259+1003923895
2395+1003965383+1003694249+1003127130+1002508291+1002065357+1001752944
2387+1001379204+1000979429+1000814730+1000963837+1001168979+1001174827
2378+1001074448+1001272769+1002121603+1003513331+1004870810+1005702798
2370+1006087676+1006459467+1007160100+1008324061+1009764099+1010784106
2361+1010670571+1009604691+1008543196+1007998422+1007599761+1007088261
2353+1006920151+1007441814+1008272897+1008862431+1009027408+1008889161
2344+1008631114+1008430844+1008548138+1009216611+1010301007+1011271799
2336+1011715498+1011714175+1011532004+1011138425+1010337065+1009202131
2327+1008081050+1007251499+1006777728+1006607251+1006690784+1006958228
2319+1007197898+1007194557+1007056728+1007085547+1007295005+1007443276
2310+1007515323+1007663803+1007731813+1007384803+1006711249+1006260659
2302+1006449861+1007143323+1007821123+1008119336+1008217766+1008603061
2293+1009434631+1010366511+1011083084+1011696912+1012413207+1013036014
2285+1013156928+1012783814+1012382439+1012175068+1011853954+1011270476
2276+1010866803+1011060530+1011777939+1012829200+1014014393+1014783871
2268+1014713633+1014313163+1014469717+1015188936+1015607436+1015068996
2259+1013742215+1012433463+1012029721+1012830662+1014237148+1015295371
2251+1015696746+1016063317+1017007099+1018111961+1018374046+1017642506
2242+1017024989+1017696385+1019641728+1021647005+1022464166+1021980093
2234+1021182701+1021046055+1021643385+1022286519+1022332532+1021865026
2225+1021601271+1022078870+1023025507+1023539095+1022828787+1020938437
2217+1018900791+1018042560+1018988500+1021171981+1023189719+1023960240
2208+1023871069+1024393637+1026267768+1028546337+1029677581+1029091320
2200+1027598517+1026483283+1026168364+1025906488+1025172512+1024850144
2191+1026053297+1028124565+1029147774+1028446933+1027279073+1026926425
2183+1027418642+1028284809+1029236110+1029808937+1029521932+1028640033
2174+1028001424+1028004487+1028355951+1028696487+1028978202+1029242793
2166+1029371573+1029283028+1029409232+1030713181+1033812739+1037788210
2157+1040471636+1040570135+1038749257+1036581438+1035159986+1034672572
2149+1034818754+1035203771+1035438986+1035273939+1034645632+1033534923
2140+1032106788+1031009862+1031009305+1032211413+1033950151+1035321553
2132+1035611412+1034576648+1032760642+1031312181+1031050723+1031666709
2123+1032031678+1031361048+1029991735+1028902953+1028599171+1028729204
2115+1028759485+1028663979+1028770901+1029185712+1029675354+1030030090
2106+1030265723+1030464322+1030627072+1030701347+1030639741+1030523909
2098+1030694038+1031477298+1032676274+1033718417+1034423435+1035118081
2089+1035902872+1036362721+1036161964+1035440100+1034558828+1033860284
2081+1033535549+1033362984+1032886568+1032148903+1031760266+1032006618
2072+1032501412+1032901465+1033391803+1034303147+1035612735+1037013582
2064+1038462739+1040325035+1042539284+1044117848+1044251083+1043398420
2055+1042400272+1041217376+1039599970+1038362499+1038894465+1041515797
2047+1045029888+1048027467+1049775115+1049769476+1047831721+1045116901
2038+1043816155+1045126299+1048011387+1050252923+1050524126+1049410841
2030+1048505345+1048470539+1048431070+1047836455+1048038326+1050553502
2021+1054342068+1056546989+1055899957+1054185862+1054155720+1056423291
2013+1058603500+1057782441+1054162960+1051332099+1052008924+1054777901
2004+1056317065+1055537842+1054040305+1053597651+1054366641+1055286686
1996+1055614275+1055615249+1055849420+1056306484+1056540585+1056506963
1987+1056784919+1057657838+1058238670+1057204463+1054554242+1052006766
1979+1051353956+1052616835+1054083116+1054448712+1054304339+1054950466
1970+1056537940+1058065618+1058652854+1058238948+1057454853+1057281870
1962+1058382068+1060195429+1061135244+1060295111+1058379562+1056559380
1953+1055293926+1054706272+1055052864+1056055746+1056674098+1056304674
1945+1055536867+1055230998+1055392843+1055365068+1054804353+1053920436
1936+1053013338+1052285348+1052065170+1052758354+1054338936+1056155220
1928+1057428192+1057851634+1057640226+1057087656+1056276899+1055305481
1919+1054545958+1054396573+1054870832+1055681449+1056577061+1057312916
1911+1057609946+1057459447+1057270315+1057459308+1058020510+1058640533
1902+1059103862+1059413491+1059601510+1059678986+1059748597+1059898539
1894+1060018130+1059973718+1059891160+1059999266+1060214641+1060192087
1885+1059839370+1059503985+1059638751+1060373145+1061403315+1062246858
1877+1062652410+1062786968+1062987586+1063414022+1063965269+1064362120
1868+1064346806+1064049707+1063935685+1064258818+1064820298+1065209423
1860+1065179490+1064748042+1064026736+1063231711+1062801795+1063112816
1851+1064029938+1065016392+1065648318+1065857777+1065748419+1065285507
1843+1064348407+1063224611+1062547159+1062620877+1063143514+1063677777
1834+1064186632+1064814730+1065401409+1065370850+1064239605+1062291757
1826+1060301655+1058826811+1058017517+1057819056+1058163142+1059000003
1817+1060234620+1061593839+1062721186+1063524355+1064208002+1064920677
1809+1065573905+1066005491+1066180771+1066276625+1066521168+1066874721
1800+1067054317+1066932080+1066647163+1066434294+1066580546+1067293499
1792+1068377339+1069328292+1069977551+1070509377+1070961778+1071093133
1783+1070778980+1070310082+1070017925+1069921097+1069978874+1070266784
1775+1070796870+1071518873+1072365131+1073107599+1073554500+1073741823
1766+1073674857+1073315109+1072761634+1072136390+1071502375+1070953216
1758+1070400715+1069490206+1068144143+1066705079+1065344189+1063968611
1749+1062652341+1061628575+1060997832+1060724331+1060629313+1060491553
1741+1060234620+1059833662+1059284989+1058686755+1057846692+1056043773
1732+1053175809+1050157695+1047458956+1045132216+1043190911+1041436441
1724+1039699513+1038124639+1036751776+1035151981+1032530718+1028110713
1715+1022085066+1015371734+1008138618+999865936+990102051+977996948+961784252
1706+941260771+919326279+896575880+868846848+835865267+805721021+779586146
1696+751161773+720874895+692658658+665431729+638130247+614271645+596414395
1686+581596873+565452500+548518150+533911653+522143396+513734416+511215307
1676+517679014+532680517+552130009+574609449+601380775+629803338+654178592
1666+673784116+691808850+710284591+728076407+743186329+755736662+766797187
1656+777506316+790584508+807897889+822580122+830317637+835430548+841805224
1646+850395053+859693242+868644908+877287363+885421172+892440373+897491540
1636+898548509+892797755+881033118+867415930+856702972+854249053+862930421
1626+879639162+898775162+915874351+927327480+932081199+931880720+928425311
1616+922531019+914653795+903881529+887532536+863088646+831381081+798160178
1606+771159067+755697263+752995669+760826254+775128969+792078982+809337579
1596+825860182+841178657+855007532+867373258+878669554+889104974+898279394
1587+905567363+910543141+912879487+912341187+909054584+903064647+892907392
1577+875739428+852538856+829056290+806617399+782176293+756250251+735833204
1567+725861114+724999124+729884895+737751190+748705418+766477812+789562831
1557+807513916+819948209+831547033+843601251+855745685+867543805+878191467
1547+887240032+895295598+902918813+910018971+916995223+924203975+930064157
1537+933889339+936966204+940504728+944479712+947791583+950019267+951788355
1527+953743652+955946763+958198532+960617993+963334762+965987002+968277475
1517+970332385+972181525+973670847+974813299+975762860+976578628+977188488
1507+977381936+976934478+976151148+975581802+975549851+976166254+977408667
1497+979260731+981532200+983711365+985488319+986915757+987984143+988402295
1487+988009899+987023306+985591830+983553070+980670976+976903710+972280720
1477+966681230+959826449+950962702+938659625+922784403+905939224+890101730
1468+874970438+859661847+844248562+830127670+818575554+809880404+804553857
1458+804263233+808925622+814719396+819724897+824543215+829684945+835174381
1448+840681706+845502043+849183895+851908670+853950980+855462995+856787062
1438+858494266+861017099+864286995+868184293+873068185+879103856+884847440
1428+887116124+883305631+874206529+865501564+864788750+876034856+896819865
1418+917926755+931106996+936747487+938797454+940316153+943284634+948306703
1408+954585315+960891146+966044779+968836449+968254155+963369150+953397199
1398+938930341+922141199+905442481+891202903+880865843+873466706+866603433
1388+857945524+845846407+830420104+814950017+805848478+809526572+826773475
1378+850880240+872968780+887642869+894395601+896938760+900260865+906601640
1368+914216292+919116611+917605501+906847923+885176072+855073941+823807430
1358+799047367+786002379+786799283+799855479+820706897+844446674+867210021
1349+886219259+899891510+908083931+911835882+912835214+913109202+914946161
1339+920384223+930172054+943504743+958754026+974111762+988028485+999585961
1329+1008558998+1015184133+1019847845+1022803518+1024062499+1023473940
1320+1020772972+1015514088+1006903166+993530312+973474893+945436790+910288365
1310+871382281+833531288+801932803+780952327+772534019+775625085+787300551
1300+804420762+824642759+846609480+869469726+892030088+912150244+926545472
1290+930974945+922136118+901646397+877549656+858965879+848864939+843441007
1281+837425871+828258412+816498856+805052549+798206191+799568334+809908874
1271+826859235+846573422+865732672+882385655+895618940+905138352+911378470
1261+915627232+919551818+924317301+930068125+936208560+942096378+947382411
1251+951793924+954898842+956270035+955826754+953993415+951624491+949751753
1241+949151290+949866262+951095449+951746658+951202998+949473031+946696467
1231+942799725+937662103+931368176+924122670+915960598+906676193+896112202
1221+884435275+872051728+859374146+846751974+834495606+822832322+811854913
1211+801524675+791724245+782392783+773660530+765790406+758980663+753254551
1201+748474102+744397765+740772645+737311806+733396201+727812164+719119381
1191+706621046+691093112+674532641+659116153+646169177+635796825+627216393
1181+619401680+611641263+603791674+596148482+589131090+583172547+578888875
1171+577117211+578549070+583308045+590945494+600726851+611714215+622574469
1162+631557599+636995244+638232923+636482282+634796518+636752581+644602587
1152+658331361+676129929+695519799+714306980+731171441+745820609+758586040
1142+769734761+779093163+786294466+791383361+795177844+798940515+803530440
1132+808681567+812820414+813301842+806789059+789870928+760520662+720582460
1122+677477385+642265614+624130826+625676046+642996318+669465603+699166290
1112+727806178+752022719+768724778+775170248+769690280+752596799+726429486
1102+695149401+663203628+635355005+616367973+609416711+614453537+628559811
1092+647831691+668844049+689052750+706657592+720345226+729248443+733365572
1082+734038639+733711050+734782847+738309189+743475074+747968240+748723656
1072+743074464+730670800+715098593+702993907+700342712+708866898+725622418
1062+745720160+765310161+782619783+797322273+809587203+819541195+827174781
1052+832432691+835155238+834854658+830639448+821594016+807803497+791574234
1043+777238314+768502999+765343505+763789166+758881607+747594152+729354182
1033+705152677+677073294+648254925+622413877+602856036+591504469+588370731
1023+591765579+599197642+608366215+617649925+626022429+632811706+637719126
1013+641000787+643370407+645645356+648535734+652592511+658084800+664891410
1003+672577970+680622747+688669543+696639837+704595930+712568729+720552249
993+728530130+736425592+744097116+751398937+758234227+764580850+770462124
983+775885151+780852088+785409296+789651933+793723258+797754626+801709283
973+805374220+808613279+811541734+814396263+817294368+820173748+822959988
963+825678289+828301222+830677943+832794249+834869764+837029090+839169621
953+841257735+843450126+845849470+848342719+850705935+852822520+854821602
943+856951761+859306763+861753790+864086168+866161822+867948034+869535299
933+871112331+872749437+874057005+874085964+871004713+861020023+839243896
924+805481699+769426246+745427447+739903206+747005106+757599516+768521237
914+781632703+797911807+815441538+831541952+844675832+854553391+861456413
904+865545488+866221966+861617283+848947567+826885339+799169395+775312533
894+765317679+772344886+791031340+812853828+832041896+846894467+857924223
884+866137180+872333861+876977804+880286891+882254578+882553626+880097689
874+871671584+851328533+814927254+768819936+731781440+722689578+744739136
864+783988122+822701871+851326932+869396704+880316893+887385936+892596650
854+896813600+900257523+902900575+904816402+906377493+907998589+909784522
844+911633524+913497839+915304865+916791542+917705462+918206311+918859051
834+920081417+921741216+923410482+924792047+925784348+926420869+926886356
824+927410525+928111227+929047144+930298815+931793985+933162115+934071719
815+934738242+935728455+937148515+938432833+939063855+939097895+938922336
805+938868457+939072556+939472261+939935103+940399825+940868096+941412522
795+942181234+943171517+943992367+943900411+941982077+937436773+930096457
785+920895932+911338444+901406588+888192585+869323752+849299658+839262899
775+847013710+868861188+893824444+913736047+927085513+935760476+941555781
765+945458439+948084157+949938170+951419766+952650902+953283942+952477989
755+948688796+939154140+921204586+897117799+877331914+874167756+890156653
745+915484670+938042595+952910411+961704409+967169619+970692620+972696227
735+973186426+971718892+966929810+955909451+934293359+898208530+847960556
725+790409715+736875068+698645880+683983555+695635353+728302920+770544891
715+811389008+845150508+871218626+891251491+906887949+919091134+928515596
705+935883269+941956391+947234558+951714915+955181601+957832101+960297436
696+963027779+966003709+968917476+971403833+973271142+974392084+974010409
686+969824435+956771790+927372031+878311615+820458038+778018094+770748711
676+797140589+838152677+874778451+899995787+916415992+928176731+936604158
666+942269570+946997463+951815781+956316187+959713123+961923126+963479413
656+965022823+966974779+969209981+971234331+972815749+974064287+975038977
646+975765853+976468226+977367736+978316252+978841744+978610636+977317059
636+972937776+960522696+936389688+905862025+883330761+880329005+894852735
626+915091578+931354323+941643421+948214886+953133722+957210337+960512672
616+962855144+964194943+964806055+965184320+965773019+966695709+967818461
606+969001148+970140676+971166670+972063674+972669496+972613460+971713044
596+970107054+967756925+964071244+957964988+947961781+932221186+908664137
586+875642182+833551962+786461393+742270529+710421237+696984967+700973942
577+716217934+736180214+756737804+775951838+792985383+807664345+820025477
567+829763745+836707001+841436565+844431429+845263417+843748478+841108559
557+838872592+837207920+835093980+831660638+826837656+820983739+814402180
547+807384927+800314771+793174586+785220511+775611302+763812555+749107699
537+731166220+712124334+696662321+688589004+687912805+691656193+696786855
527+701953505+707182248+712841325+718902334+724813333+730044860+734798649
517+739752081+745061573+750340575+755439981+760605031+766003972+771275247
507+775670262+779033994+782176084+785439368+787387843+785361960+776330312
497+757905595+732012687+707626156+695833744+700702112+716547332+734447184
487+749207381+760112952+768440627+775408526+781314582+786074218+790206522
477+794611073+799553229+804659179+809639759+814133134+817486911+819720164
467+821764980+824198921+826759553+829294777+832009457+834770012+837199010
458+839166349+840487701+840576176+838414553+832453087+821620468+807425650
448+794699549+789546681+795421273+810936399+831353794+851944310+870414692
438+886391824+899891928+910966652+919960015+927386022+933364543+937430438
428+939346614+939052717+934671207+922440038+899426858+863825893+817728113
418+775610675+752325248+745935467+748702286+756098290+765860783+776390664
408+786177659+793745115+798259304+799758441+798533431+794951888+790550329
398+788874868+792370929+798971213+805521308+810494788+813197914+813698485
388+813588848+815723531+821887843+830138877+836889659+841707560+846945352
378+854837264+865701208+875585867+878730463
##END=
