##TITLE=X7389
##JCAMP-DX=5.0
##DATA TYPE=LINK
##BLOCKS=1


$$ === CHEMSPECTRA SPECTRUM ORIG ===
##TITLE=X7389
##JCAMP-DX=5.00
##DATA TYPE=INFRARED SPECTRUM
##DATA CLASS=XYDATA
##ORIGIN=ComPlat
##OWNER=
##XUNITS=1/CM
##YUNITS=TRANSMITTANCE
##XFACTOR=1
##YFACTOR=9.1124064e-010
##FIRSTX=3997.453
##LASTX=373.96442
##MAXX=3997.453
##MAXY=0.9784371859852867
##MINX=373.96442
##MINY=0.6349068885827808
##NPOINTS=2559
##XYDATA= (X++(Y..Y))
2559A038892976A038642323A037888599A037222524A036760334A036574307A037104197
2552A038363348A039499919A039759599A039264245A038641015A038355498A038306964
2545A037850137A036580848A035007400A033903468A033390454A033255251A033588975
2538A034475744A035315875A035008054A033253223A031486749A031475629A033051366
2531A034672825A035662551A036170332A035608914A032847613A028068857A023691460
2524A022344005A023346159A023423605A021724569A021499099A025229389A030840755
2517A034821373A035392929A031979158A024952312A017332193A014185689A017196466
2510A022163800A024005888A022136981A020256562A020565757A020750411A018298370
2503A014908082A015176984A020879139A028784251A034776566A037213040A036060377
2496A030720204A020238051A005979558I93159767I87127159I88412278I94923559
2489A004953007A015418872A021811695A021132343A014889309A010041022A011460821
2482A014652785A013230893A007583225A003232320A001508035A000602297A003339854
2475A011691262A019376661A019661850A012883498A004088150I96603299I92617384
2468I94485375I98974297A000011118I97671386I98544027A005505986A013437394
2461A016854435A013594248A002270852I83249105I69471052I76936344I96421851
2454A013474939A022714556A023643449A018035682A008849114I98632789I88979517
2447I82756238I83998186I91910035A000700674A006902041A011108390A014359877
2440A015902713A015223164A013740702A011712521A005863258I95116128I87659077
2433I90190984I96991118A003283078A011495685A022111210A030234728A031663226
2426A025659857A015666320A008186768A004911798A000603082I93449862I90185359
2419I94694885A002254041A010165368A019362794A028689406A035152611A037816843
2412A037829010A035970372A032528017A029287061A028298579A028318464A026515425
2405A023838895A024652143A029635764A034598715A035623370A031568970A024500064
2398A018970070A017519790A018320675A019645171A021139865A020658117A015558850
2391A007803332A003696276A004902248A005660224I99754185I85371412I69338007
2384I64022232I68974129I74164381I76141804I79699674I88149263I96542795I99067768
2376I92548049I77796950I64116881I64779292I80303084I98718542A010502559
2369A013056313A008330736A001446549I97917330I99461997A004592006A011552985
2362A018476941A022812279A021958215A014222973A001026811I90728069I93224327
2355A006074795A019627706A028108169A029930046A026481477A022720639A023449376
2348A027702624A031372607A031867634A028295832A020168520A007968362I96119458
2341I93270834A002118576A015416648A026292245A031664403A030465103A023357082
2334A011660258I96083483I81561712I78849730I86407056I91776402I92053284
2327I96430747A009488043A024050956A033862913A038230891A039181501A038135915
2320A034447944A027505935A020023897A015067487A009400066I96386725I74991365
2313I58716922I64500775I85718284A006474519A020239817A027479182A030933246
2306A032542866A032402299A030173961A026463097A021899607A014978202A003235983
2299I90778042I90501356A003520518A017187766A023585888A020997990A011150187
2292A000345365I96216397I98152611A000197864A000777793A002190986A004467072
2285A005790914A007834205A013858114A021917595A026628650A025687591A021747266
2278A018855994A017876538A017328530A017355675A019693575A023298605A023196761
2271A015383616A003273005I98263939A005438024A017021820A025440405A029331867
2264A030664213A031540581A032831653A034322880A035312540A034474109A029266849
2257A017022343I99421900I87011317I90073703A003800867A017106461A025577178
2250A030861098A034954483A037028778A035376969A030817992A026974999A026358571
2243A026786747A024263736A018798498A015371907A018164410A025659922A033299730
2236A037757254A038360339A037023873A036661106A038246655A039863863A039027329
2229A035196894A030056615A025695505A023058745A022638549A025223438A030541306
2222A036418892A040586256A042480215A042793335A041978844A039783604A036347529
2215A033445987A033332631A035454938A036292649A033839170A030729819A031149035
2208A035259687A039497107A041310088A041324216A041465241A042207061A042382295
2201A041253442A039691441A038976832A039002146A038429216A036697475A035315614
2194A036510139A040403434A044517030A046367753A045745438A044291103A043436319
2187A043356518A043585651A043845658A044035937A043864627A043079636A042026724
2180A041397083A041446795A041908201A042384388A042481588A041948755A040808717
2173A039041785A036593472A034209981A033372859A034482023A036159474A037101384
2166A037363942A037448844A037329797A036949043A036683869A036703296A036551021
2159A035851718A034881549A034110361A033612719A033017745A031776321A029810541
2152A028151209A028200201A029975179A031889808A032441741A031394128A029382037
2145A027087505A025011247A023570647A022882857A022494907A021743799A020339961
2138A018173960A014886366A010317512A004950129I99167061I92531042I84432380
2131I74931646I64551991I53821082I43434233I34503485I28241809I25258636I25199112
2123I27267913I31060476I36596488I43560213I50879117I57259316I62066852I65536353
2115I68242775I70637647I72910986I74906201I76333849I77291065I78193925I79080368
2107I79508937I79226168I78488534I77737034I77222384I76810233I76081757I74852041
2099I73432308I72072425I70449657I68157545I65414689I62864206I60880242I59405498
2091I58286522I57434551I56664474I55569242I53784518I51545780I49780287I49247389
2083I49674126I50112442I50022372I49597138I49139069I48585828I47762834I46766960
2075I45925716I45639218I46402820I48467500I51198059I53396700I54581413I55396493
2067I56669576I58649157I61059793I63369632I65236380I66976167I69217913I72019181
2059I74734760I76722714I77897943I78750372I79982966I81978050I84559211I87225994
2051I89446090I90855946I91585469I92395119I94087025I96648890I99252684A001154884
2043A002312060A003094042A003827489A004771950A006150868A007937946A009742293
2036A011029505A011569599A011760597A012318025A013485209A014802183A015732646
2029A016175671A016362745A016623994A017225770A018202806A019403872A020721892
2022A022054303A023101131A023563321A023550959A023524729A023844194A024535386
2015A025404298A026173198A026600001A026687389A026746847A027051071A027450336
2008A027590249A027528502A027782294A028625042A029698885A030538232A031064394
2001A031298890A031051442A030274824A029387859A028884395A028803940A028879685
1994A029094166A029724068A030744275A031647331A032180492A032742106A033573603
1987A034107679A033758257A032854742A032180426A032038093A032267946A032726145
1980A033276771A033618867A033546196A033308429A033390389A033888881A034383711
1973A034555087A034625076A034973190A035562015A035972335A035876574A035355514
1966A034822550A034670732A034950493A035364606A035554035A035402806A035146135
1959A035161311A035565612A036072151A036288725A036058088A035506874A034909284
1952A034461288A034091392A033629333A033190298A033081913A033305551A033511005
1945A033407264A032902558A032076685A031332511A031194626A031657666A032195471
1938A032582177A033122010A033962076A034795078A035320912A035479205A035304952
1931A035039189A035161572A035797689A036269233A035733063A034218158A032679050
1924A032032141A032408447A033330538A034373115A035427204A036299060A036480377
1917A035748369A034692710A034103755A034071769A034208542A034397055A034758906
1910A035205332A035478028A035374744A034806590A033955142A033187289A032424865
1903A031022269A028713543A026148799A024054096A022365656A020582568A018598931
1896A016968838A016505078A017541506A019477851A021246876A022262569A022743140
1889A023260733A024250327A025760392A027354052A028453994A028992518A029398979
1882A029787386A029684037A028760376A027315983A025944850A025203619A025452244
1875A026454070A027356865A027517120A027068405A026454332A025881009A025417576
1868A025087254A024655937A023721222A022214297A020661911A019776646A019733933
1861A019962542A019802025A019164143A018264357A017027511A015284781A013365508
1854A011892138A011007592A010226330A009093683A007719410A006596117A006069497
1847A006120844A006617506A007538681A008740925A009659549A009573796A008179245
1840A005775674A003077951A001012878A000427651A001647687A004275158A007441416
1833A010291872A012405086A013828941A014691246A014968260A014708646A014137089
1826A013395597A012441193A011175894A009458216A007168392A004540659A002307089
1819A001326260A001976505A003786019A005698031A006875027A007190959A006876073
1812A006004741A004555507A002747628A001074233A000030479I99879773A000660381
1805A002298586A004593445A007173495A009626451A011653193A013086598A013943540
1798A014465777A014936993A015493832A016215506A017224331A018553405A020048165
1791A021463712A022558355A023190482A023528588A024036370A024979261A026088033
1784A026971924A027652716A028363073A029076178A029579380A029806158A029839518
1777A029773257A029728058A029842854A030129809A030414803A030490025A030340038
1770A030152180A030048962A029900153A029516586A028980286A028638778A028696078
1763A028901990A028854044A028506715A028052832A027506851A026876294A026466498
1756A026479253A026609224A026458714A026013269A025464410A024934128A024524985
1749A024399921A024750586A025662800A026917372A028086714A029019598A030027180
1742A031405640A032988572A034347605A035251381A035730381A035858913A035762105
1735A035711674A035890768A036167912A036371142A036539901A036665685A036515437
1728A035962915A035221161A034592698A034216326A034112978A034282456A034650848
1721A035036638A035316660A035603027A036089680A036727825A037205321A037238419
1714A036828034A036291276A036046772A036277736A036809326A037316323A037560107
1707A037485409A037239662A037082480A037201070A037607792A038181637A038752670
1700A039155075A039222906A038878520A038355040A038115573A038336136A038716106
1693A038956031A039062650A039081685A038966366A038799243A038748550A038811605
1686A038911487A039118053A039470615A039743835A039696870A039447852A039336459
1679A039486706A039703411A039757963A039618966A039413577A039265161A039180716
1672A039093001A039016536A039072070A039294923A039513525A039519215A039305454
1665A039062127A038935427A038873353A038769088A038679672A038731543A038882379
1658A039013527A039198050A039558788A039943075A040103461A040125701A040281901
1651A040540665A040591946A040318858A039930581A039643626A039459888A039297212
1644A039173914A039147292A039133359A038960152A038647163A038463622A038643892
1637A039169139A039868049A040548906A040967533A040878509A040312382A039676070
1630A039337701A039207404A038945108A038477554A038052452A037870022A037907764
1623A038071028A038328745A038656910A038935820A039013069A038904096A038809316
1616A038892387A039196480A039724212A040327884A040594955A040229507A039520000
1609A039075209A039136368A039435686A039654288A039716559A039655138A039485463
1602A039286550A039193341A039253584A039459038A039898661A040667299A041625235
1595A042426578A042778748A042620128A042142370A041675339A041413174A041258152
1588A041075526A041005929A041269533A041716613A041943588A041900875A041948363
1581A042173898A042163236A041713801A041271037A041306228A041702419A042101619
1574A042473674A042975960A043507355A043720593A043415388A042744211A042055112
1567A041640018A041635831A042060738A042797586A043555104A044030573A044193052
1560A044264938A044406487A044597420A044812685A045068767A045288546A045323672
1553A045102257A044658905A044138631A043792283A043759512A043869794A043895697
1546A043904134A044098796A044437360A044684416A044715813A044519320A044044309
1539A043397465A043046211A043354948A043951099A044115149A043848012A043915254
1532A044669894A045437355A045312487A044111158A042343114A040697192A039740564
1525A039698244A040298254A041066892A041805048A042554456A043218895A043547059
1518A043448289A043121957A042909438A043054976A043494665A043869663A043777238
1511A043002386A041677367A040385969A039860658A040334229A041339915A042232375
1504A042767301A043173696A043751663A044427418A044861743A045017682A045189384
1497A045358078A045064189A044108084A042865090A041813616A041233623A041357641
1490A042234075A043333298A043800328A043396746A042908719A043359135A044908708
1483A046638160A047350676A046626713A045178395A044179905A044262649A045124628
1476A045917991A045927475A045070010A043896285A043101352A043020636A043543331
1469A044420811A045558299A046861667A047840861A047909084A047295208A046937740
1462A047057506A046712662A045369394A044036787A044017556A045148306A046101663
1455A046131163A045774677A045843554A046371873A046827000A046942187A046887701
1448A046748246A046338253A045671328A045124693A044858996A044538616A043960715
1441A043473995A043445738A043800721A044341992A045034296A045728170A046045868
1434A045796785A045229219A044688863A044247147A043832575A043553338A043662312
1427A044230990A044962737A045363180A045157856A044542737A043882222A043258795
1420A042594094A042061915A042024173A042674288A044037572A046171522A049149463
1413A052879558A056900795A060429165A063045320A065272807A067848147A070612392
1406A072753929A073741823A073490974A072209649A070443175A068708229A066785096
1399A063754631A059270092A054746764A052396633A053340178A057164334A062460813
1392A067531299A071109969A072555409A071946961A070369326A069033645A067968044
1385A066443327A064312778A062120875A060286308A058791876A057415575A055855929
1378A053781895A051107066A048283494A046076350A044862921A044358802A044036264
1371A043505458A042574210A041366340A040356403A039967080A040202951A040759659
1364A041261488A041484930A041695486A042540654A044174410A045688924A045892677
1357A044672249A043257356A042954702A043706726A044207377A043579764A042464516
1350A042107114A042911858A044376725A045951873A047380634A048459121A049060374
1343A049350403A049570248A049634023A049245093A048376965A047385866A046649868
1336A046260545A046105588A046193761A046781605A047973645A049234627A049709376
1329A049160582A048201207A047421973A046726529A045897190A045327269A045488898
1322A046039720A046352251A046631488A047515052A048870029A049941387A050465455
1315A050933794A051859024A052880081A052659779A050362434A047179300A045234124
1308A045145494A045855851A046408962A046598848A046341523A045750344A045586949
1301A046614612A048521653A050094055A050498553A049948647A049119177A048698981
1294A049431970A051418223A053398263A054021689A053750302A054083633A055137526
1287A055441815A054012859A051444649A049020996A047624222A047427664A048022637
1280A048762821A049120420A048760009A047719067A046821636A047244907A049095695
1273A051072595A051997760A051867462A051150759A050308535A050147364A051298261
1266A053029348A053709616A052927635A052186338A052934895A054735252A056355272
1259A057699064A058876844A058811041A056408124A052271830A048645148A047893386
1252A050454662A053789613A054478385A051909652A048705391A047572809A049080520
1245A051966494A054175208A054071794A051746845A048835362A046767672A045781152
1238A045564120A045990008A046875861A047600478A047499746A046477446A045007674
1231A043744337A043316945A044156030A046090674A048274270A049806183A050328355
1224A049997770A049292319A048899922A049226974A049894291A050165941A049809846
1217A049024071A047851916A046392413A045311832A045399875A046611472A048045792
1210A048912611A049069335A048618134A047697678A046765056A046327656A046346691
1203A046644897A047607739A049424906A051030078A050984094A049134680A046584262
1196A044460581A043367704A043531033A044833355A046818823A048918824A050743515
1189A052177769A053313621A054288956A055035028A055109007A054116404A052566504
1182A051651346A051667372A051811798A051970418A053077621A055209412A057195404
1175A058627369A059868597A059711089A056219872A050683599A047230844A047982410
1168A051356214A055053997A058276049A060751965A061536236A059693755A055832643
1161A052162267A050253067A049639387A049566912A050468398A052522155A054415722
1154A055008995A054698884A053779802A051496520A047960170A045160473A044764085
1147A045841722A045895163A043898640A041421285A040644078A041813879A043433049
1140A044462478A045194552A046232223A047443689A048053576A047453959A045805747
1133A044119662A043892949A046225158A050628522A054484664A054597694A050468660
1126A045780302A045041099A048513215A052600844A054758407A055363912A055248593
1119A053880468A050609489A046364940A043351285A043038035A044546923A045408313
1112A043891641A040154024A035747977A033064252A034005704A037774654A041753963
1105A044530112A045977449A045884501A044423951A042854493A042325584A042736558
1098A043006311A041638775A037855108A033290965A031010626A031603179A032971696
1091A034331710A037028321A040858821A043202869A042418467A039879758A038470359
1084A039496060A041751085A043542349A044402627A044580609A044027433A042550662
1077A040427112A038558794A037982920A038436215A037867471A035170926A032732425
1070A033765714A037668362A041507627A043941549A045136140A045342706A045058498
1063A044995835A045205868A045107425A043835323A039903044A032029655A022150718
1056A016774765A020483536A029559169A037514124A041451047A042185999A042006839
1049A042625426A044246166A045973982A047013550A047083082A045632147A041804525
1042A035557175A027859413A020508981A017183646A020986019A028936069A035308680
1035A037911034A038506858A039410634A039960736A037301475A030513376A023308875
1028A020631560A021995237A024067309A026849999A031911132A037757124A041242846
1021A041581214A040655197A039811404A037987957A033941537A029059171A026742072
1014A028556885A032419959A034943428A033760742A028623930A022208213A018710129
1007A019450248A021494586A021335507A017329511A010860942A008046920A014027331
1000A024410125A031571063A032833419A030278553A026708647A023242876A020873841
993A020673619A021304568A019377511A012623950A002620601I95828447I97490199
986A004988524A013462446A020081916A022546320A019584470A013478341A008893593
979A006773379A004780323A002514702I99673207I92500561I77319257I57100107
972I42031243I37228941I36166087I30498927I16748215H94545821H64197996
965H30115694H00788207G79633099G66679479G69645973G95199801H32966412
958H71817723I06060281I31221909I46544695I55098679I59413674I58584728
951I49822477I34004468I22520686I26783157I40964269I54443070I62314758
944I63481353I58326422I48535265I38177262I30201375I20163098H99042657
937H66033871H33116529H03066714G71580683G44307083G25238437G10746233
930G00297897F96749970F98751006G04046831G18030796G44648656G74794820
923H01655026H23767546H40806048H54198704H65638465H74049527H78743707
916H84504338H98184865I16706352I30782023I37103222I39596210I44600370
909I52219443I56847623I54351234I42875235I22820199I06895114I10462992
902I19152964I21066481I21206852I31574471I51280868I68356000I77698245
895I79318265I73663337I62785778I55878502I64339407I81289343I93303474
888I96658048I93650672I88569590I83275531I76278446I68662775I65004631
881I65160635I64665216I63457086I68126933I80576370I92879353I99389457
874A000387489I99401361I99740580A001593396A003234282A004036214A005031630
867A007031227A009166877A010011065A009638879A009599829A010843936A012763928
860A014499790A015931690A017199867A018111820A018269590A017428673A015338156
853A011168109A003610457I92778359I84119718I85619187I93341216I96715217
846I92532481I86720437I87085689I91916446I95266310I94604684I87916336
839I70332376I41036286I23885671I34648957I51413063I62707548I68190904
832I70203976I71980850I73500073I69976609I57439784I37633439I16209756
825I00222989I01553764I18853842I32540583I32756110I21287568I07483678
818H97684344H86178584H65834369H37706640H09685400G85961886G65126831
811G50058165G45758933G49901180G59737993G75386196G93103397H06162263
804H10232296H04670774G94504423G97684351H28559907H63615255H84695075
797H93296351H93613657H89891999H87993331H91381918H95294704H92655198
790H82341673H72569093H76937202H97054507I20722422I38743978I49493659
783I55408005I58860956I59334462I54802304I45016511I33605007I29289357
776I39590976I57843301I71030436I72998963I64005618I49350214I35298876
769I21688076I04330502H82309753H65540415H70067602H89039963I05820159
762I15233964I17016463I12315481I04704323H98270487H93414220H87843148
755H80666904H72956650H66112952H62957618H68259199H80802435H92246056
748H98631684I02785769I09321122I18467528I26547875I32087419I36671383
741I40230037I40242138I38407899I43188813I57056740I72246416I82621033
734I87815996I90695167I93179717I94167415I92552889I90669592I91398003
727I92592986I89550812I81348082I71687550I63922612I58386731I54997424
720I53609480I52894674I52364196I54317286I61522638I71920149I79524112
713I80431813I74709904I64724609I52867725I40951776I31886544I28901670
706I29413703I24996340I12444339H99297366H94891581H98661642I03081359
699I04272549I04125833I03612427I00633047H94861034H90165742H91326647
692H98761262I07943513I13852757I14726378I12467756I10588776I11071440
685I12893382I14624273I18071730I26887421I40884599I55611758I67380927
678I75382978I80491271I83926430I86577646I88821289I90664425I91760573
671I91363858I88991095I85509101I82876397I82042610I81862077I81029468
664I79911800I79359278I78822389I77058531I73878865I69899817I65086329
657I58540903I49444667I37626506I23602574I08634443H94656888H83773311
650H77576850H76714087H80877984H89103084H99822219I10611474I18646295
643I22163545I21444684I18347566I15218461I14080778I15994033I20714180
636I27245216I34856897I43299814I52131858I60387309I67046025I71413218
629I73047956I71917402I68784242I64835938I60588969I55524108I48950229
622I41065067I33320014I27859551I26285907I28624068I33349383I38309652
615I41577558I41547338I36718871I26516544I13077512I01247120H95114238
608H94319893H94506575H91161943H82372678H68540268H51051415H31748208
601H12810841G96354949G84094418G77356751G76990387G83004746G94447450
594H09750810H27193221H45168335H62292133H77440600H89731679H98559732
587I03877077I06529732I08080221I10020948I13029959I16839659I20659366
580I23741375I25677001I26273544I25322934I22620437I18201373I12557434
573I06603646I01273219H96993152H93459419H89788128H84949783H78401283
566H70402569H61566273H52304548H43000503H34386341H27353739H22577927
559H20458171H21060993H23880837H27827833H31579318H33921862H33945737
552H31442741H27454863H24109119H23312878H25438783H29416784H34024752
545H38939758H44620196H51413004H59033057H66929536H74809335H82537185
538H89791398H96130192I01151555I04149315I03734809H98770942H90626428
531H84012386H84040513H91895521I04127992I16175612I25677328I32633793
524I37804618I41614907I44066621I45093630I44801965I43362608I40744098
517I36641555I30751738I23136983I14295062I05061137H96738575H91128845
510H89785511H92924558H99156210I06275481I12236073I15482916I14758561
503I09190497H98906407H85353235H70832904H57956141H49365461H47082964
496H51501962H61113764H73408178H86082561H97654975I07479230I15511435
489I21942588I26824758I29974662I31156694I30271887I27572791I24040759
482I21446385I21544043I24958402I30897865I37929552I44902239I51140628
475I56067277I59038546I59584854I57531620I53070040I47292205I42433846
468I40610791I42151272I45709338I49802985I53538051I56041897I55996764
461I51882056I42493565I27661161I09227585H91460672H79459820H75522832
454H76610411H76784599H73342375H69699341H71265725H79595351H91719371
447I03868378I14176604I22481047I29186990I34680027I39211597I42944047
440I45967448I48252823I49706505I50215725I49463766I46753420I41293611
433I33057652I23806328I17068922I16129498I21535932I30909901I41155006
426I50341967I57778544I63313052I66894469I68414281I67996831I66661020
419I66265286I68192147I72146862I76606741I80310344I82981119I84911577
412I86452516I87868979I89232459I90414360I91356205I92209681I93095992
405I93950383I94689259I95344149I96006625I96748249I97514336I97992682
398I97759363I96681269I95046596I93229364I91387275I89564352I87876632
391I86448788I85342566I84744257I85092502I86766224I89630743I93024760
384I96187812I98652804A000362633A001561803A002523336A003347507A004073825
377A004849069A005749706A006559094A006984916A007032993A006990280A007117830
370A007476606A007982491A008532854A009049270A009474241A009849108A010348779
363A011010471A011264852A009772316A005127325I97510738I89846140I86271002
356I88563180I94583033A000704795A004939140A007195407A007785867A006897397
349A004906304A002052185I97696111I90349931I78604703I62153260I42380994
342I22423159I06424879H97880641H97882342I04710537I15265557I27036884
335I38771123I49663661I58718231I65297605I69830744I73362057I76497898
328I79104308I80622026I79976098I75408618I65662594I52358505I40790801
321I36905356I42632234I54552960I67362546I77912334I85713509I91015286
314I93889290I94816940I94859850I94870185I95009443I95138302I95166298
307I94784039I93295625I90206748I86016228I82306934I80907019I82618614
300I86502947I90478921I92687831I92288566I89275498I83845910I75925426
293I65316312I52594833I40082798I31649366I30761485I37965593I50150511
286I62638932I72277879I78533667I81807983I81359790I75555661I64044014
279I48651565I31910746I16111902I04042500H98094010H97090352H95638110
272H87357476H67623345H34905700G93615103G55827953G36142487G42106806
265G69536999H06747752H42434309H70637981H90988017I05981004I18088998
258I28471007I37237117I44305369I49915491I54489642I58273636I61195128
251I62996465I63591046I63310893I62629513I61755630I60663995I59206258
244I56938609I53142384I47200958I38897169I28712830I18270577I10162758
237I06571725I07758990I12115979I17543279I22337210I25083924I24770739
230I21334795I15498025I08106974I00327907H94061457H90993707H91107325
223H92715702H93978058H94039806H92994286H91375835H89738416H88496206
216H88089877H88923663H90787665H92787719H94400806H96332965I00053118
209I06159574I12195256I15652459I17742323I20280771I23980908I28815459
202I34376458I39901481I44474716I47751648I50346349I53186209I56494668
195I59650722I62107603I64084110I66076185I68071465I69685990I70871293
188I71948472I73030688I74148290I75870743I78690587I81672779I82799997
181I80756837I75654431I68200389I58560134I45840290I29291712I10834523
174H95526193H88219847H89757712H97100883I06691230I16466100I25336343
167I32487928I37567571I40895588I43060870I44390599I45083230I45667083
160I46589043I47173943I45798624I41659909I36129196I31944236I30708240
153I31366662I31640797I30331019I27629633I24305409I21469344I19937170
146I18877194I16582988I13273220I11257532I11598452I12365716I10630050
139I04997689H96395432H86884297H77795386H69379680H61931067H56359014
132H53620214H54034916H57014427H61236735H65218726H67836452H68609211
125H67968646H67249720H67940847H70263702H72100296H70349063H64673138
118H58996493H57706796H61223457H66599279H71353963H75216057H78687519
111H81538368H83488580H85776440H90424964H97277230I03614650I06987278
104I06974588I05462888I05833111I10042665I16620861I22645162I26480960
97I28294203I29233235I30294454I31217330I31184821I31149630I33694554
90I39482396I46083486I50951527I53458512I54520974I55636353I57861812
83I60891623I63377285I64228994I63537868I62777144I63438640I64839143
76I64855234I62906919I60103100I56518674I51073975I44718894I40357130
69I37633766I31740025I18682140H99659674H81103519H70397663H69961244
62H75661633H83231648H93787976I08472552I23470118I35813132I46166296
55I54398918I57984914I56149628I51917443I49182436I50319204I56027115
48I63610342I67133937I63040290I54759264I48878147I46130582I40655990
41I28082666I09547835H87430801H62559531H38606492H22940824H17702233
34H17422930H19845275H30463939H48396406H65943801H80750761H94653617
27I07816355I17811004I23472735I26037674I26046374I22111740I13435765
20I01719383H91330048H88540882H95917739I08630519I22023697I35411970
13I49088572I60858460I65478791I60253217I52550027I54844494I66615756
6I75556904I74252685I60752168I32712939H95885557H70769979
##END=


$$ === CHEMSPECTRA PEAK TABLE EDIT ===
##TITLE=X7389
##JCAMP-DX=5.00
##DATA TYPE=INFRAREDPEAKTABLE
##DATA CLASS=PEAKTABLE
##$CSTHRESHOLD=0.93
##MAXX=3997.453
##MAXY=0.9784371859852867
##MINX=373.96442
##MINY=0.6349068885827808
##$CSSOLVENTNAME=- - -
##$CSSOLVENTVALUE=0
##$CSSOLVENTX=0
##NPOINTS=78
##PEAKTABLE= (XY..XY)
385.29667513682534, 0.8680022962354973
398.0454621657541, 0.8096745619798444
420.70997243940565, 0.7448689938838752
444.79101460515994, 0.864933610457399
461.7893973103983, 0.7927440407577562
538.2821194839717, 0.7815772897193894
548.197842728694, 0.7902731898926209
559.5300978655196, 0.777853430122297
617.607905441751, 0.8093820218409821
678.5187768021888, 0.8092635878950013
691.267563831118, 0.8119096758026525
708.2659465363563, 0.826104998894904
750.7619032994526, 0.6708029509850717
781.9256049257228, 0.8481476912787504
800.3405195230648, 0.8938423397740521
827.2546254730255, 0.8537462362208679
854.1687314229866, 0.8181853299484503
878.2497735887409, 0.8987302190759213
923.5787941360436, 0.8973389869850045
966.0747508991399, 0.880500197624423
981.656601712275, 0.8348144300803987
1011.4037714464421, 0.7925053841004183
1017.0698990148553, 0.7978119857662925
1035.4848136121968, 0.8571227791817463
1055.3162601016415, 0.8396593935930864
1076.56423848319, 0.771896422248457
1094.9791530805314, 0.810808718506367
1124.726322814699, 0.805548012386567
1150.2238968725565, 0.7502361538689619
1164.3892157935884, 0.7476348288352694
1218.2174276935102, 0.7080252175237277
1233.7992785066458, 0.8149406316620516
1249.381129319781, 0.8440693627176605
1277.7117671618448, 0.8329475531564179
1291.8770860828772, 0.7988975057348957
1345.705297982799, 0.8297654990190566
1355.6210212275214, 0.8111552004461549
1366.953276364347, 0.8154615770010518
1374.035935824863, 0.8464529522678688
1389.617786637998, 0.8678329594761255
1419.3649563721656, 0.8551154144658154
1437.779870969507, 0.7863620521191955
1457.6113174589523, 0.7887156017104656
1473.1931682720874, 0.8468062284178685
1490.1915509773257, 0.7951204187495395
1497.2742104378417, 0.8091756112561719
1508.6064655746677, 0.7239847188973507
1519.9387207114933, 0.6795658473926371
1541.1866990930412, 0.820319772639073
1558.1850817982795, 0.8418821701288695
1617.6794212666146, 0.877941251659175
1621.9290169429241, 0.8793514375554038
1636.094335863956, 0.8710353379247213
1653.0927185691944, 0.8263996840942329
1688.5060158717747, 0.6349068885827808
1716.8366537138386, 0.8406383403238791
1735.2515683111806, 0.6986294991188265
3310.435032329945, 0.8617048862194195
3324.6003512509774, 0.864992798270689
3381.2616269351056, 0.8430790309463116
3566.8273048006254, 0.8994048241903229
3586.6587512900705, 0.909658670663281
3617.822452916341, 0.9077928671807741
3627.738176161063, 0.9025850895623079
3648.9861545426115, 0.8736218215821101
3674.483728600469, 0.8919676544290273
3688.649047521501, 0.9051087504674937
3711.3135577951525, 0.9027916796615242
3724.0623448240813, 0.9093428264562912
3735.394599960907, 0.8785424836772439
3749.5599188819388, 0.8784562356619084
3800.555066997654, 0.9022971402537898
3820.3865134870994, 0.8999950894272893
3838.801428084441, 0.8955274232791123
3852.966747005473, 0.8834214218859533
3864.299002142299, 0.9091187122883271
3869.9651297107116, 0.9045133002712857
3902.545363229085, 0.8995103841285418
##END=


$$ === CHEMSPECTRA PEAK TABLE AUTO ===
##TITLE=X7389
##JCAMP-DX=5.00
##DATA TYPE=INFRAREDPEAKTABLE
##DATA CLASS=PEAKTABLE
##$CSTHRESHOLD=0.93
##MAXX=3997.453
##MAXY=0.9784371859852867
##MINX=373.96442
##MINY=0.6349068885827808
##NPOINTS=87
##PEAKTABLE= (XY..XY)
3902.545363229085, 0.8995103841285418
3869.9651297107116, 0.9045133002712857
3864.299002142299, 0.9091187122883271
3852.966747005473, 0.8834214218859533
3838.801428084441, 0.8955274232791123
3820.3865134870994, 0.8999950894272893
3800.555066997654, 0.9022971402537898
3749.5599188819388, 0.8784562356619084
3735.394599960907, 0.8785424836772439
3724.0623448240813, 0.9093428264562912
3711.3135577951525, 0.9027916796615242
3688.649047521501, 0.9051087504674937
3674.483728600469, 0.8919676544290273
3648.9861545426115, 0.8736218215821101
3627.738176161063, 0.9025850895623079
3617.822452916341, 0.9077928671807741
3586.6587512900705, 0.909658670663281
3566.8273048006254, 0.8994048241903229
3381.2616269351056, 0.8430790309463116
3324.6003512509774, 0.864992798270689
3310.435032329945, 0.8617048862194195
1772.0813975058636, 0.9074393513744861
1735.2515683111806, 0.6986294991188265
1716.8366537138386, 0.8406383403238791
1688.5060158717747, 0.6349068885827808
1653.0927185691944, 0.8263996840942329
1636.094335863956, 0.8710353379247213
1621.9290169429241, 0.8793514375554038
1617.6794212666146, 0.877941251659175
1576.5999963956215, 0.8967698816669395
1569.5173369351055, 0.8991397625129597
1558.1850817982795, 0.8418821701288695
1541.1866990930412, 0.820319772639073
1519.9387207114933, 0.6795658473926371
1508.6064655746677, 0.7239847188973507
1497.2742104378417, 0.8091756112561719
1490.1915509773257, 0.7951204187495395
1473.1931682720874, 0.8468062284178685
1457.6113174589523, 0.7887156017104656
1437.779870969507, 0.7863620521191955
1419.3649563721656, 0.8551154144658154
1405.1996374511336, 0.9027383930426189
1389.617786637998, 0.8678329594761255
1374.035935824863, 0.8464529522678688
1366.953276364347, 0.8154615770010518
1355.6210212275214, 0.8111552004461549
1345.705297982799, 0.8297654990190566
1291.8770860828772, 0.7988975057348957
1277.7117671618448, 0.8329475531564179
1249.381129319781, 0.8440693627176605
1233.7992785066458, 0.8149406316620516
1218.2174276935102, 0.7080252175237277
1164.3892157935884, 0.7476348288352694
1150.2238968725565, 0.7502361538689619
1124.726322814699, 0.805548012386567
1094.9791530805314, 0.810808718506367
1076.56423848319, 0.771896422248457
1055.3162601016415, 0.8396593935930864
1035.4848136121968, 0.8571227791817463
1017.0698990148553, 0.7978119857662925
1011.4037714464421, 0.7925053841004183
981.656601712275, 0.8348144300803987
966.0747508991399, 0.880500197624423
923.5787941360436, 0.8973389869850045
878.2497735887409, 0.8987302190759213
854.1687314229866, 0.8181853299484503
827.2546254730255, 0.8537462362208679
800.3405195230648, 0.8938423397740521
781.9256049257228, 0.8481476912787504
750.7619032994526, 0.6708029509850717
708.2659465363563, 0.826104998894904
691.267563831118, 0.8119096758026525
678.5187768021888, 0.8092635878950013
617.607905441751, 0.8093820218409821
590.6937994917903, 0.8480991722708736
575.1119486786547, 0.8303748966645005
559.5300978655196, 0.777853430122297
548.197842728694, 0.7902731898926209
538.2821194839717, 0.7815772897193894
518.4506729945265, 0.8250945815573684
502.86882218139135, 0.8485013847769632
484.45390758404983, 0.8773216608759322
461.7893973103983, 0.7927440407577562
444.79101460515994, 0.864933610457399
420.70997243940565, 0.7448689938838752
398.0454621657541, 0.8096745619798444
385.29667513682534, 0.8680022962354973
##END=

##END=

