##TITLE=X9302
##JCAMP-DX=5.0
##DATA TYPE=LINK
##BLOCKS=1


$$ === CHEMSPECTRA SPECTRUM ORIG ===
##TITLE=X9302
##JCAMP-DX=5.00
##DATA TYPE=INFRARED SPECTRUM
##DATA CLASS=XYDATA
##ORIGIN=ComPlat
##OWNER=
##XUNITS=1/CM
##YUNITS=TRANSMITTANCE
##XFACTOR=1
##YFACTOR=9.2241792e-010
##FIRSTX=3997.453
##LASTX=373.96442
##MAXX=3997.453
##MAXY=0.9904386989886682
##MINX=373.96442
##MINY=0.375317692532928
##NPOINTS=2559
##XYDATA= (X++(Y..Y))
2559I85922250I84801777I84165937I84063389I84163482I84300601I84586082I84988522
2551I85177659I84961124I84562626I84279015I84125939I83966397I83747020I83470391
2543I83099226I82618340I82198130I82207048I82914613I84139508I85263536I85668819
2535I85242793I84478623I83950501I83786049I83870569I84210653I84647469I84533290
2527I83201258I80882253I79043294I79152369I80724262I81793235I81511178I81013427
2519I81499741I82658015I83573650I83692288I82692134I80604396I78352788I77396832
2511I78145623I79433327I79986844I79751115I79643658I79977280I79895668I78807697
2503I77594950I77897361I80037569I82629196I84448188I85375389I85490667I84144419
2495I80477487I74766240I69160449I66281596I66746004I69513198I73426971I77098556
2487I78990824I78456887I76672466I76241530I77924307I79260087I78191825I75431416
2479I73253859I72285755I72083566I73591617I76949870I79469319I78727054I74985617
2471I70598390I67745125I67587070I69800295I71810749I71384143I69312495I68800592
2463I71299946I74726048I76631369I75953269I72094939I64925203I58932868I60850402
2455I67982014I74779680I78853511I79548799I77088928I72522063I67391536I63157776
2447I61241405I62580739I66094527I69657554I72443229I74733672I76538707I77277741
2439I76807582I75879540I74745433I72244335I67979623I64846498I65183222I67159106
2431I69663757I73708443I78648027I82112770I82765540I80794308I77699308I75546565
2423I74431972I72501062I69573034I68375666I70289193I73595882I77237420I81092972
2415I84432421I86482486I87320580I87345457I86604743I85238399I84028107I83412235
2407I82559664I80905451I79865362I81291284I84477977I87049896I87446584I85470183
2399I82182557I79467575I78351431I78490036I79638812I81295613I81733916I79608894
2391I76138981I74340279I74865299I75082286I72450337I66706587I61052592I59706731
2383I61371287I62405366I62467916I63841820I67208926I70120799I70473031I67309665
2375I61205994I55969365I56601715I62991966I70572543I75774536I77400386I76010650
2367I73677429I72762376I73968920I76536768I79531417I82065341I83226200I82292731
2359I78915157I73739786I69760361I70586500I75437554I80741321I84127102I84852308
2351I83661530I82731034I83582826I85196785I85952685I85384048I83381606I79339696
2343I73244102I67823894I67713074I73119067I79501047I83930534I85788685I85114785
2335I82152122I76985862I69692189I62978784I62097979I65897701I68728027I69884621
2327I73257413I79764364I85862608I89323539I90501198I90675925I90379458I89074049
2319I86504715I83727053I81474669I78198157I71712530I62219331I55457980I58241393
2311I67443747I76174779I81713949I84526182I86037399I86956523I86923309I85624297
2303I83536430I81222143I78220709I73710061I69569609I70562333I76096398I80882576
2295I82289565I80210809I75788559I71654697I70399561I71303306I72140688I72589847
2287I73393628I74200511I74449612I75325766I78131213I81542389I83246684I82808575
2279I81731008I81314158I81199397I80748882I80600842I81675307I83153440I82812775
2271I79327871I74456333I72870870I76288442I81246633I84601203I85726781I85362207
2263I84566762I84212785I84688502I85679804I86081403I84303573I79226486I71954007
2255I67133065I68710968I74234887I79215242I82182428I84042065I85763871I87038975
2247I86902955I85270837I83480859I82860528I82870608I81888417I79655936I78075448
2239I79045168I82037361I84947102I86345432I86385237I86147637I86260201I86287082
2231I85579581I84179248I82747770I82001886I82151282I82790094I83466966I84134274
2223I84912790I85776601I86621221I87310112I87592685I87210406I86152677I84839190
2215I84042582I84239278I84862194I84779613I83659398I82529297I82737754I84334977
2207I86033263I86677115I86345820I86029515I86323397I86838789I86943470I86551563
2199I86013878I85529244I84959832I84310616I84140348I85032398I86623418I87844113
2191I88186071I88086882I88047078I88013994I87828023I87616142I87524190I87519086
2183I87563866I87714231I88050309I88643048I89463178I90241693I90598319I90442396
2175I90101149I89817865I89293039I88137026I86661801I85688139I85528598I85761739
2167I85969033I86128639I86414315I86894360I87364067I87542800I87511719I87637013
2159I87990408I88287973I88417273I88480276I88266649I87244266I85335003I83394398
2151I82471981I82641279I83022137I82856845I82111090I81206441I80597741I80595673
2143I81315709I82608647I83962391I84652251I84389514I83726407I83433753I83667217
2135I84051628I84264221I84273138I84312878I84764169I85756764I86855396I87383065
2127I87101461I86436608I86020404I86152289I86726806I87425261I87875259I87910347
2119I87777815I87825633I87973672I87859428I87468102I87184818I87212862I87341128
2111I87356119I87316444I87348365I87486971I87797588I88316017I88795546I88887433
2103I88655713I88520016I88666634I88904040I89078443I89203931I89149006I88609124
2095I87570069I86546329I86154874I86501807I87130539I87553979I87683732I87704022
2087I87722761I87686252I87555207I87444710I87567678I88053669I88809827I89563529
2079I90047129I90106707I89675318I88802654I87763599I86987539I86757758I87002272
2071I87402321I87691292I87810900I87793388I87622991I87314247I87016230I86866704
2063I86830324I86830841I86989995I87549908I88511809I89505179I90151099I90423269
2055I90480585I90333515I89904259I89225772I88418889I87686963I87334020I87503836
2047I87985885I88515816I89042968I89553449I89951365I90227736I90505528I90868939
2039I91261040I91501224I91406236I91018529I90659512I90646718I90981050I91341941
2031I91368887I90991971I90505140I90239109I90191550I90119049I89935211I89782713
2023I89692700I89489542I89163222I89036118I89334459I89849851I90230902I90373966
2015I90350187I90172875I89816831I89305898I88658815I87882949I87132865I86760408
2007I87036003I87829510I88670058I89155209I89246708I89183512I89194303I89309193
1999I89404892I89372067I89220796I89066360I89015828I89038057I88989981I88825141
1991I88686019I88743206I88991274I89287869I89588859I90044867I90728330I91364105
1983I91599637I91489916I91429886I91638731I91934616I92010219I91805186I91576375
1975I91568427I91672267I91613465I91409854I91357126I91606874I92004855I92292599
1967I92306233I92016616I91493922I90905965I90534412I90622098I91095230I91626841
1959I92053577I92487551I92921395I92997450I92351724I91100529I89848752I89187130
1951I89202509I89498524I89643332I89540137I89389772I89371937I89424278I89349192
1943I89076892I88717036I88372687I88013154I87530975I86884086I86269700I86091936
1935I86537024I87258288I87762436I87976063I88087916I88001135I87401804I86287276
1927I85010492I83872443I82998293I82534595I82624673I83176380I83908435I84642817
1919I85341852I85861057I85918050I85380171I84380339I83067369I81391054I79174145
1911I76309378I73030346I70067942I68262197I67825186I68236220I68927373I69738391
1903I70692344I71760606I72900400I74011180I74886171I75437748I75900994I76662450
1895I77924824I79530319I81049807I82106438I82693620I83134830I83717425I84442825
1887I85151424I85777441I86386206I86993678I87399220I87220422I86195648I84532514
1879I82863694I81814107I81705419I82538214I83948110I85272453I85964639I85869263
1871I84865619I82275801I76713757I66868713I53389498I40279833I33069129I34455440
1863I42262179I51988261I60385736I66408053I70261343I72627454I74244063I75530152
1855I76522100I77027864I76720800I75344569I72965406I69828339I65912628I60744752
1847I53550526I43586392I30781593I16483994I03504469H95022926H92939001H96747447
1839I03763134I10595242I14710751I14897238I10694495I01912091H88870146H72863857
1831H55975405H39982427H25115157H09967704G93170428G75704745G61553828G55492999
1823G59602434G71623095G86560153G99825483H09281785H15250987H19292832H22837960
1815H26256696H28671981H28588818H24757691H16513425H03616611G86084307G64010792
1807G37438906G06911957F74666755F45099380F23459774F13493636F15902007F28724511
1799F48873255F73337889F99510307G25075189G48106987G67482062G83091920G95535505
1791H05682766H14480031H22761582H30907693H38747710H45901227H52107059H57239847
1783H61276587H64368874H66819569H68945690H71048806H73459245H76416803H79866426
1775H83486705H86933872H89977695H92420120H94005648H94356135H92885562H89000415
1767H82817716H75768105H70134464H67639957H68332467H70706009H72719565H72692296
1759H69631996H63214088H53671779H41868557H29543352H19055232H12276499H09689718
1751H10779756H15012612H22015569H30946141H40167493H47879825H53174351H56407892
1743H58584673H60690180H63641406H68264618H74844005H82838459H91238583H99164994
1735I06208919I12411972I17974792I22955857I27251069I30781852I33607137I35912831
1727I37945449I39875648I41683914I43258973I44626351I45971242I47430701I48982369
1719I50518011I51872078I52837791I53369015I53725446I54213957I54847471I55429483
1711I55873537I56276171I56753115I57342946I58033776I58782503I59490843I60029756
1703I60341472I60512645I60719551I61100926I61660968I62292672I62911776I63540249
1695I64214794I64900519I65574353I66298202I67107153I67922953I68665929I69387129
1687I70185546I71046902I71841055I72447041I72826736I73035257I73183038I73274085
1679I73135027I72748290I72543257I72977618I73893511I74675969I74959641I74832538
1671I74505765I74167233I74010857I74092793I74254079I74351393I74408451I74453360
1663I74434750I74398823I74540917I75004938I75771435I76711947I77624610I78324291
1655I78806405I79190429I79473520I79538913I79425896I79383701I79628408I80140505
1647I80694473I81064734I81224340I81324820I81502907I81759763I81977396I82005311
1639I81802992I81505233I81250445I81007741I80692276I80334358I79971400I79487542
1631I78778361I78018843I77558829I77507716I77585257I77473792I77216677I77137585
1623I77430885I77971607I78510778I78931764I79296854I79727274I80229742I80636124
1615I80803678I80891235I81236488I81888805I82482837I82701309I82668031I82729418
1607I82993899I83278864I83445061I83578949I83821201I84185839I84616000I85070134
1599I85492089I85813433I86007158I86071258I86001859I85851622I85757927I85845548
1591I86099044I86356159I86453214I86362039I86164825I85995462I86058206I86482874
1583I87045049I87298610I87104045I86742379I86457996I86234935I86055815I86031842
1575I86239976I86694045I87404066I88218509I88763948I88834446I88717811I88879162
1567I89412776I89981477I90260949I90314194I90451701I90768587I91036751I91083599
1559I90980404I90828100I90695504I90729752I90976656I91187698I91120560
1552I90882379I90749072I90825515I91051161I91381293I91825412I92346878
1545I92806827I93089853I93250752I93438079I93681817I93892795I94047877
1538I94241278I94531025I94864130I95195167I95527561I95781509I95829779
1531I95749459I95797017I96024084I96178198I96091869I95967996I96155323
1524I96724736I97337248I97544800I97174476I96424909I95731624I95573052
1517I96119008I96932223I97279673I96857073I95971421I95067999I94437911
1510I94268806I94512673I94799641I94899928I95100696I95720445I96496505
1503I96869092I96711812I96474018I96673235I97438956I98543534I99737283
1496A000859372A001660633A001879752A001566162A001023631A000471600A000065671
1489A000048224A000487561A001039010A001319128A001403842A001667547A002187010
1482A002611549A002716295A002792221A003285319A004271452A005398645A006123916
1475A006063951A005433604A005015203A005416868A006513109A007697554A008411064
1468A008469931A008196856A008101803A008245384A008259341A008110914A008268646
1461A008891110A009460587A009532442A009299559A009120697A009009296A008895762
1454A008903323A009080957A009258785A009305763A009187124A008796639A008080027
1447A007256731A006644994A006341096A006201328A006066277A005947897A005965796
1440A006094386A006136258A006037522A006014066A006245721A006678208A007238703
1433A007971921A008787140A009304664A009235458A008786041A008407252A008254689
1426A008198730A008239827A008543466A009130261A009822124A010481613A011157451
1419A012032312A013291649A014987802A016970730A018945580A020692846A022312169
1412A024168833A026482216A029049741A031427612A033271805A034562611A035608321
1405A036705467A037800998A038554700A038481165A037120185A034484552A031065752
1398A027289551A023593411A020760695A019525719A020103660A022129171A024778954
1391A027164968A028829588A029803960A030346233A030645219A030677916A030354245
1384A029697857A028833400A027911885A027077475A026417921A025942721A025583511
1377A025194382A024642029A023968518A023361175A022910401A022493551A021879488
1370A020902725A019601903A018173397A016782433A015588748A014898177A014918984
1363A015407947A015955713A016503284A017177119A017847787A018303925A018641100
1356A019081213A019585619A019918853A019959433A019776113A019518998A019389246
1349A019667232A020570137A021983458A023432642A024448240A024924215A025103142
1342A025296802A025661311A026155766A026674131A027195209A027704268A028008424
1335A027880933A027401598A026846854A026264712A025550491A024893586A024717891
1328A025236449A026348392A027725075A028777958A028938921A028224571A027243866
1321A026582761A026415724A026643825A027189781A028156787A029686226A031561242
1314A033099922A033676119A033219658A032124709A031034477A030759852A031685954
1307A033053914A033715923A033754953A034188344A035082138A035505902A035282453
1300A035164074A035440315A035843465A036463861A037482561A038433736A038681416
1293A038210158A037462982A036933633A037124902A038325049A040149081A041572999
1286A041707534A040624603A039223107A038035367A036598396A034480352A032331551
1279A031276277A031785078A033566075A035893286A037740451A038336357A037903676
1272A037520621A038192970A040021202A042080637A043323949A043814269A044627807
1265A046261346A047777216A047989550A047074044A046493130A047071330A047899989
1258A047804614A046835023A045771930A045002203A044434794A043922245A043204470
1251A041970657A040463640A039499607A039522740A040050862A040313468A040067856
1244A039609651A039375476A039637437A040186236A040257768A039289276A037802937
1237A036969948A037200828A037747753A037834922A037610634A037713829A038280527
1230A038688718A038256877A037064613A035858521A035136805A034785025A034737144
1223A035285232A036411973A037507245A038109807A038334483A038422945A038497126
1216A038757083A039272217A039630200A039309824A038304048A037044969A035909311
1209A035077292A034649069A034598926A034733977A034945471A035493754A036803945
1202A038817566A040778458A041974470A042447020A042619743A042601780A042301953
1195A041924003A041937508A042631181A043785966A044799691A045280253A045368069
1188A045321544A045229528A045225587A045303128A045039294A044444551A044780176
1181A047151457A050634681A053153613A053908737A053976069A054758074A056744555
1174A059608353A062472344A063924824A062856497A059889569A057422590A057691012
1167A060608895A063572075A063739177A060739229A056912947A054960457A055559270
1160A057089227A057777665A057705939A058090542A059309043A060521726A060833894
1153A060057317A058665902A057482038A057186993A058081110A060122517A062482812
1146A063474308A062275971A060475330A060355270A061845616A063371178A064998514
1139A067813589A070982965A072195518A070898186A068826926A067360941A066302372
1132A065390808A065210202A065971594A066583137A065649280A063298612A061432902
1125A061588760A063206790A064771317A065404120A064801623A062990191A060700782
1118A059113768A058724381A058826218A058482322A057703677A057183504A057186024
1111A057271578A057041280A056745783A056937956A057549047A057940243A057982503
1104A058260683A059101620A060057123A060581174A060696388A060761781A060788339
1097A060216730A058757465A057316746A057093944A057734953A057953361A057718152
1090A058256612A059925949A061673603A062523586A062535540A062483135A062892877
1083A063675140A064612874A065628796A066561102A067084054A066866292A065823037
1076A064439892A063565807A063360322A062954845A061839283A061016892A061947777
1069A064538112A067383299A069400086A070343248A070453163A070155921A069853057
1062A069628446A069215279A068189148A065998604A062259622A057888226A055695355
1055A057654309A062156169A066406019A069082231A070290003A070693800A070934954
1048A071433671A072281395A073208338A073741823A073399865A071916692A069489259
1041A066630178A063854778A061857764A061146063A061098117A060973534A061204736
1034A062743997A065536974A068084338A068571233A066371319A063185337A061791660
1027A062350152A062990062A063329370A064375792A066128292A067466915A067695210
1020A067101049A066246801A065105133A063395604A061622038A060987556A061954561
1013A063696206A064986430A064850603A063065859A060774252A059893317A061055146
1006A062928675A063793908A062707682A060099254A058462226A060098220A063507651
999A065640104A065235273A062990321A060008466A056699516A053474505A050827242
992A048152258A044113449A038156138A031368164A026660367A026117707A028255200
985A030790416A032624399A032907554A031131533A028299334A026229495A024938754
978A023304569A021305100A018976144A014914526A007590482I97675781I88664049
971I82824988I78320285I72728840I65641685I57300945I46908653I34012097
964I19494345I01870155H75860056H41587793H13969938H02075670H00126408
957H02301057H05288985H06215023H02812442G94111587G79071657G53406812
950G10378380F52636469E98334875E57820852E29128597E10750963E02092658
943E01600303E08235552E20733901E35579847E51306923E71660441E98620421
936F26087199F52420774F82070149G11504734G34342484G51052978G64305708
929G74477200G80645231G82568451G82412528G84913626G90794883G97600109
922H04324629H11212243H19274545H28816337H38022633H46161120H56401883
915H71640447H88274757I01742470I12070144I21708216I32430964I43002441
908I50728988I54073220I52776921I48279779I47218948I53549557I58415409
901I57063927I51024098I44477601I38153196I27140056I07802976H80709883
894H48350436H09412766G60204737G11918740F83052598F72897454F74620553
887F85008451F99406725G09688456G09295838F96438376F75342076F51780024
880F24826441E89295422E48512266E16848560D98446888D87083099D79222437
873D75279134D76267173D81732517D90353989E01462764E14990216E30138251
866E45052433E57903369E68193048E77553587E88820481F03595865F21194337
859F39569645F56413704F69890269F78773993F81963400F78804622F70509825
852F60119278F51655376F51260109F62786250F79536096F94577770G08280432
845G23235390G39061201G53585933G66351314G76876590G83518075G85498870
838G86573723G95991707H11346648H23935365H33160012H39996385H45509514
831H51301145H57380584H61640256H62636017H61136690H59285841H61046289
824H72112093H88294595H99941635I05868512I09739572I15437637I22373974
817I26876415I27820934I27179602I27308579I28270674I29769743I33495025
810I39504936I45190271I50509094I56935725I62735111I64158448I59191146
803I47404918I27119378H96520121H64025365H36714639H07517202G71611658
796G32341722G00493532F89308057G01185589G22549213G41098472G54321607
789G64035670G71489918G76216002G78539206G81056717G87607156H00658536
782H17382794H29097877H25896968H00634757G51490441F90039789F46474254
775F38146114F50037216F62601249F65491798F57027896F43175966F29181424
768F14499994E98199242E87033862E92477075F08311868F21505343F29101298
761F34313889F43947309F64099478F92939126G22599744G47402588G64382603
754G70859959G63677364G38558539F98267254F61917463F43145596F36681422
747F31628501F20433979F03110262E85308373E73699585E73793928E87143584
740F12319207F47789033F87245779G20581148G45476137G65358009G83023748
733G99770687H15429914H29027508H40903102H52993421H65920283H77671359
726H86309664H91429852H92855773H89257465H79057734H63111863H44393693
719H24130963H01389945G76806027G55770274G45266258G47021084G57762829
712G72983301G88426898H00285174H04493281G96032352G72397411G40115441
705G11381184F93784392F87729185F88438688F90080951F91042528F94913072
698G05557761G22121379G41339497G61246570G81146665H00531239H18565171
691H34261617H46763552H54906238H56672373H50212464H36137731H18423205
684H03389415G98256820H07472745H28069226H52232546H74014442H91331826
677I04464819I14480130I22496295I29528912I36220929I42422560I47301594
670I50036091I50303868I48129672I43312800I34930252I21578593I02876900
663H81553921H63549843H54724921H56800769H66299202H77047990H82575077
656H76798630H56842899H28082795H03981702G97272885H10572785H36388836
649H64918513H90158819I10417672I26318311I39163301I50041002I59596623
642I68261421I76358617I83986170I91029126I97274504A002444964A006200617
635A008198213A008259729A006582379A003757482A000567816I97685021I95147479
628I91699730I84355655I68351563I37987709H89474193H25685474G59415301
621G09971740F92686018G09308180G48254897G93809692H34595368H64918125
614H81206148H79002357H54712579H11881231G64218344G27558452G06503831
607F90766998F66002085F27987351E86708641E57943303E51386338E65997463
600E94704128F31150975F71458156G12141607G49238122G79700583H02384607
593H17063129H22114951H12517394G80904542G23801895F49492747E78638132
586E33841337E26477424E52168343E95790742F38007444F60500265F54402022
579F28883083F07246901F09106603F36602459F78342605G22480589G63441638
572G99985283H31808272H58455373H79458429H94471284I03115922I04497709
565H96564514H75841575H38778856G85661061G24809674F71793200F41562200
558F39408165F59171334F89544816G21279990G49583052G72601603G89308931
551G98109169G96012514G78833605G43445844F91239161F29350076E67932315
544E16356043D81320126D65997461D69217335D86228884E11381471E40363699
537E70542294F00212087F27829490F51460489F68237022F73809212F62793422
530F31692537E83510640E29592456D84510081D56628360D43095190D34358245
523D23598763D12162408D06884650D13138945D30713121D55330705D82332849
516E08532988E32251835E53100520E71636920E88684331F04817465F20291561
509F35200446F49623598F63600499F77000428F89464690G00384910G08969453
502G14534664G16759908G15697203G11807791G05880204F98268482F87725824
495F71148055F45619101F12424405E79319140E57102754E52562770E64645981
488E86930603F12676092F37766807F60750271F81597340G00445586G16717196
481G28665033G33125731G25310333F99918175F55644299F00894129E53061620
474E28220070E30295272E50876955E78260247F04989219F28509528F48562379
467F65629757F80590142F94311221G07098702G18465302G27167773G31138732
460G27572991G14332604F92909079F70251677F56061214F56648525F71122079
453F93476036G17568536G39749834G57977684G70392772G75727749G73931309
446G64055766G41651536G02154340F49537914E98981635E67215962E60355422
439E72213182E92316435F13320977F32397906F49155635F63839262F76721925
432F88040384F98021900G06899550G14882889G22105289G28503359G33563646
425G36355782G36479590G35310718G35754384G40027044G47709974G56428277
418G64203741G70552507G75713663G79933595G83530611G86778949G89620389
411G91924338G93844973G95652463G97473071G99331673H01289271H03455906
404H05784281H07861421H09032361H08360271H03964901G93118992G74809336
397G53079458G36361856G31221895G36615352G44852639G45483374G26928041
390F82549290F24180262E83574935E87608832F32610046F90809969G38379031
383G69619038G89148033H01170309H07053052H07166456H02663950G96383356
376G92026498G92049502G96413661H03252877H10487360H16887369H22068943
369H26099416H29299937H32057374H34583478H36923807H39100136H41084614
362H42797180H44292760H45794543H47392154H48812195H49623408H49589160
355H48678372H46886843H44426002H42112942H41103999H41969038H44233441
348H46898926H49152602H50607085H51214363H51021156H49830896H47083539
341H41981638H33248409H18026516G90765288G44677589F77542507E98104060
334E25161934D77496075D63552969D80140107E18411536E69001288F23409436
327F74444469G17120023G49185200G71166829G85802121G96284878H04523522
320H11254051H17131495H22840803H28541388H33908933H38618927H42564233
313H45686566H47762220H48443034H47196685H42718023H32068682H09503748
306G66229833F96092670F07604884E28678631D91401444E08451925E65759670
299F36920895G01472945G51289221G86783408H11454948H28744417H41123320
292H50187198H56547338H59558916H56771303H42070100H06261483G47353220
285F83781294F48529230F61371895G10790577G67726317H11599433H39387103
278H56906290H69333591H78782850H85794337H90973908H95243208H99083898
271I02275373I04409958I05365398I05492113I05511305I05959429I06647932
264I06745893I05271443I01409429H94186384H81277486H58772646H25525222
257G90238458G70558129G79054081H10359999H46165385H71637992H83684952
250H86095133H82268271H72282361H52124441H14086897G52079691F71606196
243E93640196E44220608E37603839E68065363F17256526F67936549G10680081
236G42596701G64557588G79994658G93786171H09706648H28284532H47481456
229H65022612H79682589H91309598I00595503I08514871I15573529I21647669
222I26485154I30292953I33808616I37688012I41856766I45648799I48560156
215I50700686I52585911I54778782I57697634I61437326I65219472I64488515
208I48694108I12441567H62332443H13696993G88744947G99466143H32998015
201H67336124H91386493I05111902I11323614I11786536I06559987H93833053
194H71215197H39259806H05484389G83585730G84595319H07666404H41161444
187H72580701H96246465I12747985I24533825I33387243I40262451I45584957
180I49651034I53098137I56588986I60101288I63084693I64763464I63198227
173I54126594I32471544H97629868H58020495H28233937H19105440H29963691
166H51245832H73361737H91862662I06609679I18897534I29491563I38350086
159I45386709I50912826I55443376I59462670I63281713I66944704I70320016
152I73317637I76058079I78727313I81156491I82991443I84500916I86484425
145I89141575I91657276I92854386I91972030I89066941I84500851I77437476
138I64830796I42458875I07713028H63145141H18624425G87853156G79631248
131G92350945H17001936H44021817H67845571H87453206I03919121I17691313
124I28406888I36464990I43251542I49743502I55718777I60098574I61395518
117I57998236I48366302I31058739I05158556H71872554H36486086H07700393
110G93613771G97771993H16788374H41485374H63692906H81075167H95250575
103I08030625I19246600I27560330I33009681I37065807I40389813I42369121
96I42797861I42115367I39811483I34589587I26294273I15832646I02556913
89H83524119H56618417H23742545G90717083G64535166G50455974G49680366
82G59489159G76312411G97405933H20119940H41906746H61424497H78510227
75H93176213I05190283I14446141I21522117I27646982I33726680I39815489
68I46191783I53409207I60833343I67120529I71963894I75195755I75298238
61I71315777I65085713I57970321I46709759I26932309H98371745H65300857
54H33414283H08451963G95788872G97301834H10137778H29319904H50069012
47H69076670H84763941H96800563I05612884I11551521I14708490I15550395
40I14255583I09047128H96026829H71941889H39309239H07416139G88005266
33G92657815H20575819H52956977H78594424H97580629I11945884I24970706
26I39829770I55535780I67327435I71513378I68441188I61605009I55876574
19I56383113I64917966I74453683I77319226I75764198I74107720I71151195
12I62010292I43972742I19788614H97323515H85801186H87742435H98438366
5I13475711I31193791I50586765I66310027I70804198
##END=


$$ === CHEMSPECTRA PEAK TABLE EDIT ===
##TITLE=X9302
##JCAMP-DX=5.00
##DATA TYPE=INFRAREDPEAKTABLE
##DATA CLASS=PEAKTABLE
##$CSTHRESHOLD=0.93
##MAXX=3997.453
##MAXY=0.9904386989886682
##MINX=373.96442
##MINY=0.375317692532928
##$CSSOLVENTNAME=- - -
##$CSSOLVENTVALUE=0
##$CSSOLVENTX=0
##NPOINTS=42
##PEAKTABLE= (XY..XY)
383.88014324475216, 0.8170788875236532
420.70997243940565, 0.7268701784127668
446.20754649726314, 0.7340499160693863
490.1200351524626, 0.6915186038705587
528.3663962392493, 0.7320435639291764
559.5300978655196, 0.7191458341471642
610.525245981235, 0.7555575362254848
643.1054794996089, 0.7227935192082816
661.5203940969504, 0.7275524734222503
713.9320741047691, 0.49589541495439493
735.180052486317, 0.7107766265912717
774.8429454652069, 0.5982149833958016
800.3405195230648, 0.4532774978594765
842.8364762861606, 0.4275895654748045
922.1622622439404, 0.5382999777068352
995.821920633307, 0.5168818828219622
1018.4864309069585, 0.6051626204105549
1043.984004964816, 0.48723965827165444
1066.648515238467, 0.5096938009728385
1110.5610038936666, 0.375317692532928
1140.308173627834, 0.4298444087009011
1162.9726839014852, 0.5898015495903168
1191.3033217435495, 0.560135423346866
1201.219044988272, 0.4856322103730381
1225.3000871540262, 0.508608639014377
1250.7976612118841, 0.6389459959366426
1296.1266817591868, 0.7354187962540992
1308.8754687881155, 0.7884135838009844
1340.0391704143858, 0.7363263955302144
1368.3698082564501, 0.6343737243509953
1385.3681909616885, 0.6874469515505434
1425.0310839405784, 0.5291907779005632
1457.6113174589523, 0.5414905539556071
1470.360104487881, 0.5886374111319629
1497.2742104378417, 0.6358301041771814
1576.5999963956215, 0.6007339951227533
1609.180229913995, 0.4384059902036813
1631.8447401876465, 0.6206926698919757
1708.3374623612194, 0.46268510816462977
2854.311763072713, 0.7468723055229466
2925.1383576778735, 0.5658975236523571
2956.3020593041438, 0.6968802807121421
##END=


$$ === CHEMSPECTRA PEAK TABLE AUTO ===
##TITLE=X9302
##JCAMP-DX=5.00
##DATA TYPE=INFRAREDPEAKTABLE
##DATA CLASS=PEAKTABLE
##$CSTHRESHOLD=0.93
##MAXX=3997.453
##MAXY=0.9904386989886682
##MINX=373.96442
##MINY=0.375317692532928
##NPOINTS=147
##PEAKTABLE= (XY..XY)
3993.2034043236904, 0.9077177044295309
3971.9554259421425, 0.9059971561024897
3959.2066389132133, 0.9074618810435982
3949.290915668491, 0.9030870788414285
3942.208256207975, 0.9049043648254119
3930.8760010711494, 0.9015683527880295
3923.7933416106334, 0.9036408653535514
3918.1272140422207, 0.9017511003815041
3902.545363229085, 0.8913154599166003
3891.2131080922595, 0.9005026815202176
3881.297384847537, 0.8966673010159028
3869.9651297107116, 0.8925196525282945
3862.8824702501956, 0.8936390269674087
3852.966747005473, 0.8845368615201946
3838.801428084441, 0.8866662974179776
3820.3865134870994, 0.8899916998044443
3800.555066997654, 0.8932470676103348
3779.3070886161063, 0.903845369096087
3767.9748334792807, 0.9024488920120436
3758.0591102345584, 0.8987489335273997
3749.5599188819388, 0.8852506866190195
3735.394599960907, 0.8818032732470208
3724.0623448240813, 0.897293447524178
3711.3135577951525, 0.8945243350920692
3701.39783455043, 0.9064887163017293
3688.649047521501, 0.8926358808758861
3674.483728600469, 0.8874564166253838
3648.9861545426115, 0.8813315625590017
3629.1547080531664, 0.8943483820289934
3617.822452916341, 0.8951139446265332
3595.1579426426897, 0.9045237890278887
3586.6587512900705, 0.8973935243339904
3576.7430280453477, 0.9078555099771073
3566.8273048006254, 0.8921008701805249
3551.2454539874902, 0.9066081638878618
3545.5793264190775, 0.9021943203472282
3537.0801350664583, 0.9096402521344551
3528.5809437138387, 0.9058161371201972
3510.166029116497, 0.9076985116798695
3503.083369655981, 0.9063026304778022
3494.584178303362, 0.9095312942849089
3481.8353912744333, 0.9077886927902362
3466.2535404612977, 0.9109053012684212
3445.00556207975, 0.9090692394676763
3433.6733069429242, 0.9108985058156045
3419.507988021892, 0.9062497611722996
3409.5922647771695, 0.9045190210496602
3399.676541532447, 0.9071369169000538
3382.678158827209, 0.9095228901352397
3374.1789674745896, 0.9111439575344449
3367.0963080140737, 0.9105969664751387
3361.430180445661, 0.9107183806562765
3350.097925308835, 0.9118285770370868
3337.349138279906, 0.9096469276729421
3324.6003512509774, 0.9108366955132032
3309.018500437842, 0.9102030386782234
3294.85318151681, 0.9102699748570061
3275.021735027365, 0.9107345930736385
3253.7737566458172, 0.9137902850723866
3233.942310156372, 0.9123046387704346
3216.9439274511337, 0.9102054830857114
3208.444736098514, 0.9124405976373351
3198.5290128537918, 0.9122859229108378
3192.862885285379, 0.9119817011790605
3178.697566364347, 0.9145126932699572
3170.198375011728, 0.9146404859710119
3164.532247443315, 0.9144455781420979
3153.1999923064895, 0.913686692005463
3137.618141493354, 0.9124439349453697
3129.118950140735, 0.912614404233911
3114.953631219703, 0.9095888725338932
3097.955248514464, 0.9063075174479425
3073.87420634871, 0.8927392949937332
3031.3782495856135, 0.9055426706467086
3014.379866880375, 0.8606796851883918
2980.383101469898, 0.823662935989298
2956.3020593041438, 0.6968802807121421
2925.1383576778735, 0.5658975236523571
2871.310145777951, 0.8003266444448295
2854.311763072713, 0.7468723055229466
2748.0718711649724, 0.8970913282319655
2736.739616028147, 0.8984450687713574
2726.8238927834245, 0.8988029355621082
2709.825510078186, 0.903401076358322
2678.6618084519155, 0.9016706341766708
2672.9956808835027, 0.9013292187095232
2651.7477025019543, 0.9064306012055156
2629.0831922283032, 0.9092807766468519
2619.167468983581, 0.9094998831874791
2605.002150062549, 0.9095334407514087
2595.0864268178266, 0.9120110266895731
2578.088044112588, 0.9138352861530318
2569.5888527599686, 0.9138846982361702
2541.2582149179043, 0.9184971448119054
2534.1755554573883, 0.9186987272568884
2522.843300320563, 0.9183344238338919
2511.511045183737, 0.9171313639514036
2498.7622581548085, 0.9191654910176026
1729.5854407427678, 0.7380509370044314
1708.3374623612194, 0.46268510816462977
1684.2564201954651, 0.7217113366597018
1653.0927185691944, 0.8737317317987482
1631.8447401876465, 0.6206926698919757
1609.180229913995, 0.4384059902036813
1576.5999963956215, 0.6007339951227533
1542.6032309851444, 0.7926206581406707
1527.0213801720092, 0.8552470799432679
1497.2742104378417, 0.6358301041771814
1470.360104487881, 0.5886374111319629
1457.6113174589523, 0.5414905539556071
1425.0310839405784, 0.5291907779005632
1385.3681909616885, 0.6874469515505434
1368.3698082564501, 0.6343737243509953
1340.0391704143858, 0.7363263955302144
1308.8754687881155, 0.7884135838009844
1296.1266817591868, 0.7354187962540992
1250.7976612118841, 0.6389459959366426
1225.3000871540262, 0.508608639014377
1201.219044988272, 0.4856322103730381
1191.3033217435495, 0.560135423346866
1162.9726839014852, 0.5898015495903168
1140.308173627834, 0.4298444087009011
1110.5610038936666, 0.375317692532928
1066.648515238467, 0.5096938009728385
1043.984004964816, 0.48723965827165444
1018.4864309069585, 0.6051626204105549
995.821920633307, 0.5168818828219622
971.7408784675526, 0.6782637830512666
932.0779854886628, 0.6744921794443585
922.1622622439404, 0.5382999777068352
905.1638795387021, 0.7305794348700442
869.7505822361218, 0.7758494012612621
842.8364762861606, 0.4275895654748045
800.3405195230648, 0.4532774978594765
774.8429454652069, 0.5982149833958016
735.180052486317, 0.7107766265912717
713.9320741047691, 0.49589541495439493
661.5203940969504, 0.7275524734222503
643.1054794996089, 0.7227935192082816
610.525245981235, 0.7555575362254848
559.5300978655196, 0.7191458341471642
528.3663962392493, 0.7320435639291764
490.1200351524626, 0.6915186038705587
446.20754649726314, 0.7340499160693863
420.70997243940565, 0.7268701784127668
400.8785259499605, 0.8817176811658062
383.88014324472215, 0.8170788875236532
##END=

##END=

