##TITLE=LSH-R89A
##JCAMP-DX=5.0
##DATA TYPE=LINK
##BLOCKS=1


$$ === CHEMSPECTRA SPECTRUM ORIG ===
##TITLE=LSH-R89A
##JCAMP-DX=5.00
##DATA TYPE=INFRARED SPECTRUM
##DATA CLASS=XYDATA
##$CSCATEGORY=SPECTRUM
##ORIGIN=Angelika Moesle
##OWNER=
##XUNITS=1/CM
##YUNITS=TRANSMITTANCE
##XFACTOR=1
##YFACTOR=8.872586e-010
##FIRSTX=3997.453
##LASTX=373.96442
##MAXX=3997.453
##MAXY=0.9526866666364278
##MINX=373.96442
##MINY=0.3974065482091616
##NPOINTS=2559
##XYDATA= (X++(Y..Y))
2559I92717442I92872960I92810820I92458871I91832231I91162798I90801110I90852703
2551I91056388I91134449I91087558I91068816I91179055I91461272I91886646I92290926
2543I92482048I92431463I92251290I92039813I91861320I91796626I91906934I92185859
2535I92552183I92805714I92694063I92243363I91925273I92174774I92773267I93043794
2527I92712067I92227173I92153277I92524102I92991127I93321241I93453717I93400982
2519I93330781I93426174I93581826I93510214I93172105I92949879I93295512I94118112
2511I94723255I94644052I94147872I93823467I93864715I93876068I93508602I92969764
2503I92835877I93443775I94468783I95277141I95485663I95055923I94184686I93186280
2495I92330292I91730322I91362923I91294602I91848018I93078324I94245146I94535492
2487I94005655I93328900I93143083I93489187I93699120I93490598I93550924I94477517
2479I95500174I95586162I95215539I95243821I95318859I94832622I94000617I93211875
2471I92650330I92695541I93549850I94305607I94123083I93606951I93741577I94512113
2463I95058946I94916998I94157882I93007048I92095907I92833392I95804895I98277532
2455I98749393I98320862I97644778I96724770I95668187I94842430I94444330I94434791
2447I94844580I95519520I95866767I95570577I95043495I94981824I95573733I96276757
2439I96486689I96015097I95061633I94192949I94306816I95670337I97118234I98015536
2431I98747915I99209969I98935545I98001026I96795642I95906603I96080058I97103387
2423I97605949I97337706I97486103I98409538I98962147I98918884I99015017I99357560
2415I99528126I99447982I99222598I98811802I98274912I97839932I97498061I96974337
2407I96391497I96520413I97917456I99777962A000609161A000004018I98727762
2400I97792302I97688646I97985507I97992763I97899989I98230776I98682685I98606908
2392I98111937I97892465I98185565I98450449I98208069I97409318I96442351I96310950
2384I97497187I98908606I99964114A001123278A002178718A001959045A000427040
2377I98513463I96930336I96090874I96215960I97286314I98873203A000212540
2370A000811637A000790476A000575572A000429593A000342799A000345083A000547155
2363A000883115A001100167A000885130A000046206I98870046I98325968I99334921
2356A001134295A002016818A001588287A000474804I99458395I99147627I99582876
2349A000155304A000365303A000184929I99819747I99636149I99906542A000420188
2342A000748555A001110514A001933382A002651251A002577086A001823277A000986502
2335A000427914A000100755A000208442A001363978A002992450A003492661A003002594
2328A002829744A003435089A003838966A003425819A002575004A001876415A001630408
2321A001699669A001818910A001993507A002272029A002272029A001611195A000473125
2314I99463299I99257060I99952895A001012500A001970599A002518910A002605637
2307A002617662A002972969A003453832A003415473A002581453A001292702A000157185
2300I99882761A001108230A003130637A004233841A004159609A003453698A002470676
2293A001533738A000939545A000594717A000309007A000338163A000997788A002084734
2286A003063660A003557757A003397604A002752220A002209083A002264975A002916337
2279A003684254A004034590A003896269A003594571A003488362A003757747A004257017
2272A004711748A005152304A005805279A006313013A005917601A004828236A003918841
2265A003643477A003800002A004012421A004188495A004448409A004807477A005027823
2258A004820040A004241432A003880617A004370750A005386287A006069290A006220038
2251A006068081A005787678A005485778A005220894A004884531A004272065A003402642
2244A002678257A002581453A003270502A004463658A005587553A006233810A006428828
2237A006293666A005885423A005422293A005237016A005351085A005399655A005137727
2230A004726259A004436720A004321441A004351806A004723706A005593196A006502121
2223A006615048A005758523A004735932A004348850A004468226A004430472A004122459
2216A004066768A004478639A004859138A004754675A004419724A004439743A004998802
2209A005650365A005935874A005992707A006206468A006537053A006573733A006186516
2202A005743878A005735413A006354798A007291669A007939874A008000939A007716102
2195A007365968A006888866A006230921A005713110A005724060A006251276A006909961
2188A007343195A007420651A007156237A006649913A006088234A005633100A005332813
2181A005204838A005316824A005696114A006228436A006727907A007086372A007318406
2174A007501064A007732023A008080881A008462589A008643702A008537762A008337973
2167A008237541A008253059A008375995A008650285A009032464A009365803A009553298
2160A009678451A009910822A010277616A010532424A010346541A009701964A009014258
2153A008756965A008969920A009242463A009232588A009049661A009055775A009414104
2146A009848682A009901081A009524411A009202828A009255496A009397914A009361235
2139A009450448A009991772A010684247A011009189A010961291A010951013A011166319
2132A011387874A011419649A011397346A011524246A011710330A011704284A011477356
2125A011275283A011309813A011527672A011706434A011721818A011637509A011514908
2118A011285427A010924477A010616800A010667721A011289122A012388228A013468928
2111A013933802A013669858A013210828A013145396A013446960A013532075A012922297
2104A011699783A010354267A009409939A009189930A009625649A010251348A010587510
2097A010441128A009732597A008429336A006897533A005854386A005670384A006033887
2090A006373608A006281977A005638676A004692334A003932008A003729331A004209455
2083A005359147A007009183A008797406A010285745A011126415A011300475A011230072
2076A011338565A011505436A011273066A010465380A009355793A008467493A008337973
2069A009142569A010456646A011622595A012292297A012436059A012081760A011384179
2062A010796435A010828681A011557701A012538036A013235886A013431173A013250462
2055A012996663A012881788A012833621A012656606A012327566A011913478A011333728
2048A010505754A009682884A009398519A010000639A011271991A012575857A013423985
2041A013782920A013815031A013612757A013270550A012967373A012891730A013151106
2034A013671874A014145616A014218303A013781777A013111538A012752066A013079158
2027A013805962A014206614A014008572A013649906A013478870A013229705A012587143
2020A011793632A011340849A011404736A011833065A012386145A012830867A013027632
2013A013005867A012841078A012520771A012031040A011485551A011079861A010940331
2006A011007980A011097730A011095916A011014429A010870398A010695263A010621704
1999A010728921A010837414A010669871A010182021A009590448A009111533A008749844
1992A008290411A007480172A006298839A005042065A003958006A002834850A001246349
1985I99225621I97342274I96074885I95445356I95235021I95161796I94821940I93838448
1977I92241617I90584190I89531975I89309345I89609364I90032723I90453058I90919276
1969I91435543I92014822I92763056I93674398I94460924I94869167I95113092I95703926
1961I96807063I97958569I98497071I98236083I97638732I97284164I97260182I97226660
1953I96951094I96545000I96228187I95979694I95443408I94291365I92677470I91088499
1945I89782214I88640449I87426065I85916095I83956433I81655840I79458568I77920249
1937I77341171I77476065I77626343I77152870I75902746I74227182I72745158I71947616
1929I71828912I72019698I72325696I72879381I73741549I74718525I75658889I76625721
1921I77655835I78594318I79294451I79758117I79941514I79668904I78925104I78044999
1913I77446104I77270096I77337678I77327802I76952611I76036566I74496769I72250456
1905I69142916I65091250I60414422I55933083I52591225I50957781I51024086I52286973
1897I53995052I55513487I56531105I56919598I56561672I55461961I53916588I52408432
1889I51302205I50670862I50418002I50456630I50722522I51156428I51732550I52363221
1881I52759238I52584708I51796235I50677042I49507802I48323580I47041614I45705838
1873I44447317I43242942I41868606I40099260I37875049I35335436I32756926I30373032
1865I28290164I26694408I25949265I26219725I27165799I28294867I29531488I31220824
1857I33582952I36290646I38686296I40388060I41529153I42359344I42842223I42789421
1849I42161772I41023703I39344981I37032430I34148460I31028693I28124771I25682298
1841I23567117I21419624I18939262I16069802I13029978I10137006I07501798I04946263
1833I02282167H99567420H97038823H94939430H93499192H92916687H93211802H94201408
1825H95712587H97689178I00065951I02724739I05586003I08561067I11487293I14284804
1817I17015540I19662639I22101418I24393545I26786711I29279434I31453664I32913855
1809I33695140I34057635I34008191I33306378I31912023I30129241I28270616I26442422
1801I24652922I22928721I21327254I19908177I18612775I17184964I15377260I13234268
1793I11005556I08777919I06354994I03541159I00365499H96937384H93313242H89660549
1785H86321780H83528367H81210845H79183870H77425743H76213777H76012309H77090926
1777H79268582H82163099H85516580H89117680H92683444H96064266H99340021I02511582
1769I05243057I07081529I07915079I08108822I08073755I07726577I06557336I04297588
1761I01307677H98147939H94971877H91550345H87759869H83834364H80147142H76853988
1753H73758741H70551575H67179016H63873233H60840462H58107240H55661542H53535278
1745H51723139H50157613H48787576H47653806H46880380H46528097H46469786H46529239
1737H46699603H47076676H47672011H48452356H49469840H50796950H52364089H53934250
1729H55276207H56377060H57435255H58603488H59829964H60991009H62039665H62985671
1721H63848377H64626572H65226274H65494853H65430093H65243539H65089162H64869153
1713H64456207H63959356H63596725H63440201H63453838H63631256H63927244H64202541
1705H64370891H64466486H64496312H64376534H64065901H63655440H63306381H63179683
1697H63404663H64049039H65108174H66525572H68181655H69846605H71229406H72150825
1689H72595815H72536094H71869348H70692986H69456298H68610723H68199323H67976223
1681H67844688H67988920H68575455H69507421H70569982H71709597H73029452H74561255
1673H76169171H77663756H78932891H79959243H80738581H81199290H81241814H80854531
1665H80116307H79124686H78015771H77009842H76309103H75939219H75760658H75612396
1657H75383586H74999124H74479364H74020603H73858300H74044787H74512483H75302569
1649H76475706H77837010H79028218H79886288H80482093H80888456H81130903H81289242
1641H81438311H81568100H81702591H82002879H82624682H83555977H84683231H85939334
1633H87284783H88617402H89825337H90938484H92134596H93551591H95137069H96702192
1625H98077805H99202775I00140720I01064155I02124097I03255852I04200649I04803576
1617I05188374I05583719I06109121I06791721I07634072I08568724I09473821I10318522
1609I11218579I12309893I13624978I15075091I16494572I17762094I18924416I20076862
1601I21106371I21800123I22252368I22848980I23791225I24942193I26122115I27223572
1593I28103274I28683830I29112832I29629837I30338233I31162513I31966907I32747722
1585I33677875I34807951I35835176I36424264I36661672I36955981I37589138I38502093
1577I39364798I39772034I39566334I39062428I38783906I38888570I39003513I38703695
1569I37985356I37192180I36644475I36428698I36462488I36693784I37191038I37998792
1561I38978857I39880997I40509317I40840843I41096726I41602713I42443116I43422309
1553I44397874I45386539I46396231I47472429I48730413I50042878I50974508
1546I51313961I51387656I51676120I52388077I53398239I54376827I55060838
1539I55492863I55857843I56198303I56563082I57191805I58151181I59004211
1532I59259289I59025172I58869117I59068435I59335335I59392571I59541506
1525I60304720I61607242I62737923I63181636I63096790I62930724I62973988
1518I63374506I64174198I65183957I66064867I66595376I66755126I66692784
1511I66777362I67439137I68707600I70041629I70794834I70804508I70467877
1504I70321360I70616139I71284296I72164804I73088507I73810877I74126952
1497I74103977I74022758I74049561I74114255I74168737I74367921I74818889
1490I75352219I75808965I76354185I77160125I78026055I78666870I79125632
1483I79597292I80119335I80657770I81212463I81693796I81939871I81955523
1476I81961704I82160216I82547297I82956616I83194294I83176156I83078948
1469I83311251I84123976I85228188I86010078I86204224I86197439I86578273
1462I87511986I88675315I89657665I90248701I90474085I90565649I90780419
1455I91107645I91349689I91509506I91757865I91975859I91735090I90866138
1448I89820103I89312906I89636706I90391052I90932779I90977856I90694565
1441I90423164I90475092I90982962I91764045I92437509I92729534I92614457
1434I92287970I92079985I92213536I92561588I92795637I92769706I92576837
1427I92300129I91944957I91566205I91272165I91123163I91123969I91240927
1420I91409679I91612692I91942202I92510398I93349322I94415108I95568360
1413I96578321I97383992I98320862I99777761A001617980A003237182A004168342
1406A004386269A004159071A003940943A004238678A005131009A005997342A006126459
1399A005472880A004510414A003629101A002976865A002634054A002661328A002987009
1392A003380272A003743774A004317344A005204300A005950653A006019108A005515605
1385A005054358A005039310A005371978A005687649A005642908A005122611A004356307
1378A003846490A004104791A005273158A006879596A008188702A008935727A009494584
1371A010230860A010953162A011209448A010962097A010644276A010593355A010750015
1364A010952155A011215897A011571876A011882374A012034332A012172988A012528900
1357A013082786A013584743A013855069A013867833A013587565A013064513A012717671
1350A013049667A013966451A014889012A015643493A016624030A017896994A018822914
1343A018917233A018581610A018546274A018920525A019316676A019751052A020774314
1336A022597402A024599991A025913598A026168070A025584961A024719703A024296479
1329A024936354A026614538A028487003A029594439A029672635A029125735A028418145
1322A027660305A026683799A025564338A024925807A025209837A025832312A025943560
1315A025841180A026588473A028371389A030215638A031268056A031568343A031587758
1308A031706395A032268007A033450884A034632485A034501690A032488889A029689631
1301A027793184A027448424A028005669A028427751A028157157A027368616A026688099
1294A026746477A027842493A029664036A031231846A031541405A030619045A029727923
1287A030053671A031345983A032360511A032365550A031598909A030764486A030785177
1280A032232738A034277381A035226075A034608167A033451019A032323563A030836501
1273A029144881A028281034A028727367A030012491A031849552A034259511A036326054
1266A036455977A034695498A033441614A034921488A038859219A042898792A044838368
1259A044341517A042619733A040958478A039915465A039577020A039764784A039787020
1252A038933115A037592569A036951351A037313913A037718663A037425429A036882762
1245A036975670A037973001A039447232A040844006A041894005A042599244A042961470
1238A042857209A042303524A041683064A041357518A041133679A040628900A040134064
1231A040388536A041379418A042117574A041810300A040694265A039651253A039376358
1224A039760350A039917548A039110936A037617224A036406803A036279029A037487637
1217A039674899A041928467A043304080A043515826A043022199A042462469A042064369
1210A041646116A041086856A040506434A040053248A039865888A040115724A040831175
1203A041843419A042952132A043983254A044902994A045869624A046807570A047304959
1196A047446571A047997233A049176080A050178248A050506146A050712383A051218573
1189A051296164A049967240A047431053A044936516A043581527A043823168A045520767
1182A047809738A049588824A050508094A051077498A052030626A053643849A055096247
1175A054961755A053177295A051722344A052357315A054603963A056680516A057517895
1168A057425256A057171859A056875132A056296725A055809010A055970776A056503232
1161A056732982A056667617A056694086A056554287A055541237A053794933A052707247
1154A053435260A055369797A056776850A056579681A055181295A054015346A054205931
1147A055424749A056592243A057390726A058146215A058762644A058834324A058149708
1140A056454863A053908196A051875847A051820626A053452458A055108003A055661083
1133A054997830A053331402A051566826A051454907A053576872A056075507A056823269
1126A055899768A054729721A053814482A052784166A051613918A050386770A048556963
1119A045404077A041096597A036888203A034138724A033153284A033233361A033905279
1112A035567140A038628931A042658092A046743280A050148488A052508332A053848407
1105A054439376A054570575A054535508A054610211A054764654A054577360A053731651
1098A052490261A051561250A051589600A052635433A054019039A055099673A055984883
1091A056916514A057544430A057522126A057224191A057276792A057837933A058468671
1084A058608470A058184641A057671196A057530995A057736225A057880860A057657693
1077A057074652A056353088A055826409A055711534A055828559A055863827A055916227
1070A056360209A057142703A057781570A057985524A057951666A058119881A058646157
1063A059171962A059242836A058855283A058429238A058406666A059011876A060108564
1056A061084801A061290031A060621068A059233498A057215390A054777485A052467353
1049A051021807A050894639A051968150A053787611A055787714A057302319A057903365
1042A057844181A057851503A058426886A059274275A059454246A058628489A057313672
1035A055819624A053901613A051406740A048843681A047040343A046578760A047400285
1028A048657530A049732519A050933467A052538361A054159779A055276419A055663770
1021A055412791A055001995A054910162A055102226A055240747A055087043A054629894
1014A054091929A053659905A053290759A052963331A052768917A052657871A052467487
1007A052199916A051931135A051716500A051728793A052190712A053086335A054024683
1000A054658646A055099203A055680833A056423088A056988193A057345448A057812405
993A058438105A059067433A059708315A060456011A061445684A062623053A063349991
986A063309213A063091018A063216843A063745672A064766918A066342387A068061214
979A069534169A070751845A071572295A071896431A071996997A072113015A072358821
972A072858494A073429107A073741823A073730403A073423599A072897793A072225270
965A071168620A069580791A067795927A065914392A063669021A061610741A060560473
958A060414629A060897642A061730386A062473514A062850183A062808533A062227506
951A061059811A059592768A058175571A057018423A056224037A055370335A053861507
944A051551375A048324862A043725893A037996580A032173822A025649789A015479242
937I99504613I79387292I55036318I25019582H94938422H70052440H47924132
930H25175498H02682075G81645820G57488992G23688431F86601635F56737864
923F32241785F09771741E88518768E68249488E49844042E35076878E24186011
916E16479334E11616892E08674476E06788945E06851489E10696076E17976473
909E25806556E32569913E38230435E43905972E54808561E76835564E96756792
902F04576093F09047221F18169650F32146258F44197935F52739807F60652352
895F69251595F78696412F91147667G10502446G33024554G49546418G60806666
888G71946866G85583753H00783680H15256804H28863258H42219003H52814453
881H57416781H55023146H43054367H17496465G82158257G45389417G11391351
874F84641637F71052783F71973665F82428309F96626942G11158309G23931214
867G33903851G42103719G50990687G62335715G75832601G89629775H02269129
860H13599982H23866996H33031276H41082008H48198488H54506879H59898621
853H64062609H67013422H69721451H73414922H76963018H77892297H76083384
846H71789607H64044202H52436373H37621983H20084851H01575579G84827727
839G71511751G65351758G73646951G90613335H08103442H25916006H42710884
832H57158144H69589177H79824685H87559006H93970919I00362409I06880128
825I14135668I22241888I27760328I30141468I32110804I35875550I41432685
818I46406308I49778799I52601368I55508247I57799434I58984395I59792887
811I60897704I62011791I62746790I62867644I61713317I58388522I52083423
804I42101648I26704552H98281826H44940401G86175863G55049004G44582805
797G43622960G50698327G68302369G96862139H28362443H52128964H65819862
790H70470088H62968071H40617603H12998265G94546364G91581578H03319263
783H24529376H47515888H66703124H81151258H92350709I02180862I12259710
776I22235439I30247878I36398400I42458231I50060344I59077504I67090346
769I72537375I76246767I79990554I85328620I90975639I94025943I94796077
762I94449369I93126558I90050458I83692287I72102261I53024525I24353307
755H87372653H49110301H18419161H02558130H05736612H22258610H41921067
748H62166094H83957234I05297539I22701389I35943401I47078226I56967093
741I65086212I71884132I78908847I85989118I91312875I94914378I97940028
734A000897424A003771183A006398733A008694892A010895792A013202834A015259300
727A016738300A017932263A019169421A020315351A021081655A021409150A021361588
720A020979141A020351761A019755217A019599967A020075792A020966242A022002537
713A022914619A023092037A021493056A016690402A006267667I85573754I49301564
706H97886078H39005926G82669015G40301255G20882387G24054889G43470801
699G72178296H01796193H25477398H41858859H52207630H58382269H64018808
692H73756994H89806259I10228100I30735124I47977544I61072636I70663769
685I77738330I83186299I87508829I90774440I93110637I94933793I96503215
678I97469644I96749626I92765070I83943400I69281035I49132879I26099005
671I04670361H88471624H76428345H61290356H33986017G92037249G43915320
664G05354427F89793685F99774990G27674598G63124927G98726004H31454465
657H61027689H87633708I11071122I31155392I48049626I62062779I73384563
650I82140264I88708904I93914293I98631831A002915666A005540999A004653034
643I99190823I90285784I81602702I77516171I79978664I87215864I95693110
636A002915061A008260516A011998257A014148505A013983850A009844785I98802599
629I76815768I41337359H96416281H54882272H31852430H34208176H56781407
622H87650839I16308890I38126161I53420072I64184745I71924507I77443954
615I81434286I84588851I87007275I87438627I83102394I70735447I48924357
608I20264625H90795595H65822415H45501744H25366150H02097421G78208098
601G60225841G53002077G56938666G69934402G90082424H16072148H46092041
594H77281175I06425062I31142494I50533079I64956222I75364849I82765427
587I87978406I91516425I93482268I93554552I90950178I84238044I71214901
580I49204760I15995369H71284222H17709017G60334335G04894659F56375773
573F18725148E94813589E85760287E90283814F05278914F27367721F53907637
566F82778241G11855823G39071285G62808919G82050771G96052973H03805433
559H03835596G94565980G75104118G46760394G14515887F85603968F64751311
552F50903686F39145512F25099172F07544440E88398518E70703785E55746776
545E42005091E27255460E11277305D96368092D85948045D82456144D85047518
538D88549967D86012906D74413541D58500246D47903856D49634406D63652362
531D85198166E09662604E34756269E59683130E83864847F06570755F27190840
524F45613586F62433118F78802017F95849754G14023671G32946560G51827126
517G69927482G86806938H02371711H16779067H30258689H42957495H54867695
510H65867425H75837779H84745438H92666179H99784876I06328795I12415699
503I17896317I22321629I25150916I26156443I25730465I24804141I24346790
496I24728901I25383689I24928085I21417609I12455535H95373268H67919726
489H29604438G83034062G33733286F87726672F48617671F16853221E91503707
482E72235521E59606143E54032986E54840404E60319343E68588202E78268346
475E88537981E99017279F09725791F20862699F32459846F44246505F55741608
468F66371051F75576780F82953107F88361508F92048127F94557040F95848008
461F94249161F87741989F77745703F70372198F71650805F81893770F96346404
454G10433386G22598192G33065331G42161694G50077531G57076247G63478823
447G69614028G75767371G82050637G88299239G94048437G98460448H00482653
440G99945629G98693893G99246033H01750243H04019867H05274558H07626811
433H12886211H20013238H26748078H32098975H36428155H40231260H43552293
426H46174335H47856685H48208767H46103260H38623412H21313410G92974590
419G62285599G45554676G52950014G78490247H06793261H27242713H38834352
412H45018328H48702864H51369714H53623013H55556341H57061877H57993642
405H58230580H57764832H56614536H54597705H51327996H46511033H40161663
398H32443667H23452303H13359013H02552219G91382528G80229497G70340563
391G63961634G62377432G63588324G62854534G56224224G43296204G26496288
384G08526997F91041794F74957664F60975010F49628841F41139032F35412137
377F32302649F31840999F34050027F38624408F45005554F52747734F61675144
370F71663099F82333856F93087847G03490495G13538105G23527471G33757335
363G44242748G54558870G64109763G72682806G80630955G88457176G96185786
356H03008562H07736648H10025753H11089927H12899109H16739566H22599810
349H29583008H36622166H42952256H48307183H52942697H57330053H61596891
342H65492636H69101932H73034692H77396991H80781105H80274310H72293512
335H54652321H29742288H05339654G89917702G86354760G91133430G99062837
328H07189547H14860384H22438245H30675867H40180809H50917603H62398262
321H74085967H85395188H95730658I04841800I12984767I20613416I27921489
314I34730964I40871073I46548256I52216570I58123503I64027278I69427014
307I73564399I73751693I64463265I42792242I16663525I02146064I08604867
300I30040902I53419669I71060390I82698651I90626580I96679088A001912221
293A006705873A011034247A014763523A017597378A019044670A018633740A015938272
286A010263576A000066762I81752644I48564751H92785891H12254801G15088180
279F16759574E33323118D77202656D54761498D63863940D95437738E40101724
272E92609195F49843476G07283390G58752148G97441015H14595701G99128470
265G45636096F66788968E92659176E51276823E49979540E76754077F15066140
258F54327972F90482197G22457050G49473798G69356130G77525296G69723999
251G48998645G28368148G22083739G33985474G56751574G80773239H00950820
244H16676687H28972154H38862029H47225274H54807839H61992169H68762547
237H75029354H80920634H86671780H92259817H97373909I01864519I05901742
230I09564444I12782829I15824870I19156719I22657992I25629361I27702152
223I29278158I31089355I33611771I36796970I40192772I43352376I46102258
216I48437715I50460728I52460092I54641510I56767506I58531343I60303778
209I63130379I67093167I70677137I73351108I75609042I77754050I79824623
202I81813508I83447959I84027373I82776108I78954260I70767761I53197779
195I17939177H60368064G90463863G33789716G15131309G38794846G87362302
188H38471857H79449358I08549109I28878782I43841300I55668534I65323150
181I73121761I79611668I85690846I91787894I97418118A002033747A005948234
174A009996406A014585836A019347309A023634301A027345036A031066655A035100720
167A038707463A040930128A041741845A041670838A040764735A038116830A030531578
160A009392742I60652637H74528472G60274143F50186422E82709781E74968474
153F11235357F57650685F82068904F65662520F10817776E40422098D83983412
146D60258675D69857332E01475198E41944294E82324043F19100743F51741267
139F80341948G05309620G27339176G46807419G63538007G76841285G85356018
132G87744077G84990500G81930589G84674358G95615307H12062200H29662682
125H45298194H57202952H64942310H69710837H73227225H76159094H78054936
118H78309476H76670255H72928013H66473307H56328220H41504426H21549072
111G96935833G68551332G37668465G08042707F86237998F77340214F82374835
104F99501104G24717672G52363344G77831025G99961214H19720273H37761445
97H54047245H68601923H81624664H93404470I04423413I14889410I24259122
90I31849211I37557564I41546351I43906061I44813708I44476338I42541129
83I37195136I24357069H97892057H53568329G98250448G54218880G43991231
76G68754547H06717014H28897989H15435565G62472020F85709572F21626786
69F01853620F23434760F58716068F80009212F74534776F47417260F16065284
62F00542364F13511833F51894030F97084494G34591289G64200722G88496139
55H06849758H19541646H29460206H39400599H50707536H63255997H74908433
48H82968233H87362374H90397899H93906091H97957824I02024337I05940705
41I09514799I12652301I15830446I19330845I22082743I22231879I19385193
34I16034735I17067738I24050332I31162043I35176223I37596729I39501641
27I40133454I39116977I38191594I39339270I42268922I45476491I48919453
20I53371032I57155999I56546355I53311512I53612537I57417055I61071158
13I63592164I66637295I71107482I74951768I74164773I67741574I60701811
6I57213840I55164226I46585137I19832332H74930535H42901334
$$ === CHEMSPECTRA ===
##$OBSERVEDINTEGRALS= (X Y Z)
##$OBSERVEDMULTIPLETS=
##$OBSERVEDMULTIPLETSPEAKS=
##END=


$$ === CHEMSPECTRA PEAK TABLE EDIT ===
##TITLE=LSH-R89A
##JCAMP-DX=5.00
##DATA TYPE=INFRAREDPEAKTABLE
##DATA CLASS=PEAKTABLE
##$CSCATEGORY=EDIT_PEAK
##$CSTHRESHOLD=0.93
##MAXX=3997.453
##MAXY=0.9526866666364278
##MINX=373.96442
##MINY=0.3974065482091616
##$CSSOLVENTNAME=
##$CSSOLVENTVALUE=0
##$CSSOLVENTX=0
##NPOINTS=0
##PEAKTABLE= (XY..XY)
##END=


$$ === CHEMSPECTRA PEAK TABLE AUTO ===
##TITLE=LSH-R89A
##JCAMP-DX=5.00
##DATA TYPE=INFRAREDPEAKTABLE
##DATA CLASS=PEAKTABLE
##$CSCATEGORY=AUTO_PEAK
##$CSTHRESHOLD=0.93
##MAXX=3997.453
##MAXY=0.9526866666364278
##MINX=373.96442
##MINY=0.3974065482091616
##NPOINTS=92
##PEAKTABLE= (XY..XY)
3988.953808647381, 0.879096805737046
3981.871149186865, 0.8793343301878176
3967.7058302658324, 0.8799800867567421
3957.79010702111, 0.8800942290265977
3949.290915668491, 0.8802965275364322
3940.7917243158718, 0.8813412780869666
3933.709064855356, 0.8810033195117094
3925.2098735027366, 0.8817784179775662
3918.1272140422207, 0.8809021702567922
3902.545363229085, 0.8795346607580772
3892.6296399843627, 0.8811747423095223
3888.380044308053, 0.8814830770946428
3881.297384847537, 0.8830135458313854
3872.798193494918, 0.8807375420853379
3865.715534034402, 0.8815863122945286
3855.799810789679, 0.8802456255105502
3840.217959976544, 0.8823208204539525
3831.718768623925, 0.8828061810749449
3823.2195772713058, 0.8821062440596114
3809.054258350274, 0.8836266983085358
3803.3881307818606, 0.8848964567527715
3782.1401524003127, 0.8840569246801242
3770.807897263487, 0.8852078312858556
3766.5583015871775, 0.8853953471801553
3759.4756421266616, 0.885388671446449
3750.976450774042, 0.88398545866167
3736.81113185301, 0.8837901943380163
3712.7300896872557, 0.8857733007113248
3168.7818431196247, 0.877773224411617
3116.370163111806, 0.8671543591038205
3105.0379079749805, 0.8622635599006432
3080.9568658092257, 0.8670912971988256
3063.9584831039874, 0.8437454694291666
3045.543568506646, 0.8432665458693172
3011.546803096169, 0.8215564485349289
2961.9681868725565, 0.7922480096242581
2892.5581241594996, 0.7772494548661074
2835.8968484753714, 0.7510375972686596
2794.8174236043783, 0.7660947439229786
2777.8190408991395, 0.7658635970870238
2753.737998733385, 0.7700026628923168
2714.075105754496, 0.7753382918563799
2600.7525543862394, 0.8329440941400915
2590.836831141517, 0.8308544155873028
2539.841683025801, 0.8507648703326561
2525.676364104769, 0.8543685669604849
2514.3441089679436, 0.8577064861619423
2503.011853831118, 0.860925971423696
2491.6795986942925, 0.8642100686312187
2454.849769499609, 0.8722452510919527
2446.3505781469894, 0.8750121590507254
2422.269535981235, 0.8777763839394915
2413.770344628616, 0.8787614698982104
2402.4380894917904, 0.880231498579121
2388.2727705707584, 0.8793825500309518
1665.8415055981231, 0.449652849836177
1609.180229913995, 0.5953973527706837
1559.6016136903827, 0.6790649293106188
1501.5238061141513, 0.659785866417456
1484.525423408913, 0.7023375626820708
1437.779870969507, 0.7120766037296765
1366.953276364347, 0.6396090974542782
1311.708532572322, 0.612025379241941
1279.128299053948, 0.8673096293588206
1257.8803206724, 0.738068222448398
1222.4670233698198, 0.6681075686361122
1181.3875984988272, 0.5197208521792182
1137.4751098436277, 0.4280633628868384
1128.9759184910085, 0.3974065482091616
1076.56423848319, 0.820134638809894
1052.4831963174352, 0.49157053151217955
1021.3194946911649, 0.5947934978764028
994.4053887412038, 0.7086480253317298
964.6582190070367, 0.6614997980512136
924.9953260281468, 0.6764259329879152
905.1638795387021, 0.5606063601953414
841.4199443940574, 0.697700023460936
800.3405195230648, 0.8004368537401504
763.5106903283813, 0.4034910500493828
742.2627119468334, 0.48797407668904397
725.2643292415946, 0.6406750073479054
643.1054794996089, 0.6345064040395074
590.6937994917903, 0.5101457232853763
579.3615443549647, 0.408368467618355
556.6970340813132, 0.6937746396933153
522.7002686708365, 0.6009759299973404
481.62084379984344, 0.6601126189165951
470.2885886630179, 0.533999800286132
460.3728654182951, 0.5328363771233304
420.70997243940565, 0.8127596965274709
407.96118541047645, 0.8324185602242083
396.6289302736509, 0.8458338375010032
##END=

##END=

