##TITLE=X9463
##JCAMP-DX=4.24
##DATA TYPE=INFRARED SPECTRUM
##DATE=5/11/2018
##SAMPLING PROCEDURE=ATR platinum Diamond 1 Refl
##ORIGIN=ComPlat
##XUNITS=1/CM
##YUNITS=TRANSMITTANCE
##RESOLUTION=4
##FIRSTX=3997.453
##LASTX=373.96442
##DELTAX=-1.4165319
##MAXY=1.1344297
##MINY=0.79678762
##XFACTOR=1
##YFACTOR=1.05652e-009
##NPOINTS=2559
##FIRSTY=1.0007261
##XYDATA=(X++(Y..Y))
3997+947190890+946794060+946302902+945860206+945768586+946220478+947078510
3988+947957020+948501660+948610430+948424031+948109569+947680581+947067565
3978+946333480+945703651+945344563+945247753+945408878+945927454+946806471
3968+947787772+948415682+948263020+947344793+946318078+945844014+945847399
3958+945914309+946006944+946138055+945792845+944354350+942068880+940301197
3948+940277051+941400012+941975117+941658567+941837518+943326901+945161606
3938+946181269+946046379+944699051+942233390+939575857+938337864+939075221
3928+940483816+940975989+940410757+940069102+940647084+941127523+940392930
3918+939023995+938933448+941032236+944183353+946818657+948211682+948119949
3908+946142286+941887108+935783121+929707004+926028398+925599862+927879745
3898+931943052+936227905+938828175+938691367+936707159+935813134+937673791
3888+939975677+939723949+936780725+933818039+932428174+932173004+933559428
3878+936869524+939680509+939377780+935903344+931360613+927636198+926008426
3869+927244163+929594962+930365774+929502947+929744182+932521486+935881567
3859+937511990+936497179+932264511+924498677+917790306+919629863+927405569
3849+934986527+939681863+940918953+939050060+934970223+929899269+925201282
3839+922550745+923348637+926783131+930521595+933392493+935567048+937218401
3829+937960892+937663580+936909975+935729187+932759279+927597835+923811135
3819+924566264+927691542+931051397+935134224+939825328+943417280+944544246
3809+942830215+939171298+935768227+933544534+930974164+927743614+926723499
3799+929254209+932975296+936434388+939880334+943157315+945516745+946694316
3789+946917837+946323381+945075403+943840343+943159853+942521393+941326502
3779+940476087+941520460+944136809+946438752+946951912+945221576+941992832
3769+939184273+938203255+938708461+939980303+941336995+941384216+939036068
3759+935462170+933614885+934205899+934603632+932074558+925962560+919284427
3750+917157769+919272806+921474610+922115834+922699345+924929978+927604435
3740+928473863+925986537+920311876+915073875+915303770+921207085+928646496
3730+934159525+936220740+934966443+932428230+931403828+932886046+935908872
3720+939249265+941961859+943187159+942180246+938377299+932173286+927006256
3710+927715067+933661371+940098890+943804011+943952160+941675209+939905721
3700+940860224+943400468+945233142+945453503+943972695+940301592+934256052
3690+928228114+927002082+931537647+937706456+942503171+945082849+945136050
3680+942620347+937611113+930082001+922316788+919941843+922942272+925560991
3670+926275331+929122929+935973074+943326675+948157184+949993863+949779031
3660+948504368+946422673+943643056+941157254+939636053+937412867+931938257
3650+922901709+915624495+917155851+925257529+933659284+939605532+943036020
3640+944865140+945794820+945792055+944690194+942911848+941069922+938783043
3631+934848421+930213168+929635186+934188128+939364466+942015285+941295248
3621+937648855+933234358+930977323+930987083+931262280+931334098+932078959
3611+933185220+933524506+933812905+935887998+939215133+941334626+941032744
3601+939395043+938177586+937720729+937389398+937314647+938267062+939802931
3591+939870348+936782023+931806244+929640941+932535590+937230361+940461814
3581+941660146+941710244+941483734+941320748+941245489+941148397+940548864
3571+938343731+933358474+926208139+921139555+922310131+927661698+932657448
3561+935566766+937167288+938509199+939408188+938904337+936857903+934645041
3551+933707407+933562982+932561654+930331021+928535017+928916785+931149279
3541+933454155+934439348+934002293+933041811+932312916+931608336+930284027
3531+928178243+925775485+923785523+922491621+921475964+920343356+919470093
3521+919444818+920080627+920648397+920710173+920215630+919121498+917413842
3512+915457673+914015172+913680738+914212064+914708412+914626834+914519023
3502+915481086+917709123+920245869+922215521+923694072+925293015+927177479
3492+928791936+929468364+929134325+928492875+928409097+929056640+929976221
3482+930942966+932209223+933733245+934902636+935345276+935356390+935274079
3472+934996569+934435737+933912874+933804273+934107622+934506709+934679737
3462+934536327+934301862+934339040+934799677+935431367+935744815+935399661
3452+934363412+932755669+930901669+929544131+929362922+930101859+930892417
3442+931361403+931725174+932134641+932507325+932700268+932536436+931984518
3432+931360275+930981272+930743027+930382924+929909594+929428704+928808353
3422+927888434+926896979+926317417+926337332+926669566+926871253+926682146
3412+926181172+925680649+925369459+925131552+924746174+924070536+923051437
3403+921831046+920724446+919850675+919024801+918127730+917249671+916438352
3393+915640292+914843472+914037400+913122276+912030400+910905803+910032371
3383+909503978+909049434+908335377+907317181+906148862+904985789+904012274
3373+903369132+902903982+902226651+901090828+899628017+898229182+897232480
3363+896681070+896346918+895974177+895535881+895280824+895450129+895930850
3353+896323900+896314366+895873531+895276763+894980184+895206299+895661576
3343+895897451+895800980+895561438+895393149+895408832+895532666+895570295
3333+895518618+895620392+895985912+896426239+896763437+897043656+897344522
3323+897601384+897730803+897755287+897744850+897757375+897836131+897940050
3313+897918837+897709816+897530526+897723807+898362267+899085069+899442634
3303+899329350+898939290+898452533+898018242+897845778+897988511+898212370
3293+898326612+898442660+898754866+899276206+899856727+900298747+900456768
3284+900345121+900138751+900006625+899946316+899816390+899547285+899270847
3274+899234289+899591121+900175083+900491915+900183602+899545480+899257702
3264+899579950+900166282+900622067+900868210+900999772+901074298+901081124
3254+901076780+901259906+901731883+902239458+902424671+902279231+902089335
3244+902029985+902078616+902223210+902506305+902904546+903314295+903609013
3234+903690365+903583682+903463685+903459059+903505376+903524784+903599873
3224+903807879+904048832+904200986+904293170+904399852+904496606+904520075
3214+904496831+904550822+904823029+905414664+906331593+907383075+908210585
3204+908571873+908567472+908494696+908563580+908823037+909199388+909542228
3194+909800557+910153609+910785750+911556788+912133303+912460347+912873876
3184+913623701+914458263+914888717+914813515+914702319+915126793+916184142
3174+917437254+918392716+918985366+919569441+920445525+921476359+922248694
3165+922579912+922723604+923007715+923436138+923812659+924123172+924568746
3155+925292112+926243907+927244727+928045609+928467657+928644239+928990972
3145+929739499+930571297+930919892+930658291+930297172+930414122+931020368
3135+931651100+931998679+932200874+932453561+932689323+932857951+933206715
3125+933971377+934980434+935804334+936164324+936085511+935806308+935625777
3115+935734998+936137301+936716242+937307707+937723155+937825606+937672268
3105+937545388+937738726+938251491+938770405+939034940+939131186+939303875
3095+939606829+939941433+940334370+940845217+941247294+941204023+940809844
3085+940547623+940678508+941040755+941413326+941719270+941948771+942135903
3075+942333923+942517501+942632138+942706212+942784800+942854699+942926404
3065+943039292+943124763+943050124+942869875+942869424+943251416+943887338
3055+944469043+944791179+944817976+944650364+944511863+944578095+944774649
3046+944893969+944868920+944806185+944807934+944816453+944620802+944084737
3036+943325378+942537077+941813485+941280636+941097792+941161542+941184447
3026+941139878+941261398+941578400+941795037+941646324+941130005+940401054
3016+939621046+938941910+938500624+938323139+938295326+938303450+938317893
3006+938253353+937891557+937098686+936041958+935040291+934163474+933066577
2996+931360049+929109953+926733654+924402770+921871440+918893408+915444246
2986+911529257+907139075+902429128+897664119+892952931+888186342+883224835
2976+878074956+872941325+868252138+864699791+863079918+863763116+866263587
2966+869532443+872682657+875267018+877050667+877888953+877756431+876574685
2956+874085046+870093501+864754459+858485116+851733530+844928010+838509842
2946+832827396+827938835+823560163+819315704+815106675+811181023+807849206
2936+805264337+803385346+801877515+800073161+797402371+793973067+790481367
2927+787496283+785004557+782690993+780524844+779011597+778880486+780502447
2917+783569390+787297530+790934332+794173457+797247114+800664345+804772841
2907+809494805+814418117+819056924+823041813+826223902+828715571+830807646
2897+832791459+834852731+837050868+839265648+841193721+842546069+843291720
2887+843646520+843799351+843632529+842761184+841036828+839043651+837834825
2877+838059699+839490296+841353209+842864876+843461927+842794018+840635033
2867+836852340+831650163+825919706+821102117+818393077+817991113+819076388
2857+820423489+821108097+820926494+820339373+819982485+820229080+821255005
2847+823327391+826792519+831817211+838254898+845662941+853407449+860893234
2837+867766284+873855151+879020827+883174569+886386389+888901471+891044772
2827+893076369+895061253+896841856+898188957+899094434+899967923+901414938
2817+903717952+906642445+909820134+913110710+916445743+919569723+922198992
2808+924300149+926018525+927450815+928649091+929719415+930753972+931720322
2798+932530174+933178789+933752314+934316925+934854739+935306462+935634014
2788+935833557+935951184+936099897+936399353+936877479+937457943+938010312
2778+938419723+938673708+938889105+939194597+939611737+940096407+940619384
2768+941127297+941510023+941707141+941816532+941994411+942282020+942605904
2758+942900001+943128937+943261853+943312910+943333784+943325209+943272967
2748+943259371+943381850+943595328+943788158+943936476+944053088+944118418
2738+944192492+944418269+944790502+945086234+945142086+945050749+944980398
2728+944929736+944788922+944579506+944496349+944688784+945105247+945590312
2718+946013939+946242368+946150015+945784890+945389301+945185696+945243297
2708+945527915+945914647+946196614+946244230+946117068+945938229+945756570
2698+945588958+945482726+945478664+945559396+945640409+945619140+945482670
2689+945351390+945324761+945323915+945199743+944966407+944791517+944760263
2679+944770474+944671295+944423685+944127614+943952329+944010155+944258837
2669+944538209+944732450+944892220+945193256+945715442+946263242+946529469
2659+946487552+946454379+946676940+947040034+947298532+947399855+947421180
2649+947357317+947169339+946951799+946854425+946875976+946910954+946989936
2639+947280817+947821170+948437797+948977472+949423159+949725210+949769779
2629+949634945+949634155+949937673+950358536+950641181+950753900+950785831
2619+950797115+950890652+951198458+951669645+952060833+952219814+952199617
2609+952061285+951765213+951290303+950733477+950332359+950431087+951194509
2599+952246442+952870742+952723157+952135190+951676415+951629589+951885605
2589+952186190+952423137+952663695+952893646+952976014+952949950+953073162
2580+953455550+953925044+954302693+954568751+954746912+954802539+954659355
2570+954268843+953713935+953235415+953069552+953270505+953706037+954164474
2560+954478824+954630695+954713514+954786516+954872043+955075818+955506385
2550+956053620+956443906+956538008+956410733+956180105+955903554+955633885
2540+955492055+955614591+955966739+956280187+956345178+956295758+956411749
2530+956717185+956926150+956721360+956072012+955357447+955083152+955385542
2520+955957600+956474032+956845024+957039321+956979520+956731402+956553917
2510+956581674+956616539+956430141+956154492+956128653+956426417+956759272
2500+956829792+956651743+956491070+956547260+956800004+957192659+957738202
2490+958295367+958560522+958479509+958353814+958410004+958597305+958841812
2480+959133822+959339063+959231534+958795664+958325267+958114497+958109645
2470+958019831+957785930+957715185+958051198+958590197+958877919+958728755
2461+958410907+958289048+958442725+958757414+959164963+959585601+959855495
2451+959906270+959803367+959532344+958995715+958232294+957458379+956971509
2441+957064595+957802855+958820487+959538437+959652849+959329359+958940427
2431+958716117+958682719+958802772+958988155+959059240+958953967+958910076
2421+959184822+959676544+960037719+960082965+959944858+959882349+959984801
2411+960070779+959915635+959528959+959104485+958787879+958618743+958601367
2401+958700659+958831996+958946633+959100649+959371559+959698095+959872194
2391+959781590+959617081+959685457+960011993+960280985+960218025+959924548
2381+959812506+960280308+961391139+962768028+963913612+964751728+965689588
2371+967039510+968629539+970076159+971189247+972082538+972990835+973842717
2361+974120397+973472290+972254494+971098755+970163491+969023436+967309743
2351+965449594+964393148+964622423+965812011+967234146+968377021+969239960
2342+969959152+970482354+970711064+970703617+970720881+970924317+970950494
2332+970205126+968751623+967375411+966580848+966115867+965560170+964900892
2322+964400256+964103959+963771443+963314474+962942241+962742190+962460110
2312+961905992+961325809+961102176+961270747+961531502+961622896+961575055
2302+961623799+961867065+962057074+961916936+961606310+961547073+961798463
2292+962016454+962047821+962097919+962244262+962258817+962052109+961927317
2282+962235912+962972367+963824587+964515571+964995445+965348722+965634300
2272+965802646+965633510+964881146+963717623+962833922+962753924+963222854
2262+963571505+963459350+963073465+962847011+963076285+963612689+964025767
2252+964228075+964586881+965163791+965360908+964759739+963855503+963421100
2242+963533594+963757791+963940692+964293404+964931357+965749050+966570129
2232+967215867+967536197+967455183+967045716+966704738+967019539+968085576
2223+969229354+969796899+969820820+969568866+969009445+968136238+967321139
2213+966968426+967145121+967692131+968408050+969035734+969364301+969443058
2203+969439560+969241766+968551459+967538453+967015139+967609199+968979544
2193+970154690+970453695+969801638+968552362+967447849+967278601+968019682
2183+968775769+969008768+969151274+969750187+970903556+972456576+973734624
2173+973555108+971628389+969394427+968676026+970024594+972678855+975402169
2163+977083479+977077273+975456667+973228911+971860936+971833743+972322419
2153+972616007+972775778+972845395+972575839+971966433+971113423+969890663
2143+968649962+968409630+969498571+970858310+971271727+970557838+969347038
2133+968447090+968409742+969017456+969259593+968380970+966878612+965963657
2123+966120606+966750886+967213497+967546465+967973082+968331550+968369687
2113+968207660+968160496+968296685+968413353+968401506+968451152+968720369
2104+968894920+968482632+967631766+967141059+967432843+968000049+968183853
2094+968104306+968439643+969469009+970639867+971130800+970731487+970011957
2084+969668384+969930492+970593493+971322501+971832728+972011002+972032215
2074+972222901+972692169+973162679+973196528+972510961+971140954+969571799
2064+968603926+968690920+969485257+970355531+971113536+971854955+972349950
2054+972111535+971042791+969643448+968651541+968725785+970144648+972343857
2044+974048636+974487327+974219463+974148266+974335455+974614714+975434890
2034+977047372+978703747+979512639+979415040+979044612+979249402+980410331
2024+981704514+981630384+979612721+976532294+973705852+971980312+971584610
2014+972172690+972993882+973414971+973479172+973741056+974316950+974525464
2004+973895635+972923813+972336297+972242533+972426562+972829260+973282506
1994+973353139+972948185+972487943+972175173+971981553+972537138+974733188
1985+978204916+981252622+982450785+981674162+979747894+977750090+976476442
1975+976179017+976665210+977285222+977089233+975750030+974229731+973855467
1965+974799646+976111769+976863682+976685633+975676238+974298897+973206570
1955+972862771+973224059+973805031+974073910+973834142+973243128+972384476
1945+971163521+970042196+970178159+971763562+973228460+973113935+971639559
1935+970130995+969540432+969846545+970547909+971195227+971291585+970219342
1925+968065041+966257246+966167432+967142075+967570272+967349234+967722257
1915+969007075+970164393+970348084+969734165+969193361+969471153+970626215
1905+972131055+973299431+973650451+973111566+971912387+970357336+968925385
1895+968241623+968300521+968184530+967378571+966830207+967755317+969777718
1885+971552678+972401175+972457140+972076896+971649037+971550873+971820203
1875+972017321+971506079+969711260+966367708+962373229+960372266+962247647
1866+966321334+969719722+971292375+971571634+971500437+971571296+971827086
1856+972160505+972449242+972461879+971794816+970186734+967806204+964971976
1846+962163023+960805767+962278224+965377495+967749449+968564097+968562630
1836+968692838+968802172+967813764+965292419+962705519+962058766+962945175
1826+963764448+964582819+966311969+968502265+969907475+970220471+970159880
1816+970165747+969681585+968099116+965981372+964812093+965281813+966550496
1806+967318318+966642229+964249964+961085139+959025164+958925308+959656911
1796+959602526+957923472+955184024+953935763+956168596+959964829+962387672
1786+962664561+961768449+960672286+959598238+958799387+958521595+958027616
1776+955981408+951686908+945991373+941813542+941650499+944314294+947284541
1766+949061420+948697198+945776823+941491406+938269318+936732264+935605016
1756+934396867+933027594+930236976+924639943+917176443+911665050+910435350
1747+911598366+912621132+912698704+912095956+911326046+911058973+911279729
1737+910736273+908791895+907911523+911194146+916954164+922719204+927751286
1727+931362927+933168521+933812002+933853299+932411700+927966683+921145761
1717+917575192+922146807+931271363+939813368+945777726+948779791+948940125
1707+947213231+945700661+945547887+945142481+942482297+938713651+937618560
1697+940632021+947163021+954877685+960191058+961682020+960388514+957965784
1687+954355385+948230186+942076891+942666382+948953101+955186845+958901162
1677+959714681+958498916+957069447+955819155+953620962+951637149+953569623
1667+958895182+962860212+963200513+961664531+961792483+964046528+965475884
1657+963685917+957671406+947792736+940375272+942372963+946121468+945732367
1647+943598093+946024376+953469880+960235401+963561463+963300595+959645063
1638+953567931+949433314+952849980+960705797+966508071+968380293+967378796
1628+965543245+963930649+962331368+961596606+963088246+965305959+965388326
1618+963075834+962111233+965228331+969497669+971766044+971753294+970975768
1608+970930297+971703648+972467972+972820459+973136163+973795215+974481234
1598+974574771+974019187+973411586+973239517+973426367+973762719+974270689
1588+974930756+975470432+975669468+975612036+975327812+974214386+971200643
1578+966014093+961362141+961598750+965012257+966312759+964015386+961202371
1568+961602473+964148754+965953276+965902276+963064212+955127382+941765193
1558+934492153+940652782+949513989+955819719+959437001+961122486+962106833
1548+962574521+960731185+954911986+945786357+935862442+928902342+931469553
1538+942459279+951698530+955239650+955131782+955705759+958268964+959621820
1528+957613523+953394733+949367420+945840573+942122194+939858501+940502095
1519+942283318+944601282+948797505+953743046+955924315+953053529+945041948
1509+934104350+928641192+937776919+951558618+959719871+961869998+959843874
1499+956069078+954087973+955989983+959011625+958834365+953738984+946221437
1489+942628527+945532429+950330103+952579296+951174989+947174304+942050827
1479+935876715+927410534+916088686+903528620+894026358+892087960+896072341
1469+900367856+902130575+902000084+902430595+904190154+904734625+901441566
1459+894023537+887273305+889435900+897858585+904446170+906735137+905279660
1449+901905475+899355922+899316657+900965810+902786467+904118675+904538749
1439+903465660+901449295+901454767+905484112+911065122+915785732+920316897
1429+926503195+933931378+940183288+944141379+946598748+948005086+947658466
1419+946426735+948065000+953714161+959983785+964256283+966389598+967491967
1409+968277278+968332678+967278037+966077617+965909385+965922135+964237891
1400+960583036+956636849+953987891+952952432+953022275+952502232+948738720
1390+939481868+924587138+908293291+897185034+893599289+894934994+897518453
1380+899000276+899021657+898549963+898794188+900172939+901119656+898799999
1370+891979077+882729616+875112044+871778421+872922707+877371787+882681380
1360+886248734+887327746+886804544+886079598+886401000+888417422+892190637
1350+897481218+903691662+909848454+914971536+918290659+919366456+918704471
1340+918364452+920837730+926363114+932750083+937962867+941467486+943817777
1330+945806893+947830196+949734463+951127374+951701689+951229487+949457798
1320+946266345+941845247+936350215+929268651+919579596+907010447+893180738
1310+881147654+873769173+872634027+877956088+888777412+903116839+918286372
1300+931730985+941956105+948724277+952625106+954555211+955219791+954839096
1290+953383112+951114850+948803147+947327191+947126914+948071431+949606398
1281+950759542+950311711+947634546+943526275+939836724+938137136+938878668
1271+941605254+945567294+950163563+955043435+959835975+963844784+966267175
1261+966817683+966012288+964812206+964057021+964094143+964715960+965453656
1251+965986449+966171155+965762590+964328495+961449473+956920057+950966701
1241+944414207+938390669+933609976+930009281+927158354+924890317+923501468
1231+923470552+924963884+927515467+930311388+932838657+934917079+935987347
1221+934986471+931492965+926667422+922418168+919657619+917796624+915844630
1211+913543647+911431431+910283027+910783155+913437754+918314411+924724680
1201+931364337+937007123+941163516+944151421+946639480+949074282+951289965
1191+952523332+951930625+949233263+944940399+939978103+934992564+929785648
1181+923395349+914912130+904286400+892312157+879982551+867921259+856178322
1171+844545114+833418128+824481549+820247753+822628396+831681812+845456346
1162+860972216+875623850+888100138+898475833+907671304+916574259+925277952
1152+932999781+938675627+941576481+941506187+938756809+934032814+928247296
1142+922154987+916223013+911061342+907821596+907625494+910355973+914397616
1132+917909626+920149172+921316984+921452608+920084181+917068181+913309069
1122+910327708+909217272+909978042+911496535+911940191+909331120+902179149
1112+890168575+874668501+858433665+844366953+834270912+828490528+826462259
1102+827623696+832036500+840190024+852096736+866583071+881588376+895159135
1092+906078962+913748155+917915267+918674063+916472541+912049582+906468233
1082+900881355+895599801+889317313+879937136+866778947+851873611+838723772
1072+829959544+826578702+828915284+837050586+849842183+864323722+876720464
1062+884061485+885015705+879968052+870890264+860924601+853203562+849134670
1052+847439256+845167439+840216088+833049224+825627133+818460945+809288999
1043+795518584+778080394+762239004+754162375+756617430+767585606+782146691
1033+795419687+804862091+811272248+817883810+827764454+841482684+856920362
1023+870847444+880498588+884279646+882088053+875647488+868159391+862702157
1013+860649968+861867087+866111038+873541309+883937934+896151775+908564087
1003+919755896+928658230+934466259+936809385+935997333+932920516+928810215
993+925065658+922595483+920786165+917819134+912842452+907329367+903568732
983+902475333+903766695+907520278+914144139+922864870+931346453+937179587
973+939517297+939490048+939369149+940858983+943586584+945356016+943848016
963+937603553+925855257+909141787+890778770+876190041+869033387+868041876
953+868742732+868390583+868374730+871757322+879627920+890489469+902212209
943+913339026+922788031+929698598+934206463+937722252+941888406+947417457
933+953892210+960101920+964522228+966195414+965576417+964319017+964074285
924+965466068+967970487+970366927+971093791+968561953+962157946+953637661
914+947028638+946134218+951722563+961205756+970878281+978249598+982639440
904+984398605+984024792+981734189+977333853+970145325+959057886+943500606
894+925655883+911507367+907601969+915435896+929715748+942635861+949292612
884+949514553+946522925+944632988+946916257+953678844+962843174+971787708
874+978879652+983774643+986948044+989127056+990867716+992342769+993350810
864+993457324+992283419+989969911+987428483+985874447+985944065+987332124
854+989260424+991124070+992684988+993877849+994598958+994616221+993545671
844+990956515+986758374+981647760+976943567+973683286+972002653+971611351
834+972496406+974638070+977379437+979776441+981454930+982656929+983658652
824+984534567+985256579+985705989+985726412+985282982+984501282+983552026
815+982489938+981184923+979550777+977833247+976386515+975160708+973709801
805+971731066+969403003+967161030+965212196+963375742+961492011+959795243
795+958622128+957973570+957709430+957968154+959046038+961017891+963706001
785+966842618+970057654+972885902+975042460+976639823+977971805+979165794
775+980232282+981301930+982484409+983539276+984016217+983751400+982946456
765+981717941+979832857+976970421+973071172+968482519+963970141+960402843
755+958127811+956903245+956664493+957876534+960786472+964777228+968795515
745+972158248+974826951+977124775+979286862+981310166+983185435+984937265
735+986328935+986971175+986824944+986219601+985503456+985148035+985897352
725+988126010+991159048+993785326+995422181+996384976+997073026+997435555
715+997414794+997364471+997648695+998106003+998288791+998107921+997911932
705+997915881+997854501+997394033+996667169+996103122+995842706+995646491
696+995395552+995391377+996005748+997222641+998718004+1000244396+1001650170
686+1002677280+1003150384+1003261298+1003268181+1003097241+1002635870
677+1002096082+1001622075+1000992134+1000164285+999520240+999099715+997922538
667+995062585+991198314+986602214+980572132+973413279+967338628+964796861
657+966304748+970239991+974237178+976708199+977368041+976911861+976438644
647+976791018+977985345+979237442+979709418+979274338+978470974+977820610
637+977424006+977081335+976470688+975282680+973378639+970685339+966967636
628+962142375+956859354+952298345+949305814+948153912+949004552+951970568
618+956544101+961401520+965297497+968133755+970822881+974189450+978188443
608+982076409+985124566+987123724+988345356+989152556+989712316+990008162
598+989962013+989402931+987994448+985545993+982765474+981349432+982463874
588+985382161+988349305+990297011+991168977+991168639+990674660+990552350
578+991492805+993096825+994178772+993982218+992811699+991489082+990497063
568+989741314+989125477+989014450+989755305+990994539+991806817+991503750
558+990323076+989283893+989120512+989414778+989258280+988637591+988415199
548+988915835+989308039+988642104+986936648+985012072+983612504+982765925
538+981890010+980836610+980696247+982653093+985996532+988424226+988679452
528+987954167+988486734+991273234+995074658+997761527+998388986+997839720
518+997867138+999397027+1001951770+1004738044+1007248895+1008833508+1008892519
509+1007724482+1006363051+1005327591+1004384428+1003883003+1005213292
500+1008997002+1013721166+1016852254+1016505973+1012271838+1005115693+996646521
490+988386427+981533799+977093746+975615873+976622898+978803716+980907582
480+982196236+982600062+982906514+984293445+987607547+993213155+1000702042
470+1008852125+1016700947+1023713457+1029011710+1032025341+1033407420
462+1033792967+1032576074+1029827599+1028277738+1029796006+1031996456
453+1032704364+1033113606+1034331966+1034401809+1031027003+1024858251
445+1018582872+1014723227+1014997521+1019278256+1025228453+1030484507
436+1034258738+1036659578+1037664460+1037609736+1037711398+1038595663
428+1038595663+1035141536+1028488283+1022682624+1020800134+1021794636
419+1024661246+1031767181+1042400246+1051331013+1055667599+1057390432
411+1060974428+1067488559+1072982351+1073741823+1070174300+1064385904
402+1056859557+1047208470+1036952038+1030961448+1032912765+1039381989
394+1045957388+1052187860+1058431533+1062636669+1061077444+1052008005
385+1038830240+1029461572+1028761562+1034114877+1040962991+1047044073
377+1052305769+1057769998+1064786345
##END=
