##TITLE=X9354
##JCAMP-DX=4.24
##DATA TYPE=INFRARED SPECTRUM
##DATE=5/11/2018
##SAMPLING PROCEDURE=ATR platinum Diamond 1 Refl
##ORIGIN=ComPlat
##XUNITS=1/CM
##YUNITS=TRANSMITTANCE
##RESOLUTION=4
##FIRSTX=3997.453
##LASTX=373.96442
##DELTAX=-1.4165319
##MAXY=0.98271835
##MINY=0.62313533
##XFACTOR=1
##YFACTOR=9.1522778e-010
##NPOINTS=2559
##FIRSTY=0.87866789
##XYDATA=(X++(Y..Y))
3997+960053778+959835412+959549381+959449414+959550163+959727564+959987545
3988+960383834+960847918+961315845+961785399+962063615+961731345+960622063
3978+959187479+958167419+957909261+958159994+958568396+959103858+959846744
3968+960660096+961208974+961180318+960602330+959991844+959827727+959951922
3958+959979405+959947949+959941176+959499430+958128148+956307500+955420035
3948+956103983+957090373+956871487+955877607+955771648+956961946+958316621
3938+958973672+958716231+957374516+955123845+953036378+952410717+953280663
3928+954409027+954820751+954682033+954672981+954721109+954145530+953010067
3918+952545657+953990531+956971585+959788847+961293116+961547170+960799400
3908+958575560+954292518+948607780+943800413+941965177+943049125+945966356
3898+949752816+952895316+953781674+952224328+950162846+950270955+952226412
3888+953000949+951403552+949101171+947903709+947407192+947327413+949023932
3878+952156793+953873175+952557901+948954248+944861958+942078626+942171755
3869+944634280+946229854+945152222+943266905+943878368+947322855+950607653
3859+951096941+948054670+942047365+935317168+933544453+939294186+946937377
3849+952577634+955571908+955996591+954074738+950184598+945019171+940070416
3839+937794867+939721214+943948443+947559325+949966102+951953862+953702025
3829+954629412+954470701+953360768+950926703+946611228+941733070+939782171
3819+941381783+943971693+947272903+952064706+956752828+959175756+958640360
3809+955661520+952110424+950072127+948832007+946431482+943858440+944070553
3799+946785960+949836112+953300982+957462175+960914541+962564300+962843949
3789+962470715+961562670+960354983+959651628+959533881+958858270+957349703
3779+956821535+958795163+961926917+963781560+963139293+960218090+956591773
3769+954424657+954380763+955550872+957263672+958657488+958213071+955535503
3759+952578480+951696030+952074019+950645426+945595532+937937687+932217587
3750+932381312+935234134+936671974+937442278+940368626+944748900+947118100
3740+946069515+941790836+935734688+931812441+934176105+941735154+949454086
3730+953879622+954470701+952535237+950213840+949168771+949800488+951998929
3720+955377769+958637755+959980772+958263869+953581283+947754376+944857920
3710+947900192+954365719+959979991+962702496+962506859+960912913+960346452
3700+961718450+963450332+964094683+963488365+961379277+956831044+949974178
3690+944292957+944833108+950995606+957461914+961458534+962770162+961544761
3680+957803693+951640283+944071400+938940945+940193438+944236428+946041055
3670+946831027+950924489+958174973+964527312+967825657+968296579+967193158
3660+965542162+963625975+961833266+960843489+959812358+956311342+948888536
3650+939037526+933033218+936557548+945541087+953629345+958783896+961651957
3640+963484523+964730048+964880162+963667135+961694484+959451498+956327168
3631+951882875+948767012+951220484+957126323+961296372+961964755+959429485
3621+955009745+951405050+950685283+951533933+952013322+952342140+953165000
3611+953737974+953572816+954162332+956781483+959943130+961462116+961132581
3601+960307442+959735445+958879696+957761882+957744689+959447004+961049351
3591+960123918+956315185+952487826+952942662+957603106+962271105+964540858
3581+964709468+963979997+963325877+963270521+963993934+965143790+965507711
3571+963396473+957905679+950632140+946435194+948770920+954697598+959819391
3561+962910572+964884981+966499832+967295145+966485700+964419660+962664789
3551+962242254+962207998+961118579+959311152+958779403+960608386+963560589
3541+965754211+966348676+965769125+965195564+965471631+966170363+966179545
3531+965085568+963529720+962401682+962011189+962194192+962934147+964328810
3521+966085634+967634774+968696254+969326994+969513644+969006056+967663429
3512+965959942+964936626+965177720+965899245+965811196+964743268+963866484
3502+964254697+965585210+966737280+967169843+967309016+967803254+968597524
3492+968989644+968570562+967753042+967218948+967041741+966724841+966107191
3482+965808330+966490650+967899639+969141061+969703615+969758581+969650863
3472+969532856+969504266+969689678+970048324+970340672+970345752+970021232
3462+969531228+969266949+969675090+970781442+971941782+972400526+972087207
3452+971441488+970609901+969541713+968704395+968749136+969510713+970332467
3442+971071901+971871186+972486948+972634652+972503489+972391604+972262265
3432+971992971+971718858+971730059+972184440+972910198+973406324+973193624
3422+972336833+971549662+971558193+972345104+973191540+973388480+972776495
3412+971748620+970880563+970551874+970841357+971531036+972049109+971699385
3403+970352981+968679908+967387818+966578439+966043759+965685634+965452940
3393+965342488+965555122+966214974+966994460+967479320+967813804+968475804
3383+969448909+970170695+970351093+970330904+970545232+971071901+971766725
3373+972446830+972843900+972707007+972121529+971572977+971513257+971904335
3363+972332600+972493200+972419413+972377797+972708374+973543934+974510461
3353+974959241+974642731+973932733+973357936+973129671+973110459+973082650
3343+972949599+972697433+972365684+972175778+972421822+973016287+973432374
3333+973305835+972831722+972447156+972370568+972506941+972657381+972755134
3323+972885646+973132992+973511957+973994081+974455170+974671582+974499846
3313+974000073+973377734+972919706+972882064+973247548+973687145+973916647
3303+973939571+973859207+973719447+973632374+973745628+973965231+974035827
3293+973985420+974159761+974737684+975467155+975935146+975962108+975745436
3284+975641235+975786074+975992457+976031206+975869630+975625019+975414794
3274+975301801+975355139+975667415+976199295+976705385+976984187+977068655
3264+977100762+977251202+977705061+978396108+978902588+978944855+978760289
3254+978750325+978986275+979167258+978941013+978332741+977873020+978077774
3244+978828801+979514833+979709037+979490151+979182889+978975724+978826066
3234+978680771+978638114+978795913+979056740+979226653+979257587+979233231
3224+979121084+978762504+978238244+977933782+977981779+978011216+977750193
3214+977467679+977523622+977900112+978407635+978963741+979500766+979896403
3204+980088849+980101223+979976833+979814150+979783476+979962896+980210503
3194+980327208+980284291+980174098+980013564+979744400+979392137+979093146
3184+978975594+979064425+979263644+979404836+979440590+979617862+980249579
3174+981243459+982125388+982601976+982796376+982857203+982705395+982320504
3165+981962769+981909041+982116270+982299859+982304157+982217605+982087615
3155+981811092+981492954+981567132+982237534+983113341+983706048+983987911
3145+984145710+984070100+983484817+982503767+981694322+981473286+981650493
3135+981725713+981471137+981033820+980623594+980364004+980362376+980650426
3125+981046389+981259349+981163550+980860130+980466772+979996436+979539060
3115+979402296+979815062+980538345+981034992+981024442+980617082+979966869
3105+979146158+978328768+977683635+977052309+976018702+974276335+971673726
3095+968041743+963364431+958124240+953204532+949411559+947184268+946608623
3085+947431093+949075967+950877403+952326770+953008699+952503716+950636113
3075+947741872+944466451+941337888+938647295+936601703+935368031+934999747
3065+935458100+936666764+938481159+940692625+943116335+945626531+948158154
3055+950720646+953247710+955416128+956895583+957804605+958628377+959667779
3046+960815681+961817115+962509269+962812363+962618419+961794647+960487969
3036+959392950+959337007+960525417+962499891+964746459+966926209+968704720
3026+969925367+970808273+971476330+971529929+970589647+968940800+967177658
3016+965548545+964061925+962921513+962416270+962445446+962227797+960397901
3006+955651882+947939007+939247035+932753374+930705243+932930776+937281223
2996+941379178+944043331+945469384+946474856+947706444+949355551+951271347
2986+953184734+954910363+956420232+957751592+958895521+959767161+960207148
2976+960046679+959227271+957788258+955790469+953445887+951222633+949538032
2966+948397751+947533666+946758673+945996249+945086576+943805688+942127079
2956+940381651+939058757+938471195+938641108+939348501+940117372+940243325
2946+939005875+935948104+931139565+925383059+920060614+916458719+915061843
2936+915447777+916716291+917918572+918325020+917750027+916720654+916032734
2927+916036250+916501963+917098642+917708998+918302226+918767222+918983764
2917+919006884+919098060+919462567+919943128+920088423+919595097+918670381
2907+917924629+917883014+918655792+920105420+922092724+924388528+926629625
2897+928649036+930652817+932883234+935283759+937609911+939689498+941488980
2887+943075957+944593511+946171762+947818785+949468674+951094987+952592417
2877+953629280+953947418+953822312+953881120+954421336+955185974+955777900
2867+956010788+955888027+955541364+955212806+955093040+955139735+955079494
2857+954541623+953292516+951512572+949719993+948245813+947003544+945871533
2847+944840141+943532487+940950001+935964906+928089804+918147618+908460008
2837+901870417+899996171+902388100+907306701+913020355+918515317+923556875
2827+928335327+932922114+937047292+940429779+943151828+945552744+947827316
2817+949847053+951388117+952462752+953353929+954337129+955483988+956751460
2808+958064976+959231243+960010209+960414117+960743326+961227144+961819525
2798+962384358+962864789+963236655+963448313+963474363+963405526+963436721
2788+963699958+964137471+964613212+965096053+965635682+966220965+966745681
2778+967123083+967404490+967703677+967985670+968113967+968163137+968419927
2768+968993226+969689483+970324521+970909869+971478415+971933055+972160343
2758+972204173+972259334+972506355+972965359+973454256+973677832+973530714
2748+973338268+973543348+974115280+974607368+974810299+974942243+975171485
2738+975385813+975464680+975439932+975382231+975355008+975436155+975619874
2728+975797536+975941073+976175785+976588550+977104735+977618314+978099526
2718+978517632+978792005+978873673+978797736+978639872+978490279+978460582
2708+978647231+979067226+979629714+980158989+980467163+980500247+980418123
2698+980418710+980476411+980420794+980267879+980233558+980381328+980504936
2689+980434275+980245215+980075173+979879015+979513531+979014409+978629582
2679+978501546+978464685+978268006+977885654+977530199+977449118+977715351
2669+978134108+978429387+978568299+978741273+978999625+979164198+979146418
2659+979137236+979371752+979835706+980278364+980467228+980382239+980150132
2649+979865078+979581847+979426523+979537692+979890021+980337368+980813630
2639+981330010+981827504+982238511+982613829+982970326+983133270+982979769
2629+982714708+982647499+982782504+982871270+982797873+982686183+982636818
2619+982602302+982571628+982647434+982824380+982922849+982859612+982792012
2609+982902400+983176513+983435387+983544928+983631870+984002109+984693285
2599+985275442+985329496+984940632+984508068+984302988+984402240+984781661
2589+985265478+985575280+985609861+985561017+985656165+985889054+986073359
2580+986087882+986030702+986175085+986753920+987707292+988671735+989267243
2570+989378803+989210844+989169685+989583753+990394435+991181346+991548458
2560+991415081+990975484+990502673+990146437+989905603+989819377+989982842
2550+990231621+990134779+989516869+988661706+987871604+987200225+986719209
2540+986677072+987186419+987926961+988346890+988250960+988077270+988400618
2530+989212798+989903519+989906189+989209346+988321621+987850308+988038520
2520+988629599+989158483+989362066+989334192+989360763+989626735+990088345
2510+990604073+991134781+991778937+992630388+993606944+994451882+994926191
2500+994992358+994857679+994838923+995050646+995239119+995147683+994976598
2490+995107956+995471812+995591578+995209291+994534201+993939214+993633580
2480+993587993+993636185+993633385+993535111+993394244+993323453+993371385
2470+993416452+993356732+993394049+993858784+994669010+995307370+995537393
2461+995774385+996458202+997408969+998150097+998512130+998591518+998488815
2451+998391452+998549447+998927630+999200050+999189760+999019783+998835347
2441+998679046+998617177+998703729+998822518+998817503+998778884+998978428
2431+999488491+1000045900+1000336750+1000289274+1000044272+999767358+999580122
2421+999586765+999778560+999897804+999629032+998984289+998272142+997652799
2411+997006950+996236646+995441529+994821925+994596265+994920004+995702096
2401+996582071+997220757+997606820+998023754+998687057+999454105+999984356
2391+1000183119+1000296047+1000509593+1000693247+1000682827+1000615162
2383+1000820893+1001551275+1002919561+1004860887+1006995570+1008912733
2374+1010831851+1013485323+1017011086+1020544404+1023239296+1025068084
2366+1026391434+1027406480+1028139597+1028498048+1028322535+1027520254
2357+1025997751+1023654080+1020553586+1016979761+1013491640+1010912216
2349+1009980465+1010973759+1013420589+1016077057+1017859020+1018878755
2340+1019809984+1020715619+1021187257+1021214610+1021152350+1020948703
2332+1020134960+1018594026+1016774225+1015187768+1014130196+1013666567
2323+1013599293+1013630553+1013601702+1013437586+1013070669+1012555592
2315+1011990694+1011347384+1010591733+1009844158+1009257117+1008887400
2306+1008733703+1008747445+1008797461+1008716185+1008412244+1007975513
2298+1007672744+1007764180+1008250928+1008784241+1008943407+1008733638
2289+1008654120+1009018041+1009423447+1009303551+1008856791+1008931034
2281+1009942823+1011329800+1012298281+1012757025+1013102711+1013410299
2272+1013439084+1013162496+1012716387+1012143348+1011647352+1011675942
2264+1012358718+1013217788+1013701670+1013865982+1014357418+1015614015
2255+1017207895+1018308646+1018663320+1018694059+1018769865+1018739386
2247+1018143423+1016893339+1015665399+1015270543+1015727137+1016455957
2238+1017179305+1018078037+1019302070+1020715358+1021943169+1022529038
2230+1022310607+1021778271+1021808294+1022731187+1023791430+1023984462
2221+1023336203+1022734639+1022673551+1022954958+1023397356+1024007972
2213+1024563948+1024685993+1024354114+1023984201+1023882280+1023910153
2204+1023953722+1024334120+1025267824+1026313479+1026917322+1027113741
2196+1027210192+1027240475+1027168707+1027227450+1027609606+1028058646
2187+1028127549+1027757115+1027282872+1026955290+1026843861+1027110224
2179+1027939011+1029315307+1031137844+1033255594+1035087378+1035697083
2170+1034781875+1033295711+1032568846+1033103526+1034670119+1036949055
2162+1039164494+1039800053+1038204088+1035848500+1034419256+1033947878
2153+1033681775+1033265168+1032848886+1032708475+1032625701+1031790466
2145+1029929636+1028134908+1027709704+1028572226+1029558747+1029986816
2136+1030205833+1030731461+1031514009+1032160379+1032356081+1031865751
2128+1030617101+1029126639+1028432532+1029111074+1030550282+1031626741
2119+1031891085+1031642110+1031097271+1030124231+1028770142+1027535493
2111+1026891858+1026787723+1026911331+1027265809+1028050245+1029024066
2102+1029526705+1029229602+1028420809+1027522273+1026749233+1026178083
2094+1025766751+1025409928+1025192474+1025377756+1025931909+1026323378
2085+1026144543+1025753660+1025876552+1026700455+1027825692+1028960895
2077+1030119737+1031249013+1032166436+1032795287+1033163897+1033226223
2068+1032724887+1031281120+1029028886+1027077922+1026564538+1027308075
2060+1028250766+1029038329+1030233056+1032077605+1033982394+1035350485
2051+1036210207+1036928476+1037799464+1038889469+1039894615+1040295398
2043+1040027927+1039828122+1040524118+1042217381+1044365414+1046209442
2034+1047053859+1046774927+1046082057+1045773232+1046086290+1047160144
2026+1049106158+1050989978+1051076985+1049043963+1046764962+1046068576
2017+1046597590+1046623901+1045496058+1044371080+1044781696+1047269620
2009+1051175260+1054899851+1056365239+1054451397+1050468192+1047323153
2000+1046881342+1048575385+1050519381+1051322248+1050837389+1049985808
1992+1049842597+1050370634+1050777473+1051315410+1053099913+1055869895
1983+1057679145+1057519197+1056672566+1056626457+1056970320+1056582367
1975+1055859865+1055919390+1056393569+1055827042+1053983079+1052531888
1966+1053186204+1055744268+1058384064+1059370128+1058318482+1056265402
1958+1054629971+1054283894+1055315286+1056944204+1057914509+1057634079
1949+1056719977+1055979631+1055167451+1053407500+1050852367+1049039991
1941+1048848522+1049236995+1048922700+1047945101+1047252036+1047551352
1932+1048783917+1050412640+1051910591+1052705513+1052087212+1050123157
1924+1048370761+1048364835+1049682909+1051067542+1052391608+1054126225
1915+1055910598+1056842153+1056505910+1055377025+1054522774+1054632120
1907+1055464944+1056440198+1057214019+1057666120+1057794157+1057550848
1898+1056765761+1055546091+1054446838+1053688842+1052703494+1051109418
1890+1049595120+1049169004+1049858032+1051061811+1052551752+1054311898
1881+1056092428+1057707345+1059258438+1060653882+1061372737+1060915035
1873+1059054726+1055836811+1052308313+1051073599+1053831597+1058800541
1864+1063040275+1065177888+1065558091+1065260923+1065089252+1065243014
1856+1065572483+1065854281+1065863008+1065334124+1064094265+1062279283
1847+1060238511+1058600541+1058771560+1061660657+1065552034+1068066789
1839+1068719346+1068660408+1069034423+1069573011+1068928269+1066490492
1830+1063902731+1063549621+1065003352+1066338880+1067511594+1069480598
1822+1071812872+1073323131+1073741823+1073678456+1073508283+1072797959
1813+1071100855+1069106973+1068374702+1069531135+1071587928+1073087117
1805+1072928666+1070850057+1068007655+1066347802+1066530870+1067363434
1796+1067383167+1065875968+1063409797+1062427509+1064837673+1068778545
1788+1071256049+1071269334+1069728531+1067868482+1066238261+1065323574
1779+1065391760+1065371050+1063593125+1059426462+1054064095+1050704467
1771+1051690272+1055388682+1059123628+1061510021+1061663392+1059318289
1762+1056096206+1054585490+1054996692+1055892949+1056848600+1057397478
1754+1055883766+1051015311+1043899702+1038378559+1036841728+1037295002
1745+1036887121+1034556345+1030152821+1023444637+1015065984+1006339170
1737+996886728+985440926+974379299+968958775+968030281+966708950+962153944
1727+952926316+938237460+918734138+896886560+873937385+847123728+813173557
1717+777866692+753838257+741938140+735438943+730423304+724940781+717675904
1707+709104936+701905054+698179942+697916379+701603132+710058177+721487503
1697+735698403+754533016+773940864+788351438+798390726+807045771+814838490
1687+820594996+825818841+836213843+853410030+870744608+885164691+897236219
1677+907792537+918265691+929015627+937591350+942649971+946931255+953764220
1667+961347040+966160724+968243958+970661611+976371031+984094001+989960764
1657+991599386+988522533+982467231+980884878+987533993+992622051+992211631
1647+990207069+992601863+998423299+1001542483+999240688+991212280+977042475
1638+954864841+924816728+897909356+884031442+878249733+873916870+868254275
1628+860175655+848583255+832092703+810911098+788874396+769132585+750121221
1618+730216010+713674855+705729352+703469889+702394342+701781055+703153640
1608+707855438+715508463+724664519+734468313+744895357+755784597+766540005
1598+776773366+786725581+796863012+806990545+815896258+821837069+823398843
1588+820893987+817182226+815681344+816875615+817643184+814558060+807108617
1578+798286264+794671996+800952892+811293255+819267543+825808942+834774049
1568+846530240+857761910+866887552+873492187+876250511+874285480+871428751
1558+878086919+892029177+903480515+911766885+917929318+922615552+926798170
1548+930198371+930992446+928205141+922908486+917422576+916121760+925561958
1538+941322910+952440675+957234626+959448567+963165278+967941906+970142105
1528+968505176+964505169+959841599+953472588+941887287+923016073+897727004
1519+864225027+820427233+774910452+741545238+724138631+718219767+719763697
1509+730570553+760272329+802755891+830730865+839650124+836302870+825473480
1499+813297100+808738773+815514167+826356126+833635721+836535498+839545533
1489+848860039+865244371+883877877+901279143+916974513+931433736+943576642
1479+950300326+948289317+934526871+905175991+860010953+814008922+785577353
1469+773796155+770178890+772481662+782505124+796915959+807961761+811747895
1459+808382732+800880212+795657670+794710290+795095376+796489452+801575687
1449+814282579+835956272+861139252+881032219+889896057+885791458+870752032
1439+850888176+835168449+832854606+843163904+854877893+860468003+857488773
1429+845743524+827784979+807944568+791649978+784441044+787439942+797397106
1419+812311556+831184463+850376550+867152222+881769960+895229182+908062092
1409+919843616+929604232+937582884+945524219+954054224+961367945+965862580
1400+967885051+968779485+969364572+969610095+968662519+964398038+954340515
1390+937343548+915467835+895283692+883073577+878475979+877379787+876903329
1380+875871351+873538296+869542066+864787125+860813168+857059075+850387426
1370+838839703+824551434+812362354+805687905+805710959+813056201+826285790
1360+841176926+854500035+865710409+875573662+884899695+893943019+902555342
1350+910732106+918686141+926536040+934081087+940596240+945093479+947564340
1340+950028948+955155626+963125747+971628203+978697248+983759777+986917320
1330+988403093+988739466+989084957+990958682+995169044+1000947171+1006338128
1320+1009441748+1009251972+1005724841+999370679+990302217+976921862+956341365
1310+928359619+898932998+876914791+866162054+862830365+861457129+860895878
1300+863109428+868978080+876981024+884412622+888672023+888455872+885081982
1290+882588588+885521383+895850870+911915957+930294887+948273752+964629689
1281+979081488+991706648+1002685566+1012133839+1019981199+1026085540+1030556860
1271+1033892652+1036683734+1039235611+1041459255+1042902305+1042811325
1262+1040333691+1034638664+1024558999+1008028134+982317834+945581139+898900565
1252+847215751+798130159+759279230+735830347+728910440+734914162+746214213
1242+754322270+754512501+748258176+740892680+736430804+734729596+733873066
1232+734394981+739706876+752439818+771741251+794521947+818159759+841232022
1222+862273086+878612417+886327116+881223558+860984058+828231805+792093548
1213+764810663+754113803+758460929+770754339+786029389+804056707+825484877
1203+848081138+867131447+877434948+874149694+854348228+821079204+785799366
1193+763456574+762730750+780990436+807952253+832394234+846997515+851408659
1183+851850210+855062133+861678881+866844569+866913993+863794417+862339970
1173+863829194+862604835+850922758+828013634+802694738+785793700+781064353
1163+783764521+785798064+780965884+767345867+747484942+726915907+711209531
1153+703237651+702662268+707500309+715796122+726180314+737720158+749778075
1143+762001931+774263560+786502786+798622833+810524318+822135213+833379322
1133+844232418+854775190+865026982+874749369+883488882+890678279+895433936
1123+895797792+887811716+866333399+829137830+781432703+735000974+701150901
1113+684107629+680852723+685757322+694477428+704864225+716227383+728365404
1103+740936575+753421194+765392754+776621624+787036229+796727812+805887580
1094+814650017+823058497+831174695+839101572+846827472+854136374+860842540
1084+867083840+873200294+879360122+885504581+891566069+897527916+903334503
1074+908883715+914065879+918765008+922816008+925969383+927980849+928680427
1064+927586709+923191847+912805766+893712800+865529165+832317126+801948140
1054+781948171+775037381+778423906+786799628+795403420+800983631+801940650
1044+798924885+794485346+790545515+785978852+777368873+762297471+741943936
1034+721181022+706339187+701776822+707533914+720055459+735099704+749959579
1024+763658919+776130187+787594680+798225307+807679377+814890525+819105251
1014+821538339+825130269+831876487+840888680+849308362+853920939+851685768
1004+841106981+824943945+810211781+803428767+805866218+813971475+823460777
994+832129239+839650254+846245381+852026895+857057382+861419356+865163159
984+868400417+871365384+874217294+876955560+879607404+882196467+884504253
975+886276448+887701589+889302373+891324845+893502380+895350446+896445465
965+896352792+894182681+888191463+876781544+861337298+847773550+843077808
955+849032686+860087931+868241901+869989934+868630244+870262810+877866470
945+889273718+899831143+905573191+904566938+897347518+886095073+872470889
935+857543349+844509201+838659956+842685101+853842398+867026660+879000825
925+888972773+897019546+903326753+908285016+912423284+916126124+919540522
915+922712458+925699764+928490195+930853989+932373302+932402282+929401170
905+920616981+904502008+884809171+870345063+868151442+877478713+891694692
895+904781591+914640546+921724635+926865770+930613155+933407429+935501799
885+936672234+936531889+935459077+934827034+935948560+939075820+943552611
875+948465221+953002317+956730490+959819847+962738120+965670459+968466687
866+971005799+973228401+974920687+975836351+975961587+975340225+973718210
856+970655815+965834641+958718054+947761735+930363985+904074850+868544735
846+827495626+789343494+764510109+759958489+775306219+803911412+837280403
836+868756392+894460897+912041584+918605906+909633374+881347687+836759725
826+789376318+756808370+746945442+751231415+753966555+747880970+739213094
816+738851453+750823273+769134343+783789138+788894780+785628216+779125242
806+774321522+774620969+781838174+795282873+811709341+827555607+841084448
796+852311428+861828735+870094526+877300334+883529520+888999800+894084406
786+899130198+904322196+909605175+914659498+919078913+922700801+925761503
776+928699118+931868970+935439409+939274974+942812264+945206472+944904029
766+938199166+919938829+888555579+849909470+813903809+788405232+777766008
756+783455500+802496561+827565115+851619731+871633310+887534021+899885393
747+909352358+916751719+922838085+928263037+933546081+938957422+944465670
737+949752751+954332635+956731467+952065813+932329863+893837450+845189892
727+804081650+784562047+788553588+808431250+834194237+858240907+877137195
717+891076391+901690150+910262551+917361228+923107184+927509405+930800456
707+933427032+935631529+937258103+938050354+937912809+936874253+935030226
697+932528756+929528881+926283614+923234765+920724699+918589951+916440419
687+914485157+913736019+915188642+918960840+924269218+930098664+935757417
677+940963743+945791429+950478379+955132115+959826946+964682701+969032497
667+971386913+972199288+973068062+974228077+974603330+971769981+962830924
657+948229857+934419870+929101137+933372261+941217992+945852647+943606795
647+933165032+915752434+896930194+884861792+884476119+894060766+908185374
637+922599075+935515410+946066649+953906975+959722550+964349129+967917874
628+970731360+973798705+977581648+981310798+984226336+986431614+988169488
618+989171052+988965191+987372417+984790452+982305720+981207835+982117898
608+984757629+988370595+991937778+994459176+995757322+996759799+998513497
598+1001175566+1004166063+1006812827+1008657116+1009697886+1010534227
589+1011832439+1013660511+1015663315+1017559508+1019105912+1019963224
581+1020119786+1020073156+1019879473+1018021899+1011560605+997821539+976704083
571+952307233+932344256+923961825+928776487+942688005+959870385+975899848
561+988572419+997638406+1003965802+1008431651+1011236280+1012090140+1010885254
551+1007804493+1002503931+993513228+979075171+958750552+933897628+906769677
541+880049020+857189587+841744169+835408437+836545267+840348334+841186825
531+836528725+829281888+825763354+831092832+845348212+863380610+879643418
521+892205927+901934696+909774436+914446407+912189028+899569665+877232603
511+851727123+833153011+828813766+838148526+854155652+870222041+884602853
501+898362043+911543700+922906793+931639272+937713004+941429455+943268598
492+943826659+943489569+942116268+939063902+933366400+924251894+912198146
482+899013102+886197060+874212930+863759966+856490921+854255359+858302712
472+868031090+880512387+893213483+905582765+917286985+927213345+934475878
462+938841434+940660974+941848016+945497257+951854611+957877154+962595104
452+967340472+970897365+969015760+959408189+943937437+925970490+909243598
442+899381843+900429256+909767858+921112911+930287854+936837783+941914705
432+946422755+951009412+955454487+957910303+956097731+948839887+936216551
422+918958886+899420006+886393153+891561510+909952424+927531678+938040260
412+942675501+947471666+957693956+972474248+986435587+994745663+995386433
402+989018268+978960811+971195379+971816090+979260453+986039429+990979782
392+996813592+1002622980+1004298593+1000352315+994420101+991374899+992309124
382+995370281+1000085626+1006227219+1011042206+1010511889+1004998301+1003539621
##END=
