##TITLE=Y.Matt YM55
##JCAMP-DX=4.24
##DATA TYPE=INFRARED SPECTRUM
##DATE=16/10/2017
##SAMPLING PROCEDURE=Diamant-ATR
##ORIGIN=Angelika Moesle
##XUNITS=1/CM
##YUNITS=TRANSMITTANCE
##RESOLUTION=4
##FIRSTX=3997.453
##LASTX=373.96442
##DELTAX=-1.4165319
##MAXY=0.95307624
##MINY=0.51971859
##XFACTOR=1
##YFACTOR=8.8762142e-010
##NPOINTS=2559
##FIRSTY=0.91506475
##XYDATA=(X++(Y..Y))
3997+1030917833+1030461810+1030287419+1030278824+1030323412+1030415745
3989+1030670113+1031243783+1032013266+1032458813+1032185912+1031396552
3980+1030548704+1029851609+1029429633+1029544326+1030195825+1030873916
3972+1031108273+1030968196+1030781986+1030732496+1030825500+1030941335
3963+1030904201+1030707986+1030554210+1030546219+1030583488+1030610684
3955+1030693481+1030891509+1031234181+1031748759+1032377896+1032927796
3946+1033138985+1032868300+1032336867+1032065577+1032183628+1032139443
3938+1031571144+1030863104+1030566700+1030726385+1030982432+1031014328
3929+1030768825+1030468593+1030473897+1030974172+1031702895+1032163886
3921+1032168990+1031969484+1031965925+1032236745+1032401735+1032212839
3912+1031896155+1031704305+1031551738+1031267689+1030915885+1030651310
3904+1030490148+1030460803+1030793267+1031545828+1032277237+1032517570
3895+1032305440+1032065846+1032184300+1032509982+1032357617+1031513126
3887+1030547831+1030137404+1030292657+1030587383+1031104915+1031925702
3878+1032319676+1031789116+1030802534+1030061255+1029897138+1030453685
3870+1031777298+1033123272+1033565058+1033243002+1032895227+1032877567
3861+1032861047+1032404689+1031409646+1030116184+1029123156+1029521428
3853+1031966932+1034643839+1035881364+1035906747+1035198103+1034085411
3844+1032880857+1031876144+1031286088+1031196912+1031478476+1031824774
3836+1032096265+1032390319+1032672958+1032685313+1032313901+1031861774
3827+1031684764+1031630707+1031257415+1030776144+1031255669+1033085600
3819+1034764173+1035291510+1035120745+1034765181+1034348307+1033869118
3810+1033281278+1032619237+1032226807+1032425305+1032915238+1033367702
3802+1033913840+1034428217+1034434193+1034073391+1033841586+1033813248
3793+1033710709+1033482798+1033301961+1033223461+1033262745+1033618443
3785+1034315202+1034811448+1034684129+1034339511+1034390680+1034641153
3776+1034462195+1033885570+1033492804+1033758050+1034582597+1035163319
3768+1034848582+1034038741+1033363740+1032732453+1031869093+1031137282
3759+1031199531+1031993457+1032750181+1033191766+1033710574+1034771560
3751+1036323620+1037347874+1037109488+1036096449+1035122558+1034746513
3742+1034726703+1034505776+1033946073+1033066731+1032040865+1031642392
3734+1032773751+1034775119+1035969869+1035739608+1034778342+1034208029
3725+1034533913+1035071255+1034998262+1034583201+1034479252+1034594819
3717+1034402834+1033805929+1033233601+1033210904+1033877780+1034724890
3708+1035169765+1035042917+1034412436+1033636104+1033370186+1033969039
3700+1034810306+1035035732+1034578769+1033930360+1033482395+1033340035
3691+1033677670+1034841666+1036469607+1037322290+1037016551+1036107596
3683+1035105300+1034272830+1033695868+1033391339+1033553374+1034368587
3674+1035156201+1035139614+1034845292+1035017198+1035497529+1035632637
3666+1035345499+1034917210+1034590521+1034514036+1034644510+1034869936
3657+1035148277+1035241415+1034775790+1033974411+1033651750+1034611673
3649+1036624322+1037788720+1037122046+1035573208+1034249260+1033705202
3640+1033876169+1034236971+1034288274+1033961249+1033577481+1033440359
3632+1033608371+1034159815+1035167012+1035946971+1035780100+1035063868
3623+1034341861+1033846690+1033787395+1034309225+1034992688+1035238998
3615+1035124573+1035061451+1035143173+1035133034+1034902169+1034629334
3606+1034602138+1034932588+1035522576+1036096583+1036234041+1035786547
3598+1035233693+1035139682+1035419634+1035485643+1035062189+1034464546
3589+1034193927+1034639675+1035662586+1036490423+1036648967+1036264998
3581+1035614775+1034884374+1034153972+1033497504+1033079221+1033064515
3572+1033378647+1033715544+1033882347+1033992340+1034183586+1034247111
3564+1034002010+1033675052+1033554046+1033691235+1033985692+1034353209
3555+1034705618+1034893372+1034802046+1034453130+1033938149+1033314787
3547+1032669869+1032217271+1032169930+1032501790+1033000386+1033485619
3538+1033880064+1034143497+1034240799+1034178885+1034000734+1033762012
3530+1033572714+1033585338+1033799012+1033992273+1034021416+1034039413
3521+1034250535+1034625305+1034974289+1035114298+1034916002+1034423046
3513+1033971926+1033975015+1034463941+1034976706+1035085961+1034869600
3504+1034696754+1034760144+1034916942+1034911704+1034667946+1034364222
3496+1034237105+1034247178+1034118315+1033810092+1033654705+1033898127
3488+1034360529+1034681242+1034728650+1034679765+1034812388+1035193201
3479+1035502968+1035307626+1034546738+1033655175+1033096344+1032902547
3471+1032948679+1033422631+1034499128+1035730677+1036380229+1036281987
3462+1035886736+1035633510+1035630152+1035728193+1035680918+1035403316
3454+1035082267+1034911368+1034939907+1035253167+1035881566+1036437576
3445+1036345646+1035564277+1034659351+1034191443+1034283775+1034694471
3437+1035097175+1035306619+1035379612+1035486583+1035636733+1035637002
3428+1035370950+1034967104+1034650487+1034601332+1034946622+1035651238
3420+1036412125+1036912333+1037140982+1037265346+1037336123+1037320074
3411+1037282335+1037325916+1037411601+1037367952+1037085448+1036681468
3403+1036428443+1036447581+1036558649+1036562476+1036507547+1036499019
3394+1036438851+1036197645+1035902852+1035856317+1036179649+1036656152
3386+1036941006+1036902932+1036678312+1036415684+1036138485+1035853899
3377+1035640225+1035591205+1035699116+1035796284+1035726447+1035599934
3369+1035728461+1036299715+1037199135+1038039731+1038349901+1037972580
3360+1037275217+1036757416+1036539981+1036366261+1035894861+1034973416
3352+1033850920+1033044437+1032768379+1032643680+1032151127+1031197315
3343+1030094226+1029182181+1028664246+1028715079+1029486509+1030903664
3335+1032618162+1034245432+1035489068+1036119817+1036157825+1036029499
3326+1036200197+1036668776+1037079203+1037232576+1037257086+1037365669
3318+1037648106+1038040469+1038362055+1038403555+1038059607+1037393403
3309+1036602834+1035952880+1035678232+1035880693+1036482432+1037193696
3301+1037588879+1037468947+1037151861+1037138162+1037508768+1037950353
3292+1038218151+1038269253+1038166445+1038134682+1038441361+1038974875
3284+1039250866+1039027656+1038625824+1038463118+1038527717+1038491523
3275+1038197133+1037837338+1037689874+1037796846+1037942093+1037908853
3267+1037763875+1037802822+1038156976+1038612797+1038903292+1038967757
3258+1038828688+1038437869+1037807120+1037180265+1036908371+1037113249
3250+1037527906+1037768105+1037741245+1037684905+1037805172+1038020526
3241+1038112858+1038022607+1037883806+1037796644+1037723248+1037657977
3233+1037728553+1038043290+1038539334+1039026179+1039325135+1039420221
3224+1039487036+1039687817+1039953936+1040045598+1039786059+1039255633
3216+1038819891+1038866561+1039397188+1040023035+1040421643+1040611210
3207+1040806217+1041176823+1041645268+1041832216+1041438645+1040744102
3199+1040363155+1040443064+1040509141+1040226637+1039856299+1039771622
3190+1039948900+1040179900+1040455017+1040842612+1041182866+1041176219
3182+1040742222+1040158008+1039822925+1039858649+1039952728+1039686608
3173+1038977024+1038118365+1037456659+1037148772+1037169924+1037374600
3165+1037551073+1037626685+1037835189+1038442972+1039264900+1039751946
3156+1039638595+1039195869+1038764693+1038414232+1038186120+1038278721
3148+1038716747+1039097493+1038963124+1038344328+1037755011+1037692426
3139+1038189142+1038809415+1039097762+1039036587+1038928205+1038881267
3131+1038727021+1038439010+1038256091+1038296919+1038285168+1037799330
3122+1036806503+1035841611+1035433064+1035425073+1035221001+1034669088
3114+1034255908+1034401894+1035019213+1035782384+1036461011+1036923413
3105+1037081621+1036924689+1036508688+1035915074+1035287749+1034833272
3097+1034607107+1034336220+1033693384+1032763746+1032006417+1031746610
3088+1031920665+1032277237+1032629712+1032889318+1032975473+1032823040
3080+1032523950+1032315647+1032260113+1032098951+1031596125+1030774868
3071+1029631824+1027938008+1025541390+1022642818+1019720139+1017356290
3063+1016048458+1015977278+1016999315+1018829180+1021050668+1023072181
3054+1024421446+1025136604+1025687980+1026508229+1027645968+1028802980
3046+1029618864+1029935279+1029861749+1029628131+1029340322+1028913712
3037+1028303041+1027703987+1027416782+1027572035+1028053575+1028618180
3029+1029078903+1029421037+1029728320+1030055480+1030411246+1030725244
3020+1030753245+1030223424+1029146793+1027793029+1026367212+1024931592
3012+1023598779+1022574660+1021998034+1021853659+1022018179+1022331304
3003+1022668067+1023006306+1023453599+1024174733+1025235651+1026479959
2995+1027601582+1028394030+1028899140+1029259539+1029502290+1029586229
2986+1029586430+1029669966+1029889550+1030103023+1030094293+1029740273
2978+1029100123+1028362738+1027670680+1026973183+1026038643+1024643850
2969+1022823588+1020962700+1019583218+1019007600+1019216171+1019968329
2961+1021022733+1022280605+1023746243+1025372371+1026988627+1028406789
2952+1029536403+1030379953+1030959399+1031302809+1031499830+1031726330
2944+1032143204+1032726947+1033249717+1033489245+1033440628+1033274630
2935+1033132472+1033018248+1032830628+1032442563+1031785557+1030901515
2927+1029885923+1028752482+1027347147+1025462689+1023144838+1020841359
2918+1019068774+1017958769+1017338831+1017219974+1017894438+1019456840
2910+1021488761+1023398199+1024937098+1026234858+1027442971+1028540352
2901+1029453471+1030194482+1030828455+1031401991+1031955987+1032548930
2893+1033146103+1033538601+1033568282+1033419542+1033434181+1033634492
2884+1033709097+1033505630+1033268385+1033293768+1033552635+1033759998
2876+1033745157+1033648393+1033725146+1034004024+1034185802+1033973269
2867+1033520604+1033387108+1033894770+1034722271+1035330323+1035587176
2859+1035740817+1035994849+1036364985+1036802273+1037210483+1037439468
2850+1037437588+1037355731+1037346867+1037336526+1037170931+1036924017
2842+1036841892+1037047172+1037490973+1038101107+1038770871+1039280546
2833+1039425055+1039225348+1038926459+1038787255+1038922296+1039303311
2825+1039792976+1040194807+1040418017+1040581328+1040848455+1041251831
2816+1041747405+1042234719+1042479888+1042296297+1041877275+1041689856
2808+1041967056+1042481835+1042843577+1042872116+1042621845+1042195637
2799+1041712150+1041345775+1041162117+1040994978+1040679973+1040307486
2791+1040080046+1040051373+1040120337+1040201589+1040327430+1040576560
2782+1040919836+1041207041+1041310453+1041215972+1041023249+1040902175
2774+1040936288+1041013176+1041023987+1041080260+1041339463+1041726118
2765+1042017217+1042117339+1042138828+1042241770+1042457123+1042688727
2757+1042864528+1043001113+1043110637+1043139243+1043024415+1042781933
2748+1042531862+1042415490+1042478679+1042672678+1042936313+1043212639
2740+1043459822+1043710631+1044011467+1044289674+1044440763+1044516375
2731+1044632815+1044744151+1044721253+1044608238+1044585272+1044707353
2723+1044864620+1044978240+1045072788+1045154712+1045150683+1045008055
2714+1044787195+1044607432+1044525709+1044528328+1044592659+1044639933
2706+1044499050+1044085400+1043574583+1043247893+1043240775+1043496486
2697+1043835263+1044040879+1044041752+1044009050+1044167727+1044542363
2689+1044951581+1045192384+1045189900+1045013561+1044785583+1044610722
2680+1044579900+1044729177+1044962728+1045097970+1045022089+1044773362
2672+1044478972+1044252270+1044134219+1044104337+1044127437+1044177666
2663+1044237363+1044310087+1044422632+1044591651+1044796328+1044994154
2655+1045132284+1045150616+1045024507+1044818219+1044633889+1044506370
2646+1044393287+1044241795+1044037992+1043853326+1043837143+1044059144
2638+1044396578+1044656116+1044728908+1044627510+1044526582+1044687207
2629+1045129732+1045494563+1045441514+1045077019+1044804990+1044851459
2621+1045081451+1045251276+1045287403+1045265780+1045310503+1045634708
2612+1046376860+1047208726+1047486530+1047031381+1046389753+1046142638
2604+1046313805+1046589057+1046799106+1046967722+1047035746+1046825160
2595+1046368869+1046018677+1046039829+1046323878+1046646740+1046903794
2587+1046975041+1046728866+1046302591+1046117657+1046499746+1047411388
2578+1048515350+1049338890+1049441496+1048700821+1047564828+1046828585
2570+1046957313+1047723304+1048604392+1049312298+1049806126+1050080102
2561+1050166996+1050207018+1050375835+1050779480+1051379406+1051977453
2553+1052409570+1052772655+1053258559+1053758498+1053941082+1053743927
2544+1053464108+1053316712+1053247278+1053221156+1053344848+1053654884
2536+1054028445+1054293624+1054286909+1053922414+1053316175+1052698722
2527+1052187501+1051818574+1051703611+1051919502+1052329794+1052722426
2519+1053032193+1053290993+1053483985+1053598209+1053710821+1053874737
2510+1053965122+1053758498+1053200339+1052528024+1052093154+1052105779
2502+1052550654+1053250703+1053900926+1054161337+1053940612+1053564566
2493+1053456386+1053654079+1053834312+1053798185+1053715589+1053813629
2485+1054034355+1054178662+1054273949+1054519319+1054892275+1055125491
2476+1055099168+1054965201+1054858028+1054764890+1054668864+1054587276
2468+1054492526+1054316657+1054001182+1053498221+1052818519+1052142913
2459+1051827706+1052152784+1052997073+1053866746+1054344861+1054398850
2451+1054186787+1053792208+1053287569+1052852766+1052660378+1052747205
2442+1053032663+1053348945+1053457125+1053207055+1052749824+1052484980
2434+1052683075+1053173479+1053492446+1053380237+1053035148+1052820601
2425+1052875262+1053145343+1053629434+1054352919+1055171959+1055814393
2417+1056100724+1056005101+1055554250+1054827340+1054058798+1053577997
2408+1053553486+1053878766+1054353657+1054845270+1055207885+1055247773
2400+1054943310+1054557662+1054365275+1054368431+1054432828+1054520259
2391+1054595200+1054527377+1054326058+1054237486+1054365812+1054438603
2383+1054168657+1053646423+1053178515+1052901450+1052738744+1052689925
2374+1052961551+1053663815+1054501591+1055056661+1055290481+1055449696
2366+1055681635+1056079438+1056741009+1057460733+1057785341+1057597721
2357+1057268346+1057080726+1056799833+1056027866+1054831235+1053696787
2349+1053002513+1052823018+1053001975+1053240966+1053348407+1053442083
2340+1053646356+1053786500+1053657503+1053390847+1053310198+1053522328
2332+1053765684+1053591830+1052721284+1051326559+1049984076+1049298599
2323+1049430819+1049944054+1050317078+1050520344+1050784382+1051110400
2315+1051382294+1051627328+1051839995+1051836369+1051586634+1051467240
2306+1051924471+1052962894+1054074779+1054679541+1054638579+1054355806
2298+1054343585+1054698813+1055069151+1055163565+1055161685+1055410480
2289+1055804454+1055838701+1055291488+1054501725+1053974389+1054038921
2281+1054810486+1056116505+1057469127+1058338396+1058465312+1057939184
2272+1057130082+1056513099+1056394443+1056717372+1057130955+1057337310
2264+1057441864+1057768150+1058203020+1058146680+1057427023+1056847980
2255+1057334086+1058692551+1059685848+1059398979+1058201946+1057203612
2247+1057006591+1057280097+1057411176+1057273785+1057315553+1057952815
2238+1058930131+1059455520+1059121511+1058444495+1058253719+1058683552
2230+1058996677+1058448927+1057280970+1056599925+1057062931+1058009021
2221+1058312879+1057725442+1056857113+1056289754+1056252821+1056759811
2213+1057614912+1058537298+1059291604+1059583846+1059388503+1059526700
2204+1060906988+1062957242+1063987405+1063390769+1062363493+1062164256
2196+1062554067+1062318300+1060904235+1059079072+1058038836+1058290652
2187+1059376148+1060285103+1060429343+1060547328+1061886385+1064198998
2179+1065842988+1066031884+1065486416+1064931749+1064367010+1063694022
2170+1062902850+1061983351+1061299217+1061403368+1062050905+1062280226
2162+1061888937+1061947157+1063372906+1065674640+1067642231+1068512306
2153+1068183065+1067077827+1065946602+1065431487+1065769256+1066907935
2145+1068632372+1070355466+1071135492+1070410060+1068568243+1066462120
2136+1064692625+1063606458+1063358805+1063619753+1063759428+1063545552
2128+1063328251+1063570263+1064417440+1065601379+1066625431+1067106635
2119+1066975489+1066394365+1065538391+1064463640+1063307367+1062522305
2111+1062385116+1062347108+1061685873+1060694724+1060298869+1060735015
2102+1061493351+1062117385+1062353017+1062076624+1061586556+1061460581
2094+1061862882+1062395121+1062689444+1062835699+1063167022+1063771582
2085+1064331554+1064428117+1063915621+1063064079+1062456564+1062636059
2077+1063606189+1064691752+1065157175+1064984799+1064742316+1064728282
2068+1064796306+1064941889+1065340430+1065817403+1065929277+1065508778
2060+1064760917+1064090482+1063862504+1063977870+1063964439+1063749086
2051+1063781990+1064247011+1064881319+1065681960+1066906928+1068120279
2043+1068175276+1066665655+1064801141+1064102569+1064760179+1066047127
2034+1067608656+1069255802+1070185776+1069678182+1068129277+1066671967
2026+1066105213+1066391746+1066894841+1067151828+1067487784+1068615786
2017+1070604999+1072598443+1073683805+1073684812+1073102009+1072637324
2009+1072646792+1072831659+1072690642+1072128185+1071228631+1069989762
2000+1068864513+1068742701+1069711959+1070620780+1070340559+1068767077
1992+1066645644+1065045503+1064690812+1065455393+1066701177+1068028417
1983+1069272254+1070063158+1070019174+1069244856+1068455430+1068656412
1975+1070208809+1072010134+1072462194+1071476216+1070613729+1071026976
1966+1071979647+1071871735+1070142195+1067532104+1065036370+1063208924
1958+1062414998+1063051858+1064956595+1067086826+1068430449+1068844032
1949+1068600677+1067672651+1066007776+1064186373+1063253579+1063727799
1941+1065007764+1066187002+1066983144+1067583541+1068201599+1068938111
1932+1069749899+1070394481+1070527373+1070047982+1069327654+1068793535
1924+1068278218+1067275184+1065893620+1064813295+1064362108+1064279579
1915+1064320071+1064533611+1064971637+1065534496+1066150741+1066929827
1907+1067925407+1068871296+1069507215+1069990098+1070543153+1070921348
1898+1070758641+1070199408+1069727336+1069544551+1069468133+1069332959
1890+1069151651+1068894866+1068430651+1067823270+1067388736+1067335956
1881+1067553861+1067799297+1067886258+1067734698+1067434936+1067235632
1873+1067413716+1068095433+1069029168+1069579940+1069402325+1068843898
1864+1068362627+1068195488+1068394524+1068831475+1069351224+1069900049
1856+1070442897+1070934308+1071317001+1071448684+1071243471+1070860912
1847+1070516494+1070285294+1070203034+1070239430+1070282406+1070386893
1839+1070635687+1070862188+1070882333+1070808333+1070808467+1070842177
1830+1070699884+1070162475+1069307240+1068524326+1068164532+1068312129
1822+1068823417+1069417837+1069793278+1069900250+1069969684+1070189133
1813+1070573237+1070998504+1071257774+1071323045+1071392546+1071562035
1805+1071786521+1072041090+1072271149+1072390477+1072408070+1072335144
1796+1072156321+1071977297+1071931097+1072001135+1072118180+1072226293
1788+1072209438+1071972865+1071506233+1070891868+1070368292+1070221366
1779+1070489701+1070980911+1071523289+1072005164+1072393700+1072730731
1771+1072932184+1072944942+1072932385+1072927886+1072831054+1072747586
1762+1072849454+1073046475+1073238996+1073502497+1073741823+1073736317
1754+1073441725+1072914724+1072324333+1072000330+1072010201+1072167603
1745+1072355491+1072387455+1072174922+1071981124+1071940364+1071784439
1737+1071408864+1070874141+1070061479+1069079598+1068245516+1067562724
1728+1067063927+1066787802+1066520206+1066136774+1065810218+1065634081
1720+1065661613+1066179952+1067082931+1067674665+1067973890+1068251492
1711+1068457108+1068577376+1068455497+1067700787+1066430760+1065160130
1703+1063553878+1060624753+1055936473+1049764157+1041156476+1028591253
1694+1013540436+998310863+981755931+961562424+938131166+910995255+869569952
1684+800271421+723213527+668747169+632390623+605047014+587526989+585518302
1674+600418365+625956552+659678362+704842296+754107542+791417699+815806060
1664+836548057+859511273+882376046+899746190+911280311+919369720+926025188
1655+934900801+949697048+962120986+966528642+968670758+972816189+977887028
1645+980013834+979552439+979265436+980980741+985027661+991121478+998943090
1635+1006096884+1010075311+1012097093+1014085702+1016741724+1019778359
1626+1022756101+1025698590+1028677004+1031107937+1032371718+1032738363
1618+1032796180+1032261322+1030004378+1025495593+1018211458+1006427402
1609+986914268+955623793+910362021+854373082+798101034+756409478+739798744
1599+747183403+769301726+796835171+824087656+848552234+869860716+888741690
1589+905729074+920728252+933641921+944624732+953673460+960415083+964309906
1579+964893717+961456997+953143908+941954004+932313205+925456419+920938770
1570+919261003+920791776+924927202+931031763+937630152+942780229+947027125
1560+955221290+969355497+979692382+984791491+988709146+992455029+995853339
1550+998972434+1001763632+1004240966+1006857571+1009895145+1013218447
1541+1017409272+1022612466+1026121507+1027302021+1027921757+1029318095
1533+1031463098+1033114475+1033866835+1034416197+1035234230+1036037087
1524+1036601088+1037491577+1039166524+1040925880+1042037833+1042630306
1516+1042893403+1042792677+1042376475+1041830202+1041265395+1040461866
1507+1038873410+1036819732+1035483159+1035066756+1035491754+1036736800
1499+1038594935+1040603824+1042125532+1042860432+1043186920+1043759449
1490+1045057276+1046823683+1048140513+1048635416+1048649652+1048616748
1482+1048744671+1048974596+1049195052+1049457344+1049917060+1050636515
1473+1051485236+1052208385+1052601756+1052631705+1052434281+1052272716
1465+1052296890+1052290242+1052054207+1051714020+1051524788+1051661172
1456+1051727719+1051116040+1049936265+1048488020+1046924141+1045321784
1448+1043709019+1042024470+1040123761+1037789728+1034790161+1031075167
1439+1026671943+1021300268+1014796025+1008046949+1001837834+995874760+989831374
1429+984048130+979125896+975323204+972705189+971287967+971040315+972273878
1419+975385654+978979037+980070845+977020915+968579433+952139464+925370466
1409+890194300+854240862+828103016+820947072+833290160+855906877+880760192
1400+905142174+927118741+945214452+960492978+973802839+984120519+991264913
1390+996530691+1001061770+1004968815+1007723012+1009165953+1009585176
1381+1009189993+1007971202+1005798130+1002348383+997044396+989509720+980036329
1371+968553781+953458577+932821135+906529043+875899670+842552093+810766917
1361+787944113+777948153+778930908+788150602+803819813+823953421+846164479
1351+868812422+891193976+912574646+932030029+948994985+963259195+974962939
1341+984844205+993745201+1001669822+1008081129+1013085354+1017394163+1021495275
1332+1025338728+1028669954+1031448997+1033834737+1035903658+1037576523
1323+1038633748+1038574857+1036728944+1033075998+1029020549+1026685642
1315+1027252329+1030278891+1034401088+1038426856+1041726655+1043963185
1306+1044926601+1044611595+1043264547+1041374515+1039576011+1038333852
1298+1037586529+1036746134+1035168422+1032609030+1029149949+1024761968
1289+1018995042+1010949684+999440813+983184166+960840753+931100458+893172916
1279+847595265+796932876+745860999+700047649+664080915+639861371+626617049
1269+622308173+625124820+633905616+647520880+664261081+682010762+698961549
1259+714205962+727787180+740149473+751502219+761692648+770498827+777861193
1249+783937013+789119188+794043638+799513286+806272166+814678125+824571949
1239+835487273+846874265+858135417+868732445+878431732+887322118+895503659
1230+902869114+909256313+914680970+919298943+923276295+926862762+930478103
1220+934533351+939168312+944226728+949419178+954456709+959097245+963175726
1210+966666570+969704010+972455924+974910091+976779574+977547446+976245120
1200+970835907+958627994+939290997+918122794+904276061+903830246+915081795
1190+931257927+946566806+958816084+968017648+974615432+979022081+981748813
1180+983409591+984532221+985359387+985813596+985580515+984271340+981798841
1170+978780808+976441603+975922392+977611440+981067567+985471462+990102059
1160+994522205+998545623+1002145385+1005330490+1008041912+1010185842+1011768523
1150+1012941651+1013872162+1014579463+1014998888+1015262388+1015756955
1142+1016729637+1017942652+1018907948+1019379347+1019421048+1019077571
1133+1018237177+1016800078+1014644331+1011382136+1006720918+1001447754
1125+997541581+996649212+998599411+1001817218+1004974993+1007834685+1010752126
1115+1013925748+1017196605+1020251572+1022861126+1025028222+1026969087
1106+1028872347+1030670583+1032126214+1033142209+1033899202+1034626514
1098+1035318639+1035823413+1036140970+1036398561+1036572818+1036507211
1089+1036157153+1035533388+1034407534+1032211899+1028117905+1021183694
1081+1010915504+998361696+986752300+980289623+981383378+988877628+999210283
1071+1009126468+1017126432+1023055058+1027281809+1030295947+1032511661
1062+1034179624+1035485912+1036647490+1037802083+1038894898+1039797340
1054+1040481206+1040995851+1041374448+1041652252+1041884258+1042134866
1045+1042516283+1043159321+1044076469+1045110997+1046020288+1046649426
1037+1047128347+1047759767+1048553559+1049073778+1048808867+1047427706
1028+1044625496+1040021356+1033450902+1024881430+1012520681+990981133+955548987
1018+912007757+878541927+871616579+890771933+921344295+949696847+971437915
1009+987824097+1000446667+1010098277+1017410279+1022977968+1027284226
1000+1030685289+1033392413+1035502767+1037053484+1038070754+1038635024
992+1038845408+1038647178+1037723853+1035571932+1031810806+1026783213
983+1021988431+1019439985+1020033599+1022599774+1024847854+1025047360
975+1022507844+1016759251+1006778937+990973276+967752066+936761756+900806236
965+866807294+843022687+833053990+832667469+834298835+835061200+839032508
955+851616467+873306904+899446496+924495018+945399386+961759445+974402430
945+984297529+992148217+998387885+1003418098+1007743158+1011768187+1015578535
935+1019044063+1022038996+1024457371+1026148905+1027058666+1027481784
926+1027998511+1028999329+1030331672+1031399238+1031392523+1029532709
918+1025786424+1021694377+1019866796+1021934039+1027099292+1033014689
909+1037794898+1040927961+1042781731+1043884216+1044595345+1045073661
901+1045445342+1045924464+1046639353+1047477800+1048294625+1049180548
892+1050350049+1051791646+1053157161+1054087001+1054594125+1054999247
884+1055547736+1056269340+1057127329+1058093765+1059100761+1060027646
875+1060765434+1061332726+1061895719+1062527006+1063021438+1063144123
867+1062930314+1062558970+1062104895+1061561643+1060940228+1060231987
858+1059364866+1058251503+1056829850+1054972252+1052348932+1048364999
850+1041844975+1030488805+1011930693+987600417+965496867+956173491+963928623
840+982842501+1002234562+1014808783+1019341743+1017848037+1011868377+1000410741
830+979425927+942837912+886135426+812298295+735458977+676122360+649397884
820+656515484+686823137+726452286+765419930+799742942+829736597+856765402
810+881042965+901814843+918660606+932107589+943233834+952924123+961542816
800+969214144+976108669+982387084+988191614+993709880+998946984+1003546423
790+1007201719+1010243994+1013536407+1017660081+1022321970+1026682218
782+1030139754+1032674502+1034618657+1036324896+1037967342+1039513762
773+1040866585+1042009495+1042999435+1043784497+1044074052+1043556922
765+1042215178+1040211998+1037425031+1032516496+1021717746+1000489442+970225572
755+942668557+931846304+939048112+949891786+949435697+937903591+929161675
745+935283293+955322688+978823381+996673857+1006461044+1010241308+1011210498
735+1012338500+1015302813+1019597857+1023129125+1023534918+1018877528
727+1007962339+990241062+964212672+926184134+874398577+817313062+774037885
717+761178607+780294140+819220822+862678314+900917706+931058959+953837577
707+970488804+981709732+988326117+991987591+994625349+997555817+1001367777
697+1006158059+1011539605+1016777717+1021235669+1024688975+1027299066
688+1029454478+1031626007+1034208096+1037255273+1040245439+1042357941
680+1043302487+1043700558+1044413567+1045640281+1046825899+1047349005
671+1047114245+1046472752+1045947833+1045989869+1046638346+1047797238
663+1049313574+1050709105+1051527474+1051630484+1050378185+1046522578
654+1040259339+1034514439+1032773281+1035920849+1041955573+1048135679
646+1052709466+1055097757+1055293032+1053218739+1048081756+1038300008
637+1023551303+1008072265+999952234+1004089205+1016928337+1030672463+1040831667
628+1047663674+1052596988+1056024374+1057814887+1058092355+1057357724
619+1056105089+1054089083+1050223537+1043305643+1031983183+1014501769+990981804
609+966651730+950073430+946124549+951862936+960042395+964754312+962120986
599+947304325+914441309+862363779+800639072+747101479+715571947+705536704
589+707334067+716356741+736290844+769686770+811428152+852746081+887586962
579+914230522+933780790+948130886+958976709+967992735+976511507+984728034
569+992075962+998297769+1003442473+1007329843+1009925363+1011820901+1013735174
560+1015883401+1018133227+1020398229+1022563244+1024318436+1025498144
551+1026452225+1027621458+1028748050+1028946817+1027613803+1024930987
543+1021455790+1017321103+1011678944+1003004112+990470315+975268274+960324630
533+948592213+941647325+939645487+942279686+949168906+958787209+968361192
523+976175618+982494525+988103780+993380773+998212621+1001715015+1002539763
513+1000050006+994751861+987165748+976389763+960748957+940513011+919107160
503+901670200+892896858+894588458+904991017+920689371+938029902+953891903
493+966453030+975256053+980986113+985100856+988943638+992907224+996249328
483+997890498+997535336+995485687+991899355+987285949+982840353+978989848
473+974574135+969069769+964795475+964943006+970548904+979594610+988503933
463+995111992+999941289+1004766624+1010398643+1015686111+1019154459+1021395958
453+1023825078+1026522465+1028862878+1031219408+1034290155+1037402669
445+1039549755+1041506198+1044439555+1047335978+1048495944+1047952491
436+1046674138+1045202054+1044275169+1045090852+1047249957+1047861434
428+1044570633+1038318609+1031805501+1026593780+1022842995+1021051340
419+1021831835+1023719651+1025199591+1026957671+1028527661+1027221104
411+1021263738+1012837835+1006809558+1007095889+1013521902+1021349087
402+1024895599+1021797186+1014734582+1011150533+1015966198+1024026262
394+1029727984+1033132405+1035265187+1035918431+1036066969+1038584795
385+1044420819+1049456135+1049304710+1044597829+1037643876+1030188036
377+1025590208+1029477041+1041036007
##END=
