##TITLE=X8731
##JCAMP-DX=4.24
##DATA TYPE=INFRARED SPECTRUM
##DATE=2/11/2018
##SAMPLING PROCEDURE=ATR platinum Diamond 1 Refl
##ORIGIN=ComPlat
##XUNITS=1/CM
##YUNITS=TRANSMITTANCE
##RESOLUTION=4
##FIRSTX=3997.453
##LASTX=373.96442
##DELTAX=-1.4165319
##MAXY=1.1571628
##MINY=0.53694981
##XFACTOR=1
##YFACTOR=1.0776918e-009
##NPOINTS=2559
##FIRSTY=0.97319049
##XYDATA=(X++(Y..Y))
3997+903032261+902924245+902626745+902473322+902718777+903235185+903618634
3988+903668964+903597561+903678421+903869730+903876920+903516646+902958426
3978+902577743+902551748+902688635+902706776+902535709+902264480+902008018
3968+901920798+902161608+902765291+903591975+904354392+904720363+904575125
3958+904130064+903658953+903234356+902821207+902482945+902350318+902494007
3948+902891227+903421683+903878746+904062478+903866799+903308413+902537313
3938+901863002+901669314+902137051+903042161+903859222+904125086+903822055
3928+903321576+903028169+903147799+903596345+904076305+904314238+904166456
3918+903674439+903169756+903024131+903229544+903546678+903873491+904217671
3908+904450959+904296872+903559233+902442184+901581541+901363407+901492108
3898+901581651+901660022+901882249+902212657+902513365+902790014+903251390
3888+903973045+904598796+904545922+903803361+903043157+902579181+902381788
3878+902645605+903350391+903907837+903752976+903075070+902574867+902598926
3869+902975184+903281810+903053831+902118357+901086426+900882175+901604936
3859+902745380+903930735+904896462+904905533+903256755+901448636+901015190
3849+901516388+902291747+903077061+903692525+903920503+903824046+903761604
3839+903819843+903670512+903249787+902936966+902976013+903319640+903799545
3829+904164852+904116845+903622118+903106097+902957098+903008756+902799748
3819+902275929+901685685+901222704+901194000+901692599+902369841+902901182
3809+903156538+903144978+903145697+903537442+904153016+904252183+903496514
3799+902722649+902678956+903222243+903821502+904103295+904096824+904094058
3789+904364126+904937445+905615684+906095422+906119592+905655726+904914382
3779+904231277+903934772+904110042+904547305+904945963+905084453+904883133
3769+904443271+904066847+904082167+904565722+905238098+905749860+906032925
3759+906254321+906522951+906756571+906871998+906909386+906917129+906759447
3750+906267098+905678237+905306458+905095128+904805979+904564063+904695806
3740+905213763+905874800+906315326+906153606+905412704+904800946+904859683
3730+905300928+905477083+905058403+904339735+903950977+904217505+905005419
3720+905921535+906505916+906577761+906415765+906455088+906800264+907014249
3710+906736328+906347681+906253326+906331089+906244809+905903339+905660040
3700+905848695+906227110+906415654+906453208+906566755+906620790+906126727
3690+904907192+903654086+903214556+903580969+904368163+905251372+905987849
3680+906493472+906701595+906258082+904961947+903879077+904085430+904931251
3670+905368845+905354742+905689353+906502432+907230557+907509972+907527228
3660+907669369+907991094+908180246+907940708+907367002+906771117+906278712
3650+905763798+905065870+904495094+904549794+905118965+905722151+906041110
3640+906139779+906230650+906282639+906122910+905847036+905832434+906274841
3631+906880017+907042511+906583513+906108309+905955771+906023744+906198461
3621+906342039+906267485+906080434+906142821+906454038+906639540+906455033
3611+906005879+905489637+905035561+904784188+904801886+904984457+905191584
3601+905408003+905772260+906414935+907252459+907908851+907968970+907485802
3591+906939639+906633566+906423895+906061242+905625860+905288705+905015540
3581+904713947+904350299+903972216+903747445+903857839+904278897+904807804
3571+905301370+905665405+905631336+904927269+903913977+903276168+903148850
3561+903330204+903771836+904558754+905552799+906323843+906513217+906133308
3551+905534215+905095294+904969137+905091201+905326867+905536096+905503298
3541+905049278+904393273+904134212+904542825+905071290+905021734+904484033
3531+904125197+904359701+905001381+905547489+905667673+905404132+905012498
3521+904761788+904809519+905078425+905253308+905067750+904590113+904128183
3512+903962758+904204563+904744090+905321225+905712914+905753400+905327973
3502+904611130+904049536+903869675+903905349+903935436+903913258+903893236
3492+903923047+903965800+903847884+903469524+903092270+903100566+903485784
3482+903882507+904099036+904269439+904451180+904467330+904173646+903625049
3472+903034971+902736199+902964344+903551103+904114135+904545922+904904759
3462+904963717+904476677+903772002+903449171+903580139+903707181+903545738
3452+903272518+903133530+903100843+902960638+902568506+902025772+901641328
3442+901666106+902072341+902656943+903274896+903809888+904085762+904061316
3432+903961099+903972271+903970501+903784004+903540152+903473727+903538714
3422+903523891+903456361+903534566+903746837+903916853+904024703+904164465
3412+904301296+904321428+904237084+904217782+904423748+904786124+904975608
3403+904782086+904452895+904377344+904557426+904726834+904833688+904987444
3393+905053868+904792041+904321594+903967127+903720787+903347958+902909589
3383+902725359+902901791+903263448+903604917+903750764+903608125+903365988
3373+903439271+904019504+904792595+905205577+904995353+904436302+904066902
3363+904159100+904491334+904706259+904807085+905086610+905615075+906115444
3353+906345634+906289331+906035745+905758211+905659266+905740900+905815676
3343+905777016+905616071+905312100+904950332+904756479+904825945+905006138
3333+905097119+905039654+904935676+904952102+905143356+905371998+905452913
3323+905328692+905116532+905037386+905255631+905745159+906323401+906769844
3313+906899154+906640369+906131704+905688247+905585320+905804891+906047415
3303+906049296+905807878+905463698+905116255+904825724+904663728+904702830
3293+904993527+905505677+906054274+906377381+906351940+906127667+906017549
3284+906187676+906479313+906633400+906619242+906599995+906675545+906808781
3274+906943566+907069114+907163690+907154841+907009271+906830406+906757511
3264+906830351+907045498+907409146+907839993+908178974+908327973+908255907
3254+907981304+907656759+907478170+907465836+907518876+907608807+907716048
3244+907750948+907731756+907819916+908021955+908088712+907883686+907639779
3234+907658694+907878598+907978926+907867923+907797904+907962334+908241637
3224+908443787+908525587+908470003+908159893+907567437+906974649+906833835
3214+907351737+908272942+909133197+909663487+909857230+909769236+909440985
3204+908980825+908567731+908366799+908452083+908729119+908947253+908913073
3194+908688136+908483940+908418290+908443179+908469616+908488918+908539690
3184+908584987+908519669+908329521+908148278+908152924+908450700+908960969
3174+909357193+909350003+909088841+909030878+909368808+909841855+910095938
3165+910003519+909669793+909295138+909014065+908859369+908906712+909299508
3155+910014691+910773236+911264424+911330959+910987830+910451788+910062035
3145+909963366+909960711+909822497+909583678+909454314+909604308+910073041
3135+910681923+911059454+910976215+910609470+910293553+910171101+910238577
3125+910480216+910797240+911031578+911157957+911257289+911312265+911254911
3115+911159892+911177038+911320008+911469560+911510266+911358502+910973616
3105+910481875+910192616+910309868+910681094+911007686+911216693+911376477
3095+911405514+911225874+911050162+911107903+911230299+911081521+910662566
3085+910241619+909923489+909597727+909217542+908849303+908501749+908149052
3075+907926052+908077374+908624367+909225340+909497011+909421406+909316542
3065+909392148+909470298+909283745+908927453+908751519+908862853+909024075
3055+909025900+908886359+908692063+908480622+908273882+908098446+907988549
3046+907987499+908085227+908223220+908394840+908597321+908646102+908247113
3036+907351018+906287285+905475423+905110946+905155579+905489084+905986909
3026+906529809+907039691+907471201+907745140+907794032+907690330+907605710
3016+907592933+907500680+907140461+906496624+905783708+905290364+905128533
3006+905118302+904932744+904376736+903550494+902726299+901992919+901053850
2996+899516186+897331477+894751539+891876756+888459681+884119465+878593674
2986+871888059+864337840+856396541+848239155+839692457+830637372+821424328
2976+812924974+806211395+801951762+799833257+798533471+796363695+792066730
2966+785261063+776511055+767109522+758493082+751490852+746060743+741818035
2956+738666547+736685260+735551895+734525605+733103976+731349340+729427674
2946+727211163+724635705+722164447+720567659+720332214+721385051+723195327
2936+725060855+726529385+727718667+729241896+731853303+736094242+742011446
2927+749055543+756318439+762970294+768509581+772722312+775613798+777458863
2917+778768659+779976247+781094016+781772697+781674194+780684573+778859419
2907+776381026+773631736+771240287+769972193+770390927+772397656+775043797
2897+776957830+777171484+775659482+773212947+771018559+770419355+772663299
2887+778315966+786734349+796212207+804717589+810712168+813589164+813434855
2877+810435132+804701163+796625466+787107842+777368047+768639388+761947932
2867+758074458+757676906+761154764+767988250+776220800+782989189+785858829
2857+783828262+777470975+768690160+760451084+756071656+757865561+765951821
2847+778251422+791671611+803575983+812597829+818488374+821596998+822718970
2837+823080461+823839283+825409357+827466306+829688900+832332387+835986013
2827+840907955+846739708+852793632+858451498+863345565+867384243+870699607
2817+873490212+875876739+877916874+879694020+881306295+882788430+884127485
2808+885357196+886538679+887649423+888621566+889507264+890435216+891369805
2798+892091128+892478835+892678164+892924615+893310718+893797702+894357859
2788+894973489+895545425+895980642+896392131+897026455+897929740+898834021
2778+899452471+899759318+899904722+899990781+900072581+900289277+900776482
2768+901430551+901954259+902196839+902303195+902479074+902746431+902977562
2758+903066276+903030381+902991223+903044484+903140830+903149292+903049849
2748+902972087+903010913+903103055+903155874+903182477+903222022+903253935
2738+903320525+903559952+903951199+904201411+904076526+903705522+903393365
2728+903260682+903223128+903237619+903395356+903767798+904294162+904873123
2718+905445336+905926789+906194368+906208416+906063731+905918825+905943879
2708+906250782+906753750+907180504+907305057+907120163+906796005+906543691
2698+906491923+906628367+906859941+907112641+907338739+907483037+907504994
2689+907419101+907273144+907090352+906869951+906678310+906671286+906934053
2679+907329337+907611517+907675784+907627169+907649181+907837228+908107295
2669+908248219+908121177+907799784+907483148+907300798+907232659+907192616
2659+907176522+907302126+907618817+907913884+907886285+907522859+907104732
2649+906847331+906747168+906749878+906839587+906973487+907120495+907346870
2639+907747906+908337596+909047360+909741250+910215237+910300521+910033275
2629+909684228+909562496+909751593+910052245+910195879+910079125+909792742
2619+909533791+909524389+909870947+910423194+910851109+910912003+910618596
2609+910184320+909838149+909645181+909522010+909482189+909736051+910410086
2599+911288538+911997527+912315104+912204267+911770987+911347607+911343348
2589+911821483+912397236+912656187+912516701+912179102+911892000+911750800
2580+911668281+911605783+911720602+912102335+912542031+912787598+912815860
2570+912700709+912466758+912206701+912133861+912431637+913072653+913729764
2560+913991425+913783191+913395153+913048982+912806734+912848768+913327013
2550+913939546+914152038+913878431+913532869+913405108+913347256+913160537
2540+912979847+913035929+913221929+913236309+913125417+913295599+913884681
2530+914451087+914490577+914011004+913385363+912885769+912623610+912722279
2520+913228455+913950442+914570994+914828838+914627850+914200930+914035726
2510+914313537+914619278+914532223+914254579+914288648+914685647+914942994
2500+914644332+914053203+913885455+914449041+915291321+915864143+916145272
2490+916330332+916370319+916177019+915935158+915929185+916269991+916877822
2480+917536426+917953225+917923801+917495996+916949280+916584858+916497195
2470+916548852+916599957+916717209+917063214+917541128+917730059+917392350
2461+916893419+916793312+917154748+917591955+917804226+917755113+917552742
2451+917368236+917272996+917146341+916934347+916833466+917017806+917390027
2441+917732769+917938735+918041054+918097799+918078718+917923359+917696542
2431+917560983+917620494+917872199+918193592+918346629+918184688+917856879
2421+917627408+917548373+917454294+917227091+916965209+916883685+917070183
2411+917416685+917778453+918078940+918264110+918348896+918507685+918891078
2401+919329502+919424686+919035818+918542860+918486004+918973210+919588342
2391+919921460+920051378+920393290+921163615+922138026+922909126+923242797
2381+923205962+923084451+923154084+923395778+923527687+923443619+923403024
2371+923590406+923797589+923774691+923568062+923317573+923024166+922664058
2361+922330718+922160592+922174031+922246595+922280609+922307046+922387021
2351+922566274+922921128+923506283+924253822+924953077+925398746+925645087
2342+925944357+926312761+926371055+925829980+925024369+924607404+924748438
2332+925010984+924967568+924540813+923832211+923057793+922556982+922523687
2322+922744807+922842370+922733358+922643207+922696579+922665108+922205170
2312+921316707+920454571+920146839+920575086+921477652+922359036+922844582
2302+922910619+922757694+922502725+922131002+921757122+921688043+922006892
2292+922323141+922274083+922063914+922087807+922276848+922307765+922228178
2282+922409255+923000273+923742170+924251222+924387003+924382080+924551930
2272+924880403+925051912+924881730+924509952+924164887+923944873+923883813
2262+924012017+924252660+924483736+924748549+925107994+925328450+925155503
2252+924835603+924857616+925217392+925378504+924974592+924286619+923936577
2242+924245083+925035430+926015870+927066771+928070329+928777051+929008679
2232+928840876+928497194+928184595+928088359+928423634+929281346+930340378
2223+930996991+930945554+930419578+929800907+929291965+928986777+928911448
2213+928912776+928792758+928587566+928480823+928518653+928754153+929498042
2203+930856509+932253360+933081759+933542250+934128623+934723512+934961888
2193+934949942+934921071+934647519+933856177+932922583+932581003+932988952
2183+933551210+933754853+933676095+933596784+933717023+934187359+934839105
2173+935150487+934929810+934554602+934344986+934356490+934802160+935933644
2163+937409585+938292407+937869414+936538489+935478020+935044186+934468433
2153+933356417+932354463+932177257+932769602+933395353+933140938+931744972
2143+930224121+929994483+931202956+932653898+933388163+933510061+933456855
2133+933326108+933051229+932589188+931836008+930831068+930055654+930064945
2123+930723992+931219881+931035264+930565922+930462940+930686604+930617137
2113+929921920+928914435+928155171+928020110+928557147+929460543+930222019
2104+930499332+930364713+930164831+930126779+930170030+930192153+930368142
2094+930916020+931743644+932592507+933298344+933670896+933424335+932514302
2084+931347199+930465152+930157309+930393694+930910600+931308926+931350296
2074+931330496+931877710+933137509+934398414+934741211+933816245+932045293
2064+930453759+930072578+931052851+932589188+933852195+934575177+934780147
2054+934604711+934394321+934444651+934754374+935311654+936340377+937953924
2044+939690696+940573406+939871884+937991201+936243036+935520385+935642062
2034+936162508+937167891+938674472+939840137+939872658+939447231+939831177
2024+940578605+939840469+937320982+935037328+934566106+935119847+935125267
2014+934623295+934910784+936427653+938128696+938879996+938691507+938191968
2004+937579933+936748548+935913844+935490409+935558990+935897584+936541144
1994+937860122+939819231+941414636+941509102+940298417+939289162+939746778
1985+941394947+942715916+942535723+941161106+939921108+939777529+940535576
1975+941457666+942096912+942124677+941175265+939475881+938069074+937775280
1965+938369063+939205094+939918342+940289678+940095216+939289051+938185552
1955+937370981+937191120+937341225+937330385+937185036+937286913+937763444
1945+938356011+938612528+938211768+937430270+936929515+936940797+937162692
1935+937347751+937513453+937611901+937427616+936859384+936078993+935402137
1925+935090202+935207786+935531557+935663632+935377470+934859127+934527059
1915+934491441+934472526+934335916+934321978+934645860+935182455+935774801
1905+936406525+936825315+936561829+935638965+934780147+934650727+935270948
1895+936205758+937023759+937601061+938084450+938583878+939006871+939298785
1885+939583731+939893122+939983716+939626981+939005102+938582330+938500142
1875+938382116+937967861+937603052+937809128+938621266+939455196+939725429
1866+939477097+939072577+938696263+938334330+937967087+937646081+937431598
1856+937366114+937451730+937583362+937640108+937656700+937762780+937997395
1846+938267961+938376474+938160664+937763002+937481154+937426178+937484804
1836+937514670+937508807+937517104+937527170+937480269+937350185+937127074
1826+936801422+936468248+936313387+936367367+936455306+936399556+936154875
1816+935797145+935408443+934960782+934366224+933680962+933136513+932901456
1806+932973356+933244585+933527428+933642247+933609062+933641472+933881065
1796+934284812+934672076+934751498+934348084+933754190+933370686+933216046
1786+933138504+933083750+933111735+933254982+933424003+933469466+933347346
1776+933159079+933001563+932833538+932553570+932253692+932083012+931907355
1766+931506928+930894008+930234519+929704229+929479458+929556557+929674363
1756+929626024+929494723+929409881+929256458+928844747+928271870+927833059
1747+927567803+927297127+926916445+926476140+926065370+925753988+925667763
1737+925963936+926730058+927823823+928781254+929317628+929498484+929519280
1727+929630891+929918048+930223568+930396017+930467364+930549883+930749876
1717+931127406+931592654+932036222+932482445+933008642+933657180+934345208
1707+934844636+935040757+935199269+935606112+936171578+936613929+936884162
1697+936970332+936602536+935885637+935355126+935227033+935349485+935514080
1687+935561424+935241303+934322863+933300888+932797256+932648699+932569278
1677+932389196+931946624+931205943+930271243+929039320+927377213+925830478
1667+925155946+925228177+925598573+926063268+926511316+926752402+926660812
1657+926282231+925687287+924800815+923810144+923636146+924290159+925190402
1647+926179248+927350776+928682585+929995811+931134596+931966534+932419947
1638+932526580+932388200+932181903+932050160+931974167+931897842+931836672
1628+931894081+932125599+932426805+932672703+932914619+933290490+933796445
1618+934302289+934715216+935093521+935460653+935715843+935742833+935365966
1608+934250963+931959566+927987589+921848712+913755040+905357397+899134397
1598+896868496+898873676+904098317+910647743+916779485+921710111+925491331
1588+928422639+930717687+932489081+933795228+934673625+935203030+935512532
1578+935727236+936010301+936529419+937172205+937702384+938079251+938442622
1568+938900017+939374446+939786710+940135701+940398192+940413678+939803745
1558+938618943+937941203+938026487+938547486+939201333+939630521+939659060
1548+939476876+939336837+939226554+938972359+938454016+937673292+937035374
1538+937109375+937657474+938217741+938535650+938505563+938229467+937862555
1528+937494538+937271648+937303616+937411687+937307709+937008605+936787374
1519+936689590+936624327+936668462+936859716+937010596+936914803+936509508
1509+935732103+934473300+933318807+932941056+932846037+932242852+930301552
1499+926095789+919663892+913726058+911365360+912625435+915944395+919787449
1489+922777107+924260957+924586719+924283965+923592563+922468932+920642008
1479+917589079+912636442+905375759+895941152+885059419+874406163+865313800
1469+856977161+847826117+837483302+828116779+822915257+822093661+823705272
1459+826490291+830228593+834312679+837641206+840322357+842951463+845901796
1449+849320088+852645574+854311773+853226360+850256779+847699628+847517058
1439+850040360+854265702+858483190+861432528+863778237+867234691+873250121
1429+881739631+890657000+898177850+903908722+908005695+910750173+912650545
1419+914160334+915380920+916272259+916907357+917352971+917609267+917626689
1409+917335770+916688560+915626099+914158786+912561942+911133123+909863038
1400+908698534+907710462+906596178+904276297+899455292+891705302+881450924
1390+868998177+854426426+838546316+823535975+812037949+805922357+805123492
1380+806961367+808026040+806904345+804160254+801101241+799472872+800433787
1370+802920974+803689585+799488966+789203948+773401380+753978702+735034436
1360+720523302+710820729+703227647+694854837+685905390+679946760+679610821
1350+683300508+687417778+691219795+698065449+711632204+732435140+758118206
1340+784572538+806579135+820908252+828988484+834793579+841663900+851004207
1330+862308988+874007782+884534826+892860458+898392721+900768352+899935860
1320+896665019+893079034+891979794+894816028+900571290+906785828+911410436
1310+913891152+914741784+914407007+912761769+909632017+905577742+901826388
1300+899229913+897439493+895369049+892468437+889370598+887276096+886918255
1290+888196914+890481122+893013108+895306109+897520574+900294586+903941852
1281+907934624+911331401+913545811+914577520+914731276+914263041+913054844
1271+910440671+905679509+899152759+893072950+890335884+892196600+897316101
1261+903147135+907808412+910792870+912734613+914753786+917516516+920699639
1251+923524147+925619424+927120696+928211032+928923727+929306013+929567508
1241+930008863+930787928+931771630+932650580+933173238+933238833+932845705
1231+932072172+931152958+930482519+930387832+930851642+931487570+931787780
1221+931432594+930479200+929258891+928003738+926583714+924679083+922236861
1211+919777439+918177055+917940726+918620623+919023705+917902397+914199437
1201+906682237+893499483+871443109+835173930+779957111+710218373+645743490
1191+612946085+625025893+672123432+731730797+785413768+825264838+850249147
1181+861564160+860594174+847102692+817013097+764686713+693183384+622857666
1171+582625636+587884069+629434303+684924121+736905329+778955655+810917802
1162+834226067+850876059+863088440+872536265+880187752+886752609+892839275
1152+898689612+904062865+908503077+911598427+912942238+912039838+908476253
1142+902340473+894758120+888113289+885188618+887322942+893336215+900624109
1132+907199751+912464933+916489065+919196155+920154416+918690477+914323105
1122+907717320+901309316+898154179+899488366+903697779+907904758+910094058
1112+909649384+906776481+902034566+895821245+887481177+875152098+857408782
1102+835364631+813005668+795965645+790031075+798579818+819161248+843643418
1092+863997975+877918367+888184414+897877032+907500404+915849099+922046990
1082+926286767+929175045+931083271+932203583+932713963+932676132+932025492
1072+930748770+929028811+927235515+925682364+924374005+923211548+922378227
1062+922127905+922197150+921839475+920633878+919087475+918219366+918566809
1052+919794031+921207585+922321924+922884901+922730593+921912703+920952395
1043+920682383+921612880+923494613+925566107+927061738+927528258+926983422
1033+925722573+923593946+919585244+912829244+904361914+897066442+892765108
1023+890070075+886976218+884900742+887312267+894496128+902696544+908641014
1013+912317648+915151946+917586756+918895226+918411118+916797405+916136589
1003+918279098+923046676+928368990+931956468+932460875+929381674+922760514
993+913540169+904030621+897351498+895796633+899455071+906360291+913916372
983+920190034+924161569+925267612+922830755+915414104+900524887+876124352
973+844080127+811668881+787017746+771869191+760776570+748640017+737184246
963+732984180+740860382+759832413+783484359+803161010+812211394+809037728
953+796915057+780363235+760274100+732119057+690288082+635402334+577119700
943+529255983+502037188+498240592+514766309+546068248+586140273+628719009
933+666854988+693568491+705246046+705860017+706103592+715700084+736244015
924+762044997+786701441+807634683+825530647+841788011+857138051+871510916
914+884249383+894533792+901918696+906520739+908792447+909235904+908293295
904+906339163+903347681+897944396+886543878+863921982+826226750+776090495
894+726173425+695187624+696170331+726886120+771979364+813994735+842322891
884+854819276+854994270+847962119+836142533+817072719+786088466+742171008
874+691561430+646126164+618102753+614642372+635057823+672163862+716389605
864+759587676+796713295+825815648+847338524+863036119+874673133+882962539
854+887096236+885049132+874854210+856511028+833144912+810292272+793774797
844+787224431+790197606+798629927+808372764+818576369+831129500+847317176
834+865723906+882718521+894242487+897923545+894611887+887624867+879223407
824+867269867+846133868+811656215+765558639+716502156+678146938+663271769
815+674979743+703360275+733293405+755573942+770251607+781914561+793825127
805+805565899+814894591+821013281+825262460+829570155+836000946+846883619
795+863042534+882064176+899819991+913670917+923567564+930584063+935252917
785+937386799+936956284+934681700+931919191+930258965+930992787+934549293
775+940350738+947182897+953711969+958943081+962566067+964990977+966901526
765+968601905+969899534+970739879+971523589+972471453+973208262+973311908
755+972753964+971657102+970156605+968591286+967479491+967164016+967386464
745+967221426+965628011+961881357+955107272+943854480+927246521+907322700
735+889897128+881699367+885591147+898690829+915055711+929594056+939940797
725+946266669+950232563+953828558+958440224+964097426+969385726+972636270
715+973219213+971574804+968378020+963524549+955808241+944583656+931983127
705+922053018+917257510+917036943+919833189+924986206+932250263+940615330
696+948422895+954469021+958561901+961138465+962802009+964029840+964937107
686+965471380+965678341+965547925+964958345+963622665+960697662+954651536
676+943079508+923242078+894535396+856169614+797544348+704957063+608245319
666+563766432+574846001+619226771+679215150+740748329+795198749+839801303
656+874248868+899407506+917001878+929106684+937543983+943045550+945838588
646+947136438+948974534+952821847+958569975+964465443+968527240+970300294
636+970299188+967529711+958731585+941834422+921249785+907971902+911171618
626+929441075+952315450+970178175+980560755+985891421+988575282+988803150
616+985764877+980101038+974401249+971379015+972177216+976132600+981518795
606+986469054+989743159+991297748+992096059+992745814+992106457+987569014
596+976977259+960700981+942628861+929122392+925476896+932184115+944919042
586+957902633+967001633+970524290+967778374+957701424+938858426+909882948
577+871761570+832056899+803178763+791647719+790536200+785101113+768373247
567+750782747+749218425+767018928+787993318+787701404+749030876+673052712
557+583052943+516215647+500781317+535943678+595635442+651434430+691365309
547+720895910+750586460+783708189+813948664+832851339+838604057+838399861
537+842453583+855298296+872663805+886575016+893176321+895633143+900266766
527+910857193+925871406+940456707+951326438+958354054+962306342+963270244
517+961562121+959221611+959103363+962402356+967791427+972822214+975727195
507+975906503+973788661+970983012+969769893+971181014+973346310+973091009
497+969477094+965304903+964990645+970595305+980167407+990028547+997949603
487+1003574949+1007059444+1008550318+1008535385+1007823464+1007066412
479+1006684236+1007263750+1009508247+1013340738+1016983524+1017663255
470+1014297561+1008443795+1002612705+999101884+999339264+1003150628+1008675202
460+1013548695+1016623028+1018233920+1018631029+1017235063+1014299994
452+1011907163+1011824643+1012842084+1012295091+1009667865+1006807683
443+1005188163+1005216370+1007668824+1013333990+1021264671+1028538185
435+1032361716+1032380742+1030220534+1027924601+1027274736+1029064603
426+1032703186+1037206116+1042472846+1048772503+1054613327+1056152650
418+1052342061+1047726745+1044004538+1039917852+1036881350+1038233623
409+1043110876+1045598063+1041637811+1033299181+1025286978+1021135582
401+1023658609+1034680104+1049639174+1057187125+1055268723+1052484202
392+1053521442+1055756758+1054451496+1048357142+1039718081+1030187018
384+1020499323+1014075445+1015175958+1024981347+1042323516+1062910697
375+1073741823+1064795251
##END=
