##TITLE=S. Marschner STM115
##JCAMP-DX=5.0
##DATA TYPE=LINK
##BLOCKS=1


$$ === CHEMSPECTRA SPECTRUM ORIG ===
##TITLE=S. Marschner STM115
##JCAMP-DX=5.00
##DATA TYPE=INFRARED SPECTRUM
##DATA CLASS=XYDATA
##ORIGIN=Angelika Moesle
##OWNER=
##XUNITS=1/CM
##YUNITS=TRANSMITTANCE
##XFACTOR=1
##YFACTOR=7.7933343e-010
##FIRSTX=3997.453
##LASTX=373.96442
##MAXX=3997.453
##MAXY=0.836802897853043
##MINX=373.96442
##MINY=0.45463138704606354
##NPOINTS=2559
##XYDATA= (X++(Y..Y))
2559A004971430A005370893A006290890A007232149A007553601A007098764A006415020
2552A006237736A006767524A007552760A007971955A007744270A007088746A006481177
2545A006274523A006502974A006916433A007186337A007222359A007314061A007773715
2538A008431763A008750079A008538148A008221668A008176773A008157347A007857157
2531A007655857A008071687A008779754A008937306A008384191A007872529A007969431
2524A008118800A007484385A006510928A006568519A007955894A009231836A009260593
2517A008451418A007581439A006910697A006601100A006963087A007803084A008302432
2510A008103045A007771955A007969355A008476428A008527823A008132337A008196658
2503A009389159A011208654A012382571A012231214A011107776A009628699A007937539
2496A005954066A004232236A003960879A005539918A007607368A008982353A010043306
2489A010818294A010385790A008628091A006842934A006709474A008244842A009109694
2482A008201935A007348554A008243236A009377228A008781129A008030999A009076885
2475A010213630A009470306A007909698A007115974A007131270A008002088A010364069
2468A012605591A012338977A010445140A009573862A010480857A011331026A010664871
2461A008508703A005563091A003518280A005806456A013377902A018637922A017927944
2454A014713653A011518406A009091339A007710312A007402932A007714595A008520405
2447A010475044A013171478A014550288A013996638A013006049A012686050A012456452
2440A011494773A010210571A009162773A007940904A006734484A007406910A010093860
2433A011504104A011371408A012479244A014544170A014593118A012197256A009048892
2426A006941672A007289816A009346482A010335847A010186020A011597258A014357478
2419A014840000A013134079A012143184A012576987A012925973A012554349A012117027
2412A012084063A012357103A012757790A012919548A012173853A010611946A009638106
2405A010399786A011926588A012498211A011945938A011001161A010391985A010805674
2398A012110297A013159700A013662337A014118166A013991514A012658364A011264946
2391A011472823A012537446A012040163A009605908A007081480A006996204A010440169
2384A013492472A012129952A008953443A009165909A013947996A017313107A015850857
2377A012070679A009095087A009037037A012185096A015888945A017295824A016335750
2370A014103406A011575001A009864109A009848201A011190912A012832053A014232201
2363A015207112A015400763A014378740A012067085A009464570A008888128A011858060
2356A015751737A017184237A016335139A014582028A013027005A012795266A014092699
2349A015265467A014892467A013372396A011718940A010384872A009363155A009105718
2342A010870224A014542487A017098960A016855443A014959694A012870676A011199248
2335A009738297A008312145A008248742A011610872A015930704A016441754A014829828
2328A015548526A018621938A019823616A018195400A015775676A013930175A012724750
2321A011754734A011182805A011916416A013847575A014572391A012583334A009584493
2314A009190230A013606353A018785685A020038300A018281901A015839615A013955720
2307A012858132A012194426A011593664A011064947A010748925A010264567A009183041
2300A008732565A011573931A016552270A018547445A016985155A014235184A011910143
2293A011076878A012349378A014359620A015014455A014529103A014169639A013955950
2286A013339432A012994883A013908149A015338507A015724969A014853232A013690865
2279A013126584A013055303A012638783A011611790A010726439A010501813A010263726
2272A009512906A009339905A011364372A014684743A016141028A015098507A013395569
2265A012456605A012337141A012379206A012329340A012479856A012761690A012402992
2258A010910148A009013481A008455319A010332941A013062263A014315260A013837632
2251A012563450A011324907A010380972A009472677A008481476A007934709A008362623
2244A009230383A009560248A009495545A010016690A011337221A012535152A012903564
2237A012515802A011695384A010929421A010812940A011358865A011761464A011426857
2230A010735999A010426555A010675731A011161849A011735460A012401156A012824940
2223A012587083A011873892A011325366A011224640A011176992A010692711A009886059
2216A009336387A009295622A009333404A009025642A008670232A008900289A009777073
2209A010616381A010869230A010704336A010506937A010319022A009952827A009422581
2202A009017000A008992449A009323997A009724607A009914511A009863880A009672523
2195A009343499A008900442A008579143A008561858A008714208A008817000A008826407
2188A008747937A008563081A008412489A008534707A008933329A009333327A009487667
2181A009414168A009364991A009579216A010023955A010450800A010682692A010718561
2174A010589461A010334318A010188162A010564986A011516341A012340277A012285057
2167A011480165A010688197A010327205A010227550A010192980A010225026A010264031
2160A010161929A009942196A009846748A010070151A010519862A010867548A010851869
2153A010493629A009981050A009411262A008751073A008009278A007318420A006867103
2146A006822055A007245075A007980904A008705184A009185183A009403079A009400018
2139A009195431A008897918A008696847A008699907A008879792A009142659A009378298
2132A009505258A009540363A009578145A009688278A009856155A009974013A009912293
2125A009682389A009489656A009492868A009570879A009481549A009229389A009072219
2118A009157802A009349924A009444302A009426099A009476807A009765831A010202999
2111A010464337A010373400A010139978A010061279A010192139A010472596A010881773
2104A011254085A011298521A011033666A010863034A011033207A011339973A011477412
2097A011387698A011246131A011313129A011713204A012165057A012097601A011212403
2090A009805754A008403923A007181595A005876360A004292886A002710023A001574731
2083A000922955A000394850I99731754I98963344I98159675I97277996I96333143
2076I95566262I95308902I95647562I96320829I97032108I97803424I98877914A000240586
2068A001424751A002019854A002257635A002701610A003444170A004108948A004594759
2061A005222519A006086532A006801099A007003698A006716969A006198042A005756437
2054A005656858A005863970A005964620A005636055A005094336A004874605A005285617
2047A006195594A007172494A007779681A007931650A007952835A008141744A008391304
2040A008404382A008134632A007855245A007849126A008106103A008373483A008516122
2033A008695395A009050193A009363920A009300976A008924610A008724992A009038185
2026A009644454A010119328A010348085A010435886A010382654A010161929A009899138
2019A009682848A009406750A009014323A008693559A008655471A008874973A009157190
2012A009417839A009824721A010575465A011528272A012241310A012460429A012382648
2005A012384866A012652780A013077636A013304403A012936221A011970029A010991295
1998A010606210A010722233A010776688A010605597A010540742A010693933A010827165
1991A010944182A011339973A011995956A012497905A012596796A012471137A012488039
1984A012928802A013760616A014541646A014767802A014371321A013719010A013220274
1977A013156947A013649488A014499504A015217819A015415447A015118011A014670287
1970A014385165A014253387A014037326A013708991A013584020A013833809A014158779
1963A014215069A014128492A014286426A014787152A015348679A015722215A015964432
1956A016205196A016313876A016012080A015257590A014293846A013354269A012515955
1949A011820890A011370337A011289649A011684141A012571098A013723981A014612315
1942A014664093A013722528A012222342A010863953A010110915A009960094A010068314
1935A010012866A009438031A008098073A006008521A003607688A001564176A000274391
1928I99577491I99005409I98288165I97583005I97191419I97159756I97310883I97589658
1920I98143462I99072024A000268043A001457026A002335798A002805472A003093961
1913A003505891A004058929A004513459A004740456A004916517A005282481A005757126
1906A005940681A005623665A005119422A004913228A005134107A005537012A005813645
1899A005784735A005470396A005088218A004846076A004697320A004407913A003861912
1892A003206312A002702222A002468265A002395378A002319431A002167616A001887388
1885A001403718A000799896A000395691A000483033A001031712A001760658A002484478
1878A003260385A004125927A004836135A005067950A004791546A004238812A003565776
1871A002741993A001781002A000920278A000465136A000496341A000822458A001216644
1864A001606165A002064213A002669871A003285624A003482334A002924937A001826891
1857A000743835I99895578I99005103I97835853I96601670I95699110I95203816
1850I94826074I94295521I93475027I92096905I89778366I86423043I82318125I77734202
1842I72660338I66991447I60775178I54134513I47007959I39130053I30305227I20579217
1834I10098949H98955660H87224151H75053410H62679763H50464356H38965428H28795750
1826H20196545H12839094H06349251H01005483G97598687G96591120G97617044G99683117
1818H01639822H02586434H01984218G99411072G94366883G86480563G75801211G62739306
1810G47797025G31377197G13739170F95084092F75747562F56327974F37615648F20415173
1802F05497251E93736106E86116630E83359278E85495485E91862270F01373862F12754473
1794F24779402F36576723F47797448F58544639F69070109F79402310F89271798F98454864
1786G07088180G15520426G23898600G32057348G39883783G47634349G55736271G64382283
1778G73447873G82684553G91840009H00636995H08733946H15749754H21345145H25207388
1770H26935259H26149718H22860704H17656822H11524300H05525315H00451986G96538424
1762G93450863G90543340G87051650G82134421G74997849G65192835G52858652G38659619
1754G23581431G09024386F97020223F89808316F88796389F94000960G04467768G18924774
1746G36043184G54614440G73841295G93315262H12652250H31367290H49051206H65313406
1738H79609800H91529835I01247813I09367555I16386269I22536535I27951200I32705830
1730I36820844I40399110I43635276I46629912I49349138I51783316I53985603I55963952
1722I57694577I59269180I60886229I62624731I64334707I65844606I67193359I68542188
1714I69939965I71313727I72635787I73940563I75189583I76243041I77022847I77621621
1706I78202881I78844944I79519205I80186201I80858627I81560345I82276672I82961717
1698I83553225I83974486I84229246I84496243I84971653I85623276I86281094I86943042
1690I87750534I88673972I89444983I89860431I90021578I90195191I90476949I90710294
1682I90771939I90764596I90822722I90904863I90931479I90970485I91160388I91517787
1674I91892698I92107307I92138894I92142717I92251169I92409409I92447879I92269295
1666I91909296I91448265I90925972I90376988I89922764I89738825I89881770I90182419
1658I90366968I90320084I90188843I90166662I90231214I90226853I90128499I90052016
1650I90062343I90130488I90227237I90326204I90383641I90421500I90546547I90816756
1642I91198935I91671132I92191589I92589370I92715488I92687496I92749828I92967036
1634I93255295I93585237I93948906I94262404I94462174I94593570I94730013I94867144
1626I94921523I94844429I94737737I94756475I94873416I94919916I94885882I94968712
1618I95270432I95645344I95939110I96221174I96640522I97132146I97457116I97532986
1610I97536504I97643043I97846713I98067285I98252142I98371071I98460478I98631950
1602I98883880I99011681I98896576I98757838I98895505I99303993I99767548A000206323
1594A000668042A001083872A001250143A001025287A000465977I99845483I99486478
1587I99471870I99594699I99662233I99702233I99803494I99942002A000060549
1580A000172747A000315003A000504218A000795996A001269264A001894347A002496410
1573A002905663A003087460A003137861A003221991A003489371A003950096A004448067
1566A004846764A005216095A005719497A006351617A006954062A007477808A008000865
1559A008486523A008787402A008883922A008864419A008756427A008620443A008667249
1552A009038338A009576233A009965983A010023344A009809578A009519178A009315354
1545A009306482A009606978A010250953A011072748A011817066A012294617A012350219
1538A011866856A010963456A010047589A009520172A009464416A009667475A009894702
1531A010044071A010057149A009859138A009490268A009153825A008998415A008936388
1524A008805222A008643693A008646599A008860365A009106254A009239714A009326368
1517A009524072A009931949A010547931A011280778A012023260A012690409A013129643
1510A013207425A013132242A013416296A014291245A015375524A016103629A016327720
1503A016300340A016175675A015815370A015148833A014462181A014190595A014563290
1496A015420801A016207338A016374603A016021411A015803286A016058811A016472576
1489A016696896A016791045A016934907A017123434A017244810A017214065A016984314
1482A016597776A016287261A016378733A016920376A017527026A017803738A017805037
1475A017852304A018044731A018161594A017929397A017266608A016345158A015471584
1468A014890402A014717171A014987151A015634949A016414603A016953416A017012842
1461A016718847A016446419A016437165A016639306A016883664A017012077A016897278
1454A016596170A016416744A016619115A017133912A017674178A017961902A017833948
1447A017376053A016950815A016823932A016835480A016722441A016606878A016789363
1440A017206722A017506148A017544236A017462706A017392726A017355938A017315938
1433A017142172A016668063A015906001A015084741A014437554A014070060A014029066
1426A014322832A014817056A015272580A015578812A015808104A015967186A015903553
1419A015536748A014999694A014512277A014245127A014249104A014433960A014706617
1412A015048566A015279921A015107915A014783710A015102103A016265617A017472114
1405A018069358A018331536A018721364A019104383A019118609A018948361A019226218
1398A020026904A020492753A019862316A018312723A016683818A015879385A016295521
1391A017454523A018447636A018758381A018559605A018391040A018548133A018875321
1384A019175129A019503694A019856274A019841207A019078609A017801443A016711428
1377A016310359A016599000A017351120A018347981A019342470A020126024A020630650
1370A020873173A020946518A020968163A020837073A020302161A019445797A018700943
1363A018280524A018010697A017783164A017789971A018250467A019106831A019981702
1356A020401052A020160823A019521131A018982242A018848476A019026602A019259641
1349A019444420A019612527A019764725A019916465A020176043A020682122A021545293
1342A022695881A023711403A024140695A024007387A023546509A022714084A021547281
1335A020664913A020812064A022075922A023747656A024829947A024845472A024289144
1328A024015724A024217865A024442950A024465894A024617098A025234687A026080572
1321A026433383A025892275A025054497A025009984A026035832A027259078A027874601
1314A028099075A028435976A028664732A028407066A028231847A029134712A031040709
1307A032721927A033209803A032617299A031628088A030868778A030792526A031460516
1300A032223497A032109080A030834132A029315361A029010735A030546178A032816305
1293A033805900A032877414A031729120A032196652A033729647A034367428A033671905
1286A032973628A033028465A033195042A032957336A032736535A032938829A033314277
1279A033530108A033591522A033482994A033124373A032939746A033759094A035724745
1272A037723362A038349900A037171931A034894004A032683763A031536080A031979520
1265A034029532A037280458A040998151A043984221A044754237A043094358A041027978
1258A040475476A040790274A040049014A038138046A036903404A037335219A038400531
1251A038892460A038871428A038856514A038675941A037790130A036421111A035665167
1244A036206732A037415524A038149136A037875638A036633577A034640085A032475197
1237A031050193A030758645A030973557A030947707A030932794A031746099A033436188
1230A035131478A036094382A036239085A035703026A034549836A032966744A031492103
1223A030963310A031951758A033934160A035461114A035646200A035058133A034752283
1216A034981269A035230675A035042760A034514578A034195115A034426701A034750907
1209A034427466A033582039A033208350A033865326A034844291A034862723A033510145
1202A031884607A031587935A033068388A035253390A036785240A037129942A036529562
1195A035466009A034367122A033601236A033484907A034007812A034682914A035108152
1188A035537061A036430442A037721986A039015136A040205113A041492222A042774665
1181A043267206A042140479A039729168A037646958A037266232A038357854A039467296
1174A039341024A037996402A036669217A036827228A039203434A043320514A047381379
1167A049086612A047464438A043824221A040565418A039245728A039912724A041787899
1160A044225596A046869641A049080417A050086226A049902135A049241487A048378699
1153A047138091A045887235A045295268A045384522A045801117A046576028A047892582
1146A049495941A050819455A051285380A050454409A048548488A046671401A045831709
1139A046011365A046484097A046648915A046244022A045312705A044514238A044832094
1132A046240045A047314764A046694957A044397527A041763425A040416202A040900101
1125A042171301A043040438A043725713A045037066A046703140A047530977A047124477
1118A046520655A046858169A047928299A048386041A047351168A045479129A044261849
1111A044443569A045367466A045721194A044586054A041945298A038511735A035325589
1104A033376150A033192136A034752207A037586690A040706679A042917150A043736726
1097A043857185A044394009A045640735A046683713A046612127A045768077A045284025
1090A045720352A046565244A047087231A047084478A046858933A046754307A046751936
1083A046744058A046936486A047548261A048419769A049267032A050069094A050929129
1076A051696775A051978457A051655246A051170429A050982514A051037580A051108708
1069A051295935A051697463A052058456A052182586A052299144A052662278A053098912
1062A053266406A053082851A052597881A051818151A051119416A051443162A053101436
1055A054674585A054910225A054256537A053618145A053339064A053339905A053452333
1048A053510994A053428012A053206445A052857001A052405989A051900599A051354979
1041A050849742A050642094A050828174A050907103A050408520A049605234A049073075
1034A049083017A049369516A049486305A049450588A049845462A051076510A052500138
1027A053290498A053706634A054239864A054609805A054431297A053967972A053675812
1020A053666558A053759636A053833593A054077417A054784107A055752669A056398939
1013A056687504A057066546A057686506A058443444A059396021A060534526A061486646
1006A061924273A061914866A061935363A062790427A064722657A066441733A066811522
999A066265902A065779250A065897873A066491370A067191635A067885323A068576258
992A069150481A069539773A069873156A070435142A071429479A072560948A073334559
985A073648210A073584194A073241710A072955592A073128747A073543353A073676278
978A073670772A073741823A073479568A072688672A071923168A071744813A071909783
971A071614488A070462217A068676831A066711866A064710726A062320524A059138738
964A055154277A050425116A044343302A035582644A024042798A010846821I95749511
957I78195997I58102300I34781234I07976891H80109760H53997269H29163856
950H03729298G81054807G68634735G66340441G70028077G77847170G88741664
943H01858712H17380417H34042845H47774040H57812552H68823834H83573075
936H97433295I08282816I18553680I26929942I31910803I35531442I39655634
929I43652484I46680543I50782708I58929066I67660660I71615753I72006191
922I71139119I70101570I69798015I70812543I72722670I75572297I80352472
915I85979527I89420892I90635342I91824019I94462633I97966866A000690680
908A002010523A002147501A001826967A003347038A009335622A014745928A015349980
901A014528720A015700035A018980789A021280360A021906974A022095042A022278827
894A022443492A023365325A026451814A030654018A033000932A033622192A034317638
887A036305011A039449246A042829731A046442796A050808594A054978140A057553657
880A058972390A060654144A062423392A061380948A055193207A042791185A023487619
873I99510340I77742768I65581051I65592523I75117384I88597949I99992557
866A004567149I98477456I77733054I41099835H95521638H55087743H32205146
859H30300142H43480747H62399228H80708764H96535248I10067361I21516422
852I31405872I41835282I55262999I68881230I76983917I79750103I79365477
845I76212448I70889254I65230383I59829484I54026062I47528111I41064960
838I37270021I39278121I43176922I46161080I49545772I53521589I57538784
831I61297241I64232987I65821509I66211106I65517189I63637195I62195059
824I63936391I66533017I67112900I66966438I68170946I71222331I74608859
817I77707892I81533806I86578378I91551668I95312726I98802502A002821916
810A005920489A007369892A008437346A009787398A010901658A011429305A011376303
803A010766898A010297836A011789915A014569332A015457666A014932926A014574303
796A015169177A016950050A019657957A022101620A023106740A023014886A023190793
789A024936485A027927603A030043160A030169660A028343510A023999357A015816594
782A002864593I85295399I64127977I41583046I20973098I04551740H91668420
775H80339893H69681727H60034570H52719645H49050900H48113160H47785283
768H47536259H48277518H50743514H52587331H50966075H47249836H44092982
761H44132141H49722944H61061642H74845457H87605030H98930957I09430041
754I18778842I27285581I37183061I49733993I61736858I70627152I78038828
747I86029162I94407871A001603029A007355667A012584100A017429666A021311641
740A024537022A027757891A029511001A027128447A019540634A005994754I85795665
733I60746727I35787578I15320269H99950838H88009082H78869535H73626264
726H73816627H80347694H91874767I05250705I18218385I28881675I35375113
719I38120265I39284698I40619455I42311992I43137151I41871687I37951701
712I31283273I22733092I14638742I09949427I10445333I14737096I17837430
705I14991628I05366881H92517136H82888182H81856676H91147810I08156699
698I25947612I38684777I45728347I48204055I46353354I40702972I33624986
691I28672345I28424086I32995772I40554828I49063248I57234464I64559410
684I71174760I77396841I83161716I88353974I93393649I98801968A004592770
677A010381737A015846345A020888622A025423520A029254788A032226861A034347007
670A035723140A036474878A036664246A036162297A034369187A029535246A018448707
663I98923803I74523811I55329384I51261024I63556125I83911159A002319355
656A013826314A018316470A017055823A010628313I98812598I81258090I58220157
649I30868972I01150452H71774569H46388041H28826878H21031800H21420403
642H25559127H28632080H27547801H21178951H09438188G92678400G71770403
635G48490407G25741881G06929557F94568681F89298490F89992560F94647764
628G01410647G09077236G16995756G24927430G32990881G41310394G49563979
621G57041812G63180529G67978370G72021875G76282585G81791477G89217379
614G98535204H09069853H19904844H30268174H39583476H47228727H52378154
607H54355050H53389776H50997355H49365469H50128831H53540292H58698209
600H64458954H69866966H73733491H74691041H72595522H69560351H68578098
593H70840653H74855323H78305177H80356336H82074419H85136894H90423912
586H97526679I05261260I12589418I19101671I24812932I29720754I33489306
579I35301461I34069572I29169016I21347170I12712859I04619579H94994068
572H79818365H59421725H41645725H35655459H43146599H57847121H72424815
565H83485121H91016413H96033835H99488966I02122914I04461339I06811312
558I09228053I11469192I13028805I13337943I12151789I09866674I07457581
551I06089478I06656819I09461934I14203103I20208130I26651855I32741929
544I37988795I42358110I46030296I48984932I50917775I51573604I50939572
537I48928718I45042231I38573266I29069055I16485007I01079630H83437167
530H64702165H46644331H31136698H19204350H10371952H02834158G94495908
523G84529671G74302326G66501358G63149477G64405763G68719936G73483208
516G75612301G72290019G62273687G47420507G32723426G23724757G23165524
509G29952116G40870854G52755861G63270012G70581268G73379193G71848031
502G68437489G66905869G69950830G77592257G87735625G97634864H04478894
495H06108946H03081499G99169772G97823084G98864764H00267283H01677604
488H04159354H07845689H11891258H15925049H20207941H24893967H29825728
481H34685979H39104854H42866218H46058712H48938855H51689973H54316962
474H56731485H58911363H60915104H62794485H64622013H66501930H68415116
467H70170903H71558967H72281106H71358586H66275162H53181211H30001635
460H00996229G76679526G66349542G70593658G82437747G94750974H04820614
453H13179667H20938034H28803093H37213695H46438749H56464412H66681891
446H75275360H79016838H75162778H65249926H56308466H55685753H63683278
439H72949555H76357268H74407294H73516513H77753516H83970167H84948290
432H75870844H58123603H39000916H28078047H31694020H48878893H70808683
425H83024320H71594072H33895542G84804469G47117563G33251913G38387574
418G50406118G61762560G71672736G82115071G94537208H08767598H23375043
411H36809642H48211285H57422802H64760903H70808530H76126141H81017367
404H85501175H89491448H93050059H96381749H99573784I02544405I05257589
397I07783851I10161663I12337641I14180311I15458624I15942446I15706195
390I15294495I15409676I16446078I18456090I21383804I25040235I29005881
383I32871489I36491056I39862133I42914361I45564829I47919085I50278312
376I52868666I55627892I58330751I60794758I62932876I64802086I66632978
369I68664864I70992887I73591501I76298107I78322268I77009309I67478940
362I46299893I17568521H93041034H83105237H88348278I01392822I14923941
355I25974993I34307889I38852348I35233775I17164316H83427836H44416499
348H17902251H15245511H33001243H58795110H82430058I00055771I11491372
341I17183131I17203857I11339327H99515504H82506845H63268212H47653123
334H41784080H47374577H60665850H76286598H90919742I03496065I13914614
327I22449728I29519990I35295114I39565997I42163847I43281855I43098605
320I41418993I38136327I33598523I27946688I20479563I10158681H96632915
313H80636183H63182017H43866138H19894366G87559716G45870684F99720404
306F59180048F34128165F28288836F37491978F52462748F63433800F64716855
299F57301584F47003952F39693920F38720922F45663613F60849870F82630980
292G07836246G33577954G58155383G80658709H00590036H17895138H33005755
285H46713623H59738664H72110553H83044128H91443487H96069858H94954144
278H85061330H63307830H29236361G88267707G52005729G32634784G34931677
271G53714787G79052137H03105132H22533516H36860350H46278290H50879039
264H51454257H50387645H50532348H52465190H53307329H48577709H34894314
257H11232523G78938256G41572649G04519010F73440495F51648372F38712126
250F32242321F30822020F34842771F45146750F61387382F81139130F99795892
243G11369618G11109657G00134705F87608859F84816594F95523937G13693587
236G30322439G40856094G46859056G52855822G62001948G73852384G85610661
229G95160685H02766319H10185108H18591656H27546653H35875496H43095433
222H49611128H55817760H61542864H66447934H70585128H73899074H75370426
215H74140526H71836671H71988029H75913752H80027389H77278642H63197467
208H47967845H46439131H55792674H64544460H60684894H36593200G98545835
201G66648203G58693814G74673720H00766632H24776109H42903923H55534855
194H62566570H63153872H58044444H51581752H49725621H54188550H59346696
187H57123989H45928846H33869232H31284843H40470433H55012409H67813741
180H76564227H82336903H86416354H89442805H91995760H94688983H97531650
173H99792827I01088655I02119703I03711437I05836554I07994788I09859637
166I11313093I12334964I13012438I13525170I14156142I15293500I17192538
159I19581515I21715964I23119936I24080009I25042989I25885892I26378816
152I26833652I27639997I28681599I29631653I30500484I31568702I32741470
145I33248542I32447093I30782395I29287410I28085501I25220273I16097398
138H96165154H68081962H44457723H38318165H50746879H70832010H87203655
131H96377314I00907776I04264781I08343544I13052284I17157509I19928284
124I21576308I22259748I21952368I21259445I21135469I21911833I23243377
117I24547388I25192739I24687196I22501429I17346113I07663011H93765621
110H78647050H66237149H59280463H58339051H62398311H70110177H80160619
103H91097791I01274505I09275395I14782833I18553374I21278413I23065405
96I24101271I24808267I24890025I23061504I18062286I09651225H98807668
89H87187135H76700670H69241040H65870268H66287475H69420618H74393986
82H80736373H87723883H94187187H99529501I04235183I08529469I11532366
75I12437373I11565099I09980632I08891228I09541321I12267354I15134878
68I15109179I10518909I01811788H90338176H77343880H64859411H56113514
61H53957115H58719777H67391334H76733252H85620792H93281569H98786864
54I02607273I06386457I11164643I16540685I21024417I23153970I23318941
47I24094311I27746765I33432940I37546808I38175486I37533653I38748791
40I41998111I44568351I44069156I40775783I36873770I33467891I29706682
33I26125585I26309982I30402664I34224525I34349801I29280296I20808204
26I13620313I11048773I12236761I14237290I15403557I15227420I12777104
19I07879071I03441610I02023718I00607050H96593297H91945283H89363265
12H88750877H87322813H82535602H75415015H70402719H69263220H69013813
5H67614277H66577723H69621077H79708767H93213653
##END=


$$ === CHEMSPECTRA PEAK TABLE AUTO ===
##TITLE=S. Marschner STM115
##JCAMP-DX=5.00
##DATA TYPE=INFRAREDPEAKTABLE
##DATA CLASS=PEAKTABLE
##$CSTHRESHOLD=0.93
##MAXX=3997.453
##MAXY=0.836802897853043
##MINX=373.96442
##MINY=0.45463138704606354
##NPOINTS=66
##PEAKTABLE= (XY..XY)
3311.851564222048, 0.7756775005051939
3096.538716622361, 0.7771199329014431
2952.052463627834, 0.6208100898571416
2920.888762001564, 0.45463138704606354
2851.4786992885065, 0.5368020524109843
2753.737998733385, 0.7721359709232443
2725.4073608913213, 0.7713365532914198
2716.908169538702, 0.7716699817474441
2711.2420419702894, 0.7715806342870283
2691.410595480844, 0.7736345511757913
2672.9956808835027, 0.7752323725266479
2667.3295533150895, 0.7753478268776353
1714.0035899296322, 0.5972347244322427
1675.757228842846, 0.7557960134371414
1606.3471661297885, 0.752509592418835
1589.3487834245502, 0.6470806583736805
1559.6016136903827, 0.730445860302102
1541.1866990930412, 0.7498707756595224
1535.5205715246284, 0.7535892708214224
1460.4443812431587, 0.6605133397758384
1451.945189890539, 0.6578298789009883
1402.3665736669273, 0.6808461528612055
1376.8689996090693, 0.7091540080704446
1365.5367444722438, 0.6872603880754787
1349.9548936591086, 0.723551927436995
1307.4589368960123, 0.7413495166592323
1284.7944266223608, 0.639857528833074
1266.3795120250193, 0.5371933565055207
1228.1331509382326, 0.6619389042793287
1213.9678320172006, 0.6769119483372161
1178.5545347146208, 0.6512542351606944
1153.0569606567628, 0.7061458215559829
1109.1444720015634, 0.5947478995131161
1094.9791530805314, 0.5635870682766674
1082.2303660516027, 0.5976753813749007
1069.481579022674, 0.6217702013662315
1021.3194946911649, 0.5972418171457891
997.2384525254101, 0.6668645128876228
990.1557930648942, 0.6807606202379296
980.2400698201718, 0.6453489046762112
967.4912827912431, 0.5714477284123516
924.9953260281468, 0.7133195982484679
881.0828373729473, 0.6882334334021729
864.084454667709, 0.6353480803797328
845.669540070367, 0.6560304743857944
803.1735833072712, 0.4896464935905875
791.8413281704452, 0.4977765669550225
759.2610946520717, 0.5709667791520291
745.0957757310398, 0.6627355202074724
725.2643292415946, 0.4916206885661286
711.0990103205627, 0.5337004651229375
675.6857130179824, 0.6794514639895449
665.76998977326, 0.6596583112484493
655.8542665285377, 0.591275452384402
641.6889476075057, 0.66221958277281
633.1897562548866, 0.6478480680022015
563.7796935418291, 0.6533293709607559
542.5317151602812, 0.7178716645504287
524.1168005629397, 0.668932316718775
494.3696308287722, 0.6748016458954592
474.5381843393275, 0.708329318214152
458.9563335261919, 0.6655173282851878
432.0422275762312, 0.7306513175329198
419.29344054730245, 0.7217606287688065
407.96118541047645, 0.7100107651593814
378.2140156763094, 0.6753529892271799
##END=

##END=

