##TITLE=X8079
##JCAMP-DX=4.24
##DATA TYPE=INFRARED SPECTRUM
##DATE=30/10/2018
##SAMPLING PROCEDURE=Diamant-ATR
##ORIGIN=ComPlat
##XUNITS=1/CM
##YUNITS=TRANSMITTANCE
##RESOLUTION=4
##FIRSTX=3997.453
##LASTX=373.96442
##DELTAX=-1.4165319
##MAXY=0.8849737
##MINY=0.50693434
##XFACTOR=1
##YFACTOR=8.2419599e-010
##NPOINTS=2559
##FIRSTY=0.8839345
##XYDATA=(X++(Y..Y))
3997+1072480949+1073026882+1073627849+1073741823+1073405253+1072958469
3989+1072594779+1072364372+1072321125+1072446743+1072640050+1072861417
3980+1073033897+1072879280+1072246131+1071482954+1071039713+1070896233
3972+1070828616+1070939841+1071432692+1072142643+1072618933+1072481673
3963+1071708370+1070779511+1070306765+1070367585+1070531965+1070404684
3955+1069788964+1068680610+1067455245+1066806548+1067183038+1068154782
3946+1068609738+1068116888+1067774170+1068907184+1070996467+1072365746
3938+1072463014+1071733610+1070389425+1068756400+1068004866+1068975092
3929+1070642902+1071300783+1070515766+1069247299+1068642716+1068705633
3921+1068515435+1067683844+1066927175+1067186148+1068424675+1069827655
3912+1070936949+1071835434+1072302178+1071485846+1068927578+1065605771
3904+1063404178+1063146796+1064136620+1065918404+1068286474+1070168781
3895+1070397742+1068997366+1067422268+1067429861+1068639389+1068964388
3887+1067657665+1065758652+1064251751+1062984369+1062313615+1063480546
3878+1065854836+1067112962+1066398527+1064443034+1062110472+1060327531
3870+1060702358+1063431080+1065888030+1066276815+1065548856+1065313387
3861+1065496787+1065100192+1063815598+1061804275+1059376397+1057867399
3853+1059833595+1064516292+1068187832+1069805308+1069824256+1068605038
3844+1066409013+1063590471+1060698091+1058642943+1058602806+1060859433
3836+1063854506+1065961506+1066938095+1067210664+1067121929+1066898103
3827+1066783478+1066703711+1065969678+1064198814+1062494122+1062374145
3819+1062925574+1062819338+1063311972+1065698917+1068367471+1069171364
3810+1067714941+1064890613+1062599128+1062371469+1062892741+1062083642
3802+1060662149+1060950121+1062948354+1065260233+1067754210+1070216584
3793+1071612404+1071593312+1070782910+1069825413+1069077350+1068839856
3785+1069140556+1069301610+1068541904+1067196345+1066718319+1067853503
3776+1069402783+1069883340+1068971114+1067248125+1065742236+1065282580
3768+1065604686+1065952105+1066261194+1066598415+1066453272+1065481166
3759+1064190859+1063344009+1062861283+1061906678+1059698070+1056321084
3751+1053746183+1053986497+1055211211+1054975959+1053829204+1054000961
3742+1055586111+1056254696+1054698545+1051051377+1046794708+1044792787
3734+1046742350+1050895531+1054709248+1057037471+1057719652+1057371655
3725+1057165837+1057709961+1058549290+1059290266+1060144999+1061257619
3717+1062176860+1062019495+1060225778+1057631062+1056720138+1058908496
3708+1062314627+1064625349+1064964161+1063555324+1061665424+1061027140
3700+1062015445+1063383133+1064095326+1064008689+1063426669+1062702327
3691+1062229508+1062720623+1064567856+1066535498+1067196779+1066519371
3683+1065007986+1063014887+1060779232+1058342604+1055827799+1054663905
3674+1056244065+1058274624+1058399880+1057948685+1059794471+1063674505
3666+1066930140+1068195136+1067503265+1065614666+1063431514+1061499091
3657+1060482799+1061157820+1062497231+1061939728+1058415935+1053646745
3649+1051530053+1053727741+1057437537+1060493719+1062497521+1063429273
3640+1063548887+1063410325+1063166539+1062227483+1060034496+1056741761
3632+1052754985+1048591318+1046395872+1048772186+1053372730+1056207110
3623+1056475122+1055255687+1054021499+1053928353+1054853307+1055458613
3615+1055050664+1054262826+1053998502+1054330227+1054993171+1056196118
3606+1057752629+1058542637+1057916720+1056416183+1054975308+1053988088
3598+1053200901+1052223516+1051023317+1050119697+1049798169+1049380891
3589+1048247371+1047341653+1048523772+1051463665+1053908610+1054701293
3581+1054289584+1053764768+1053674370+1053579199+1053091989+1052658946
3572+1052538463+1051869589+1049760057+1046964874+1045740738+1046870860
3564+1048540622+1049485970+1049914096+1050257754+1050654565+1050966981
3555+1050702802+1049431659+1047635194+1046385602+1045859268+1045297208
3547+1044319028+1043314234+1042853782+1043324431+1044724663+1046303448
3538+1046880406+1045957621+1044248445+1042790865+1041886160+1041208246
3530+1040460762+1039540509+1038329101+1036917371+1036043401+1036506818
3521+1037853100+1038556615+1037844856+1036509205+1035633861+1035173265
3513+1034267330+1032584623+1030835744+1029901750+1029720592+1029481145
3504+1028795421+1028090460+1027688658+1027078579+1025720871+1024009670
3496+1022877161+1022692532+1022946081+1022924096+1022350032+1021507159
3488+1020952259+1020873070+1020708763+1019743744+1017988646+1016081895
3479+1014422980+1013031716+1012115730+1011952724+1012189350+1011991342
3471+1010998192+1009525714+1007861375+1005989916+1004043969+1002408919
3462+1001247556+1000405045+999844070+999685765+999760253+999557617+998744033
3452+997466237+996066078+994672644+993137467+991330516+989420800+987781050
3442+986668791+986015827+985396418+984289005+982560520+980639378+979068908
3432+977979719+977122527+976279655+975449294+974637952+973623540+972094726
3422+970074291+968031871+966453302+965487994+965051118+964872202+964395695
3412+963158687+961411326+959947527+959248568+959079777+958907369+958429416
3403+957628488+956503718+955001445+953239260+951553587+950171580+949047678
3393+948120554+947481620+947197408+947161321+947125017+946805731+946155225
3383+945642342+945909849+946885932+947650194+947590531+947240293+947388690
3373+947906057+948110646+947834317+947541355+947749777+948565964+949500102
3363+949912390+949923021+950310865+951256069+952015052+952142983+952118250
3353+952407163+952802311+953013626+953165133+953428300+953727121+953971991
3343+954182583+954370538+954604489+955024370+955562999+955969357+956274324
3333+956877460+958044682+959589333+961043659+961982715+962300049+962329265
3323+962578041+963187542+963681188+963455626+962589901+961902007+962066604
3313+962970586+964035549+964796123+965052637+964887027+964723443+965047647
3303+965893412+966762391+967162458+967050725+966676115+966288126+966139440
3293+966438766+967115378+967897358+968640648+969314079+969757174+969765129
3284+969379599+968974181+969044330+969810328+970906243+971642591+971723081
3274+971547203+971708617+972373659+973250015+973909415+974026933+973614283
3264+973192304+973363699+974039010+974523472+974478924+974232824+974013192
3254+973530538+972575066+971542213+971102660+971585387+972733009+973873617
3244+974426203+974527955+974939303+975986186+976935295+976915480+976099437
3234+975363235+975140638+975157561+974974233+974433435+973831890+973759209
3224+974502210+975601886+976299543+976435935+976578475+977125999+977726893
3214+977854825+977542770+977210828+977139450+977377233+977820908+978246936
3204+978464759+978417969+978143376+977876593+978097381+979131102+980732162
3194+982247091+983108766+983180506+982719403+982027026+981304998+980905872
3184+981230726+982142591+982996962+983422195+983598074+983750955+983838894
3174+983790947+983711107+983740830+983894652+984140029+984503646+984980732
3165+985486093+985982343+986448581+986742411+986755645+986553009+986145783
3155+985525073+985058619+985275574+986141082+987060106+987540229+987452651
3145+986875766+986016550+985110977+984373256+984151817+984806878+986192284
3135+987587670+988343399+988404002+988225447+988370301+989092908+990100088
3125+990787042+990823852+990451990+990183471+990294625+990682325+991128024
3115+991495619+991611256+991219579+990305617+989365187+989125524+989875033
3105+991085139+991848389+991786122+991328780+990974853+990663594+990132270
3095+989481982+989003812+988699567+988309120+987722038+987150143+986857904
3085+986803159+986642467+986077514+985135493+984142487+983407876+982853699
3075+982127765+981195580+980440140+979956835+979241750+977864733+976054455
3065+974510093+973882079+974272526+975059063+975477281+975317746+974728350
3055+973728619+972506508+971760036+972115409+973473913+975311527+977397121
3046+979873308+982643903+985041479+986459935+987132136+987758125+988508213
3036+988988986+989024639+988799656+988310060+987180227+985022893+981733991
3026+977438849+972205663+965918073+958593073+950608890+942305204+933658511
3016+924750025+916227141+908950450+903437030+899796804+897866188+897319750
3006+897948125+899862469+903185361+907564682+912167106+916164513+919212450
2996+921509359+923388050+924928290+926066656+926879227+927537904+928196003
2986+929053700+930204722+931342365+931976309+931949913+931504575+931050054
2976+931055984+931725653+932530414+932507055+931217254+929020072+926331052
2966+923076935+919064341+914530042+909989378+905693802+901593920+897758868
2956+894473726+891948869+890193120+889091275+888426016+887934974+887392729
2946+886440800+884453198+880964118+876316567+871657663+868215807+866637093
2936+866892812+868532562+870926450+873490504+875913030+878135740+880103672
2927+881632052+882463426+882417287+881652156+880744414+880256481+880294810
2917+880704061+881454582+882625709+884217729+886060333+887752514+888822322
2907+889089756+888650059+887454055+885212109+881721438+877042862+871402668
2897+865078340+858315038+851268320+844101048+837108786+830608579+824682798
2887+819192520+814113011+809726675+806416800+804389784+803652497+804150988
2877+805892852+808941368+813266016+818711602+825232998+832902667+841463084
2867+850157435+858281555+865671496+872496847+878841641+884623146+889722688
2857+894107360+897903722+901325473+904434375+907022800+908851229+909950398
2847+910553390+910784231+910513687+909428837+907213504+903868193+899834120
2837+895620987+891496806+887764157+885022706+883795244+884065571+885452351
2827+887753237+891135720+895779003+901497230+907839203+914403557+920894217
2817+927079260+932875012+938249219+942988903+946873927+950051459+952903702
2808+955620998+958153015+960431916+962373958+963766452+964450440+964672386
2798+965028265+965906646+967141630+968309068+969161486+969729115+970246843
2788+970989048+971978944+972919085+973545725+973919323+974282723+974752866
2778+975236460+975600584+975841983+976029577+976186726+976365859+976710529
2768+977319089+978169411+979187945+980202501+980894445+981046025+980814172
2758+980596059+980660350+980964811+981285399+981487529+981633613+981820556
2748+982021457+982170433+982300028+982491817+982729456+982896294+982952848
2738+983056480+983402669+983956846+984446298+984639027+984527222+984234477
2728+983899280+983658532+983574715+983551211+983458933+983319792+983247329
2718+983297807+983483883+983797456+984142632+984400520+984583486+984776432
2708+984952600+984992881+984838843+984510878+984019401+983339462+982490515
2698+981608374+980922288+980621370+980691881+980923807+981149368+981398722
2689+981679969+981774417+981540828+981286629+981478056+982120461+982740520
2679+982982715+982933322+982791577+982529423+982093342+981701592+981647932
2669+981952393+982401057+982790420+983028999+983162354+983312849+983499359
2659+983629243+983702357+983849670+984186023+984746492+985421079+985906120
2649+985986538+985878132+985989937+986383060+986749788+986874175+986848068
2639+986813862+986705962+986369464+985872708+985591245+985911326+986812198
2629+987799563+988417814+988752722+989116050+989377988+989144760+988536345
2619+988168605+988332189+988732906+989068609+989354556+989605719+989696551
2609+989711159+990008750+990693462+991392276+991792342+991999028+992093404
2599+991797260+990988738+990202636+990091193+990568351+991004214+991138727
2589+991242432+991478769+991723205+991958458+992293220+992647364+992811527
2580+992766039+992746368+993054590+993761792+994561274+995114438+995468871
2570+995795751+995964398+995864960+995825329+996126102+996387606+996003595
2560+994983831+993832231+992817095+991928011+991381573+991530476+992266101
2550+992965782+993083228+992575552+991869723+991569095+992004669+992943725
2540+993807425+994115647+993734745+992967156+992444076+992627187+993379010
2530+994164028+994542182+994390168+993957993+993724187+993817188+993732865
2520+993104200+992410159+992310649+992674194+992901708+992851591+992937434
2510+993569136+994715457+995813325+996212089+995883329+995349329+994844762
2500+994123240+993140215+992288158+991899084+991987674+992362501+992607589
2490+992244477+991316631+990581874+990808376+992036417+993628509+994802673
2480+995089054+994564022+993743496+993071801+992543008+991960338+991452879
2470+991453674+992126453+993003243+993396656+993191272+993011126+993420521
2461+994149781+994412515+993914095+993174494+992805018+992899611+993284779
2451+993883360+994493945+994634894+994028648+992993046+992100853+991689650
2441+991770791+992096586+992246358+991952310+991461702+991347872+991873483
2431+992729084+993446122+993787176+993694609+993241027+992715777+992410087
2421+992341167+992454635+992815938+993282538+993385591+992900117+992217719
2411+991937702+992287290+993024794+993785296+994451133+995071987+995506405
2401+995481744+995051377+994627301+994507975+994635762+994789294+994797828
2391+994595697+994177552+993358472+991559476+988143944+983088445+976985267
2381+970278663+962929654+954955812+946745634+938554186+930214196+921645607
2371+913148758+904927370+896718059+888254622+880056231+873470761+869545166
2361+867995019+867871498+869201581+873128260+880256915+889835649+900484698
2351+910438332+917395881+919375022+915912555+908907493+902154244+898404383
2342+897446741+898010102+899447650+901587989+904291329+907015206+908891510
2332+909697790+910264839+911420273+913095387+914828211+916559517+918744187
2322+922013202+926689608+932357211+937871427+942014700+944375249+945637208
2312+946970038+949192315+952506528+956675547+961133478+965102753+968037223
2302+970089550+971977642+974268766+976863844+979175361+980660784+981249529
2292+981484347+982163274+983644285+985625451+987599169+989192201+990143407
2282+990428414+990297373+989889135+989171157+988389972+987937909+987757691
2272+987566698+987503708+987887503+988593549+989191406+989446690+989288457
2262+988524123+987104076+985627982+984907545+984873772+984774551+984550292
2252+984750469+985192480+985414064+986199010+988662830+991991290+993952063
2242+993691571+992594065+992260460+992680558+992739787+991892575+990713494
2232+990064724+990364123+991429809+992606793+993416471+994070520+994778012
2223+995046748+994408682+993140938+991724507+990412287+989541572+989468964
2213+990160763+991203741+992061294+992437279+992625307+993107310+993723825
2203+993876417+993430357+992755191+992099696+991356550+990345537+989282527
2193+988745996+988800958+988575975+987284294+985202677+983228092+982117496
2183+982398743+984212275+987075366+990231491+992896646+993969202+992562245
2173+989446546+986903754+986513306+987834421+989436493+990313211+990244219
2163+990020538+991131567+993556842+994506818+992032512+988527522+987707213
2153+990562710+995013554+997901378+997723763+995780854+994018885+992615688
2143+990932041+989163708+987515785+985619232+984107558+984767970+987937836
2133+991549207+993567545+993757453+992829751+991415490+990023575+989104190
2123+989009380+989875539+991154782+991638882+990786174+989624015+989407421
2113+989890003+989914302+989223660+988607795+988555147+988740717+988714754
2104+988427288+988047327+987596421+986924148+986059652+985400758+985232762
2094+985190094+984671570+983715085+983028276+983201189+984205622+985537584
2084+986522707+986701696+986353988+986419726+987354804+988289883+988042192
2074+986822540+985987839+986189753+986846188+987462993+988352583+989676663
2064+990641031+990284717+988571491+986230613+984115296+983174938+984143355
2054+986192935+986701840+983921120+979641527+977842531+980286753+984731811
2044+988188999+990206975+991784893+992662695+991676777+989229735+987411936
2034+987436090+988454335+989430419+990610512+992075831+992593920+991587970
2024+990659472+991172138+991799791+990581730+988069022+986479316+986947506
2014+989007066+991331745+992138241+990566470+988075748+986725344+986234084
2004+984759148+982207894+980628458+981543359+984248651+986611298+987055189
1994+985867068+984688565+984701437+985554001+986237772+986072524+984587753
1985+981741584+978511550+976488366+976982519+980567710+986128571+990276545
1975+990138200+986635235+982751874+979592856+976403464+973667654+973420686
1965+975924499+978688151+979694608+979575500+979914095+980744457+980710178
1955+979012862+976450833+974666156+974772464+976681312+979140938+980350971
1945+979380963+977306723+976317550+977372677+979554166+981536055+982545694
1935+982517924+981860621+980879548+979750149+978887100+978455575+977849835
1925+976663377+975608756+975435481+975637611+975473014+975352531+976028782
1915+976987219+977043266+976132270+975488201+975997396+977001249+977391625
1905+977107991+976803313+976832169+977050354+977097144+976711035+976087794
1895+975800834+976031458+976234601+975863823+975041200+974514432+975043948
1885+976608560+978095790+978196819+976988521+975836053+975578888+975829834
1875+975997974+975952848+975658366+974962156+973855755+972709144+972110998
1866+972348564+973217037+974207440+974782951+974767257+974513130+974506115
1856+974853678+975299956+975547791+975383339+974729941+973824585+973149203
1846+973098797+973767454+974800235+975606803+975978231+976172334+976418796
1836+976389724+975465204+973587019+971512996+970339989+970570830+971706014
1826+973159833+974674111+975887616+976415975+976328036+976131474+976199671
1816+976256947+975745510+974611917+973388071+972652881+972580707+972917856
1806+973122879+972642394+971436266+970166208+969497985+969279366+968888050
1796+967989637+966574653+964963468+963975741+964080169+964562896+964583362
1786+963943415+962855744+961645349+960593982+959833336+959224558+958427897
1776+957186984+955510929+953760025+952584343+952305555+952591213+952937981
1766+952758486+951590831+949641774+947734807+946375725+945138644+943651630
1756+942175971+940807704+939080954+936615688+933712967+931345981+930108249
1747+929493614+928748516+927674803+926525734+925499461+924488593+923185268
1737+921375063+919338573+918072999+918044795+918366323+918624066+918862573
1727+918742813+917986000+916819719+915417969+913440852+910599023+907633240
1717+906504203+907846146+909923062+911583351+912710291+913188461+912872718
1707+912203482+912074972+912549816+912788395+912463178+912106431+912167685
1697+912897885+914781421+917120202+918372615+918243815+917462992+916488066
1687+915007344+912997467+912080975+913645225+915841466+917047378+917214723
1677+916644274+915708689+914618198+913042160+910875569+909273208+909562482
1667+910607123+910337519+908343842+905493263+902646444+899487715+895283115
1657+890077627+884572740+880592473+881841776+886893153+889775625+890606637
1647+892409177+896848161+901488335+903937112+904445222+903800647+902449809
1638+900995628+900964604+903170970+905394186+905941493+905231108+904282867
1628+903728329+903396676+903061046+903209154+904091295+904800234+904682283
1618+904569321+905940191+908286132+909734817+909847272+909280150+908735013
1608+908284541+907172571+904342530+898788177+889109137+873199783+849110769
1598+816726820+779438372+744602317+720439105+710771201+713767141+725367974
1588+742482661+763468559+786720631+809722191+829663086+844605831+854140162
1578+858692975+857454665+848328066+831875744+810456007+787447794+772083794
1568+774369493+791888224+815315089+836602990+850822621+858433641+865264632
1558+876572937+886703678+892214567+895507737+897911315+899768094+901431058
1548+902842427+903383297+902688099+901028533+899085913+898666465+902684483
1538+908980607+912662850+913341197+913208638+914358430+916326868+917328841
1528+917018089+916085324+914925552+913332158+911713090+911486878+912753826
1519+913933125+914881654+916501734+918316857+918932505+917612402+914305203
1509+909966019+908548865+913194029+918398577+920314367+919536509+917031540
1499+913544268+909654543+905149677+898972734+889663387+875353502+855528605
1489+834788156+819844327+811926460+808954819+809362985+811839895+814217005
1479+813440448+806842178+793432586+774378388+754361776+742612401+744041487
1469+754246211+768501061+785352003+803095355+817612722+826378017+830384174
1459+831957536+834018904+837813168+840415623+840005432+837204969+833110149
1449+828927318+825661774+823120139+819493076+812341279+800071428+782634344
1439+759756955+729869514+696328540+670966792+659640552+658825667+664903751
1429+675113753+686363118+697839057+711225217+726769869+741767069+754143880
1419+764207293+771986815+776369318+777279663+775353821+771009213+764736592
1409+757227036+748951554+740028749+730817103+722211342+714635615+707642123
1400+701078059+695662703+692173840+690971834+692069484+694645615+697523965
1390+700363914+703748927+708212427+713287886+718162083+722734639+727434549
1380+732603154+738184626+743935034+749935737+756460966+763073845+768831412
1370+773466741+777269900+780285294+782428020+784116079+786189307+788976391
1360+791789437+793830627+795092152+796309345+798235839+800945614+803980606
1350+806924621+809609447+812058080+814364101+816480358+818216220+819654129
1340+821442060+824200578+827540393+830423371+832273496+833093733+832999719
1330+832117650+830709608+829062843+827323148+825540207+823659636+821454137
1320+818746459+815709587+812671269+809643798+806392284+802939074+799697541
1310+797112370+795443186+794889588+795620945+797612453+800589590+804166031
1300+807990379+811797661+815345391+818326867+820454985+821684255+822228814
1290+822265407+821730105+820529256+818867014+817225962+816088825+815744662
1281+816223410+817293146+818556261+819591935+820086449+820004079+819676186
1271+819540806+819691952+819824946+819660999+819220290+818608114+817746366
1261+816479056+814845381+813087606+811396365+809708812+807763371+805391902
1251+802801886+800481546+798741634+797441492+796254094+795061127+793952629
1241+792976546+792091439+791272793+790476277+789557759+788405870+787124891
1231+785966493+785103010+784531621+784155637+783860216+783483436+782795904
1221+781615449+779976349+778173882+776626482+775635429+775160152+774805357
1211+774134675+773042014+771742667+770426615+769087782+767770644+766882428
1201+767136121+769179192+773240529+778973942+785564041+792104890+797991836
1191+802999388+807130801+810515887+813349761+815772215+817802413+819410054
1181+820618497+821536074+822279364+822847354+823097865+822875124+822116647
1171+820857582+819240829+817542139+816111823+815261791+815176021+815809170
1162+816764787+817266460+816343097+813160720+807231541+798345401+786518284
1152+772355856+757619002+745159966+737718027+736293424+739638663+745455387
1142+752013087+758601233+764933877+770703739+775679833+779881033+783547655
1132+786978953+790359699+793719474+797027107+800247162+803353315+806373048
1122+809322704+812034504+814194297+815576666+816083257+815591057+813915726
1112+810817672+805958807+799103661+790575787+781430603+773152300+767187612
1102+764448620+764773909+766771419+768543295+768996733+768712521+769522344
1092+772998045+779162621+786594363+793546994+798766729+801559309+801659326
1082+799085509+793775304+785335297+773330131+757729939+739036828+718314675
1072+697323209+678364761+663589867+654236405+650487485+651928359+657893987
1062+667354047+678864482+690965325+702511919+712499687+719903007+724039193
1052+725074361+724115128+722793868+722469447+723396282+724478528+723846392
1043+719764083+711315905+698754826+683531414+667899546+654170089+644013385
1033+638158983+636502744+638453103+643309509+650380670+658872891+667953206
1023+676965831+685345596+692483363+698126668+702834966+707629612+713128858
1013+719010886+724085333+726861496+726276512+722034958+714464075+704352425
1003+693111016+683150078+677743906+679401664+687554349+698609683+709354264
993+719807185+731865867+745909475+759950190+771738762+780556850+786958703
983+791699473+795261594+797946058+800029049+801804830+803509161+805213058
973+806844347+808293972+809446657+810183728+810439736+810207521+809498944
963+808407657+807206446+806328933+806277370+807462816+809956865+813404651
953+817275066+821143529+824715197+827789819+830325958+832390435+833962640
943+834922018+835304655+835426006+835654605+836175660+837007033+838011466
933+838813840+839021611+838634200+837925768+836910199+835328665+833191435
924+830874060+828592121+826121286+823144800+819736789+816511817+814330183
914+813668396+814095727+814433960+813605407+811377201+808328902+805304830
904+803010163+801874112+801962123+802957660+804408804+806091439+808056551
894+810276223+812441585+814337126+816228400+818497250+820942267+822731355
884+822986784+821334306+818206746+814809438+812460966+811732357+812300708
874+813475161+814591832+815114984+814755778+813521156+811604787+809393069
864+807438372+806011093+804707479+802789375+799773258+795546891+790382769
854+785118992+780795357+777699400+775091883+772085385+768510173+764907915
844+762102318+760916655+761924920+765063834+769393400+773362385+775421294
834+774601853+771045227+766318488+762824273+762340390+765092400+770256666
824+776946781+784462991+791995038+798599456+803529121+806495844+807655038
815+807316949+805551437+802132650+796963249+790409889+783183531+776159594
805+770293259+766293610+764329005+764246345+765766770+768245126+770782277
795+772823685+774116089+774086728+771992745+767825823+762618310+757762916
785+754146556+751796493+750220672+749053234+748338437+748254331+748698945
775+749228389+749454312+749370929+749056416+748186641+746142413+742476152
765+737103392+730263216+722326691+713379514+703074629+691067583+677318167
755+661979478+645639684+630050991+618479953+615065289+623120416+642962163
745+670878635+700662083+726771026+746446802+759645440+767858150+772888482
735+775957753+777502187+777677849+776787030+775042851+772265169+768126379
725+762435200+755027902+745848366+735449467+725086583+716015524+708840875
715+703619694+700324572+699023345+699640945+701706869+704611181+708180896
705+712630005+717756232+722623703+726338344+728829284+730657569+732238452
696+733345070+733337910+731861166+729186682+725811865+721973559+717833685
686+713917275+710916417+709068606+708046167+707484396+707311555+707411644
676+707198087+705549803+700986576+692152000+679228389+667522405+666068079
666+673572284+682122359+689451336+696644861+703997848+710400063+714645378
656+716468455+716586045+715764218+714193025+712193707+710833685+711054328
646+712649458+714680452+716532240+718220300+719887676+721427916+722860329
636+724744371+727557996+730644768+732270633+730688376+725053172+716085529
626+706557345+700386694+700015194+704752636+712110613+720214483+728587595
616+737483715+747308043+758072873+768563761+776643333+781222470+783463260
606+785496567+788505597+792291617+796009585+798897408+800579971+801136824
596+801075426+801052501+801345680+801705682+802005731+802642568+803852313
586+805154191+805913969+806094838+806081387+805976887+805456265+804329687
577+802973643+802026270+801813436+802271357+802977331+802953176+801264611
567+798207490+794922348+791713575+787906004+783398896+779141866+775792071
557+773079909+771067429+771080953+774277576+779474386+783617804+785005452
547+784967123+785601935+787181589+788640977+789279694+788929022+787539855
537+785617339+784352705+784543264+785733121+786809438+787190774+787187953
527+787305832+787381695+786688232+784847292+782049215+778703254+775558193
517+773736272+773710165+774451647+774327332+772639345+769868532+766602627
507+763034503+759504563+756222315+752400569+747410446+742838830+741183386
497+742867974+746084775+749052294+751642382+754770737+759011785+764164553
487+769495947+773884959+776355505+777293115+778572719+781511816+785080230
477+786947422+786400621+785311649+785982548+788742223+792257627+795796824
467+799450790+802666000+804214050+803578009+801544267+799568524+799043420
458+800633849+803369225+805457567+806035248+804933186+802010794+797674574
448+793425499+790970646+790532107+790726282+790553658+790791658+792710992
438+796226685+800013573+803143230+805762245+807826505+808828985+809138364
428+809846796+811111141+811923567+811438310+809659419+807297206+806669843
418+810943290+818964066+826224629+829129303+825913515+817311587+805520557
408+792591015+781432555+776108899+778680907+786750571+795488241+801966752
398+808315668+818087493+828061086+832955605+833681972+834525061+836016270
388+834423382+828601884+824516321+829388999+841598971+853357024+859225529
378+856564424+844709174+830090344+824717873
##END=
