##TITLE=X9337
##JCAMP-DX=4.24
##DATA TYPE=INFRARED SPECTRUM
##DATE=5/11/2018
##SAMPLING PROCEDURE=ATR platinum Diamond 1 Refl
##ORIGIN=ComPlat
##XUNITS=1/CM
##YUNITS=TRANSMITTANCE
##RESOLUTION=4
##FIRSTX=3997.453
##LASTX=373.96442
##DELTAX=-1.4165319
##MAXY=0.91932237
##MINY=0.41431242
##XFACTOR=1
##YFACTOR=8.5618568e-010
##NPOINTS=2559
##FIRSTY=0.91863936
##XYDATA=(X++(Y..Y))
3997+1072944088+1072591898+1072288927+1072167516+1072198634+1072306957
3989+1072492485+1072755914+1073050670+1073362343+1073654802+1073741823
3980+1073423884+1072785989+1072200375+1071950799+1071891486+1071662796
3972+1071307334+1071310049+1071891695+1072678918+1073172917+1073175493
3963+1072818848+1072467563+1072373302+1072410268+1072449184+1072614871
3955+1072711638+1071888353+1069487768+1066193167+1064008184+1064317072
3946+1065908993+1066474488+1065762381+1065630527+1067090037+1069060740
3938+1070224380+1070097469+1068677571+1066419073+1064418991+1063765223
3929+1064333572+1064887440+1064636751+1064215084+1064676572+1065497629
3921+1065048742+1063130111+1061744882+1062974936+1066297871+1069365591
3912+1070914140+1071272665+1070613884+1067999785+1062637366+1055569551
3904+1049709444+1047428320+1048583188+1052073620+1056843394+1060936008
3895+1062296245+1060656637+1058304853+1058479660+1060968867+1062274246
3887+1060914845+1058678972+1057448292+1056634823+1056004028+1057346164
3878+1060421612+1061922265+1059982680+1055528338+1050580624+1047144842
3870+1047296397+1050698833+1053308825+1052681581+1050921954+1051755333
3861+1055410199+1058623557+1058817509+1055453083+1049223312+1042624086
3853+1041716774+1048572189+1056598065+1061693366+1063466985+1062347065
3844+1058893808+1053776927+1047947450+1043086061+1041563061+1044285623
3836+1048717409+1052160640+1054645949+1057044029+1058962450+1059401730
3827+1058495045+1057134182+1055002107+1050890209+1045880258+1043962672
3819+1045840368+1048543994+1052102232+1057788159+1063446379+1066198597
3810+1065509533+1062410277+1058872506+1056486331+1054169912+1050305987
3802+1046655368+1046759654+1049999396+1053665749+1057875249+1062951058
3793+1067218409+1069426923+1070094893+1069987127+1069107731+1067632140
3785+1066553850+1066156271+1065163191+1063116884+1062089484+1063996210
3776+1067316569+1069177418+1068321901+1065250560+1061675823+1059505598
3768+1059134960+1059909931+1061555874+1063013364+1062226002+1058835818
3759+1055554166+1055258992+1056596046+1055656154+1050351377+1042038333
3751+1036016019+1036360829+1038943879+1039406968+1039521627+1043251818
3742+1049157942+1052229421+1050761558+1045343097+1038060516+1033705795
3734+1036834500+1045538720+1053794400+1057970624+1057882559+1055334108
3725+1052895651+1052330922+1053731049+1056477977+1059777311+1062339825
3717+1062740537+1060128457+1054727261+1048639160+1046274496+1050383888
3708+1057857567+1064147765+1066966398+1066063611+1063262870+1061845896
3700+1063261547+1065619945+1066819994+1066162258+1063282502+1057763028
3691+1050626154+1045943400+1048071855+1054858558+1060753126+1063885381
3683+1064606538+1063029028+1059001018+1052516381+1044427292+1038658521
3674+1039721565+1043882891+1045296733+1045188827+1048838263+1056493501
3666+1063542102+1067512400+1068624106+1067931770+1066071826+1063188659
3657+1060084250+1058171677+1056723932+1052528912+1043643898+1032386145
3649+1026956755+1033017149+1043920206+1052321106+1056924219+1059175546
3640+1060600318+1061551488+1061434880+1060034684+1057991718+1055668476
3632+1052242092+1047335800+1044179318+1047315402+1053744068+1057658046
3623+1057584461+1054233541+1049058878+1044755743+1043406575+1043545599
3615+1043097548+1042633414+1043373438+1044414483+1044434184+1044619573
3606+1046770166+1049644561+1050642514+1049326274+1047495221+1046550247
3598+1045987189+1045205326+1044973642+1045920914+1046675209+1044941619
3589+1040038668+1034684603+1033703776+1037513539+1041665745+1043427321
3581+1043134305+1042008328+1040731144+1039618115+1039165956+1039545296
3572+1039597021+1037159121+1030932692+1022673461+1017797800+1019948602
3564+1025791444+1030681516+1033445221+1035078633+1036393131+1036982644
3555+1036069832+1033954674+1032108723+1031415621+1030906655+1029286749
3547+1026952369+1025734916+1026659492+1028703850+1030146513+1030146025
3538+1029165408+1028425523+1028621981+1029113404+1028759335+1027212526
3530+1025071888+1023136758+1021753966+1020917593+1020774949+1021507384
3521+1022755887+1023793660+1024273248+1024288285+1023832575+1022647146
3513+1020638014+1018260610+1016440487+1015831900+1015955191+1015623468
3504+1014384016+1013093883+1012851409+1013580990+1014239631+1014104158
3496+1013427207+1012901324+1012625782+1011991715+1010640528+1009035868
3488+1007860045+1007107352+1006160776+1004809938+1003817903+1003988742
3479+1004852474+1005170064+1004545743+1003644558+1003008959+1002472564
3471+1001743888+1000847298+999947226+999187988+998682225+998420954+998221363
3461+997902172+997543786+997465468+997797469+998176739+998036671+997040111
3451+995171952+992819332+990834079+989908458+989772149+989662921+989362177
3441+989134740+989089559+989176232+989469178+990013231+990577264+990795372
3431+990508134+989929552+989454628+989203521+988797936+987800401+986405008
3421+985420213+985354565+985849886+986300374+986548279+986686467+986700460
3411+986598263+986528577+986623534+986914601+987337521+987653858+987524511
3401+986806208+985753467+984930391+984788722+985231900+985812293+986291463
3391+986619009+986601744+986150629+985634841+985518999+985809230+986175622
3381+986412875+986518552+986521128+986493142+986658551+987240824+988151198
3371+988957914+989213128+988771690+987872524+987012342+986662659+986987350
3361+987755777+988566948+989255873+990011421+990942263+991755523+992120174
3352+992099011+991971264+991913343+991960961+992040811+992027236+991879092
3342+991635852+991352931+991201445+991447679+992137508+993001797+993753168
3332+994271532+994527791+994601724+994800200+995499359+996688199+997830885
3322+998429726+998601470+998830926+999328405+999914715+1000351976+1000507778
3312+1000363881+1000084440+999953213+1000115419+1000446794+1000790630
3303+1001229979+1001944175+1002850373+1003625553+1004088085+1004348102
3295+1004607145+1004994770+1005582960+1006396150+1007341194+1008151321
3286+1008553426+1008627358+1008826183+1009464079+1010358442+1011106750
3278+1011511570+1011659714+1011802984+1012220823+1013044664+1014127410
3269+1015113318+1015681110+1015814774+1015834824+1016106467+1016735940
3261+1017551845+1018260889+1018616560+1018599991+1018481504+1018637444
3252+1019255221+1020135870+1020800847+1020964863+1020901025+1021094071
3244+1021592525+1022062158+1022356218+1022611015+1022916561+1023272163
3235+1023691115+1024110763+1024419373+1024674726+1025033042+1025489517
3227+1025971333+1026516778+1027076286+1027351062+1027130100+1026605888
3218+1026173848+1026103883+1026485451+1027249770+1028174626+1029079153
3210+1030002337+1031016997+1031955080+1032490639+1032453951+1032028525
3201+1031678563+1031783197+1032261949+1032707495+1032929850+1033136402
3193+1033540874+1034074206+1034490791+1034570154+1034285422+1033931492
3184+1033915828+1034271081+1034582406+1034530611+1034327749+1034493227
3176+1035292425+1036443742+1037398393+1037917036+1038257322+1038711500
3167+1039211207+1039559220+1039751152+1039834135+1039727761+1039401260
3159+1039034102+1038859992+1038962537+1039298924+1039842698+1040566153
3150+1041263223+1041626342+1041648132+1041695959+1041994613+1042285471
3142+1042184945+1041698047+1041267191+1041361939+1041976026+1042590948
3133+1042794159+1042757123+1042859529+1043118781+1043290385+1043246040
3125+1043011502+1042676437+1042401035+1042303989+1042300996+1042212583
3116+1042020302+1041882322+1041902998+1042014315+1042104259+1042117556
3108+1041960432+1041473325+1040646420+1039764867+1039174589+1038930513
3099+1038772832+1038472715+1038108482+1037903113+1037863640+1037754621
3091+1037368041+1036611309+1035380490+1033541152+1031032452+1027986661
3082+1024828370+1022120149+1020130092+1018745280+1017927078+1017916287
3074+1018847408+1020446429+1022145977+1023314698+1023544850+1022974274
3065+1022115415+1021155264+1019715317+1017534371+1015047392+1012986465
3057+1011629361+1010677355+1009736558+1008752459+1008134195+1008536787
3048+1010317717+1013112192+1016065533+1018450176+1020004086+1020845888
3040+1021228779+1021325407+1021132012+1020438910+1018863280+1016133966
3031+1012449374+1008392890+1004541984+1001491041+1000063137+1000933483
3023+1003948712+1008094792+1012169446+1015390253+1017503392+1018645938
3014+1019292884+1020160514+1021832981+1024368413+1027255549+1029747053
3006+1031343568+1032070434+1032237583+1032045581+1031642014+1031264902
2997+1030961652+1030450667+1029512515+1028172537+1026405114+1024060221
2989+1021021183+1017085623+1011879493+1005159970+996968754+987370310+976257917
2979+963329786+948047573+929874048+908833507+885693611+861672162+838548904
2969+819061716+806109289+800640357+800638547+802872540+805480513+808508204
2959+812518183+817592182+823790625+831917655+843185502+857955059+874959723
2949+891836432+906388715+917446947+924757236+928296121+927914135+923576471
2939+915555467+904176512+889624437+872147495+852315287+831201580+810619881
2929+793016585+780647753+774554848+774192842+778055513+784741899+793452314
2919+803622101+814447257+824882421+833885226+840623685+844725071+846531480
2910+847099689+847840130+849941365+853845806+859141463+865002615+870770689
2900+876184903+881319746+886487309+892015207+897838209+903363113+907942695
2890+911429298+914138632+916394764+918254638+919524651+919873917+919003224
2880+916819494+913432094+909040547+903938075+898536601+893217484+888264340
2870+884187737+882031645+882978011+887478091+894880134+903877579+913142838
2860+921617811+928581966+933746257+937317235+939887545+942143050+944499220
2850+946930507+949133173+950794779+951694990+951696104+950807589+949312644
2840+947840743+947235218+948132923+950558222+953977924+957750024+961455640
2830+964920523+968153930+971279572+974366228+977295411+979863773+982016245
2820+983930281+985833665+987728417+989388840+990698396+991841917+993049485
2810+994337807+995630934+996890714+998004578+998817211+999383054+999917987
2800+1000465799+1000899788+1001245156+1001693208+1002307573+1002956538
2792+1003497528+1003881324+1004147607+1004412706+1004773598+1005217821
2783+1005738413+1006436179+1007321562+1008133012+1008618308+1008880902
2775+1009163684+1009433517+1009520747+1009551169+1009837084+1010391023
2766+1010910849+1011244312+1011562042+1012016498+1012487315+1012772812
2758+1012882110+1012995724+1013205548+1013435979+1013580990+1013597767
2749+1013499956+1013359192+1013248223+1013140387+1012996420+1012928196
2741+1013054898+1013243837+1013279063+1013209307+1013205826+1013178954
2732+1012874800+1012292388+1011699674+1011277450+1010984643+1010771198
2724+1010735764+1011004344+1011525632+1012075185+1012474923+1012712942
2715+1012813329+1012715030+1012399110+1012050053+1011956419+1012248669
2707+1012784229+1013273285+1013492438+1013417600+1013209168+1013081422
2698+1013154449+1013395253+1013679288+1013905611+1014070602+1014242416
2690+1014448620+1014597878+1014555551+1014295046+1013929420+1013618513
2681+1013474546+1013506987+1013617538+1013712634+1013810237+1013941673
2673+1014034750+1014029250+1013984069+1013921832+1013744380+1013457490
2664+1013285050+1013385019+1013625962+1013779954+1013817825+1013889321
2656+1014062597+1014200507+1014139871+1013910624+1013664808+1013470996
2647+1013331415+1013297163+1013382374+1013477609+1013518126+1013608697
2639+1013830356+1014077912+1014239214+1014368352+1014538425+1014677589
2630+1014714764+1014762660+1014972554+1015262785+1015380506+1015235913
2622+1015025532+1015022608+1015386006+1016119277+1016999160+1017592431
2614+1017635106+1017367918+1017230077+1017303105+1017357267+1017308048
2605+1017303662+1017483273+1017887118+1018458182+1018958446+1019063706
2597+1018677195+1018048280+1017564167+1017493089+1017849803+1018419823
2588+1018952320+1019330894+1019505771+1019381993+1018938605+1018385433
2580+1018039230+1018063387+1018406318+1018891127+1019278612+1019388258
2571+1019267752+1019114944+1019014557+1018941181+1018993254+1019373500
2563+1020108302+1020917315+1021395163+1021327287+1020896569+1020520779
2554+1020470168+1020703801+1021001969+1021093793+1020801473+1020266888
2546+1019864714+1019763909+1019771706+1019688932+1019587570+1019643055
2537+1019859214+1020038198+1020019819+1019923748+1020030053+1020360731
2529+1020565404+1020324391+1019700628+1019077281+1018901639+1019371690
2520+1020174298+1020689530+1020600838+1020107954+1019572742+1019265733
2512+1019316205+1019533130+1019479456+1019039201+1018671905+1018866900
2503+1019542946+1020089645+1019975613+1019386379+1019090369+1019475279
2495+1020064374+1020262642+1020096049+1019900079+1019816330+1019866315
2486+1020061380+1020254984+1020249414+1020142066+1020285336+1020796948
2478+1021311136+1021373582+1020963123+1020392824+1019808603+1019125874
2469+1018475447+1018312684+1018852490+1019587013+1019734043+1019182263
2461+1018605839+1018572771+1018989634+1019505980+1019938229+1020152717
2452+1019995941+1019510435+1018959838+1018571170+1018367541+1018236871
2444+1018098195+1017964880+1017889624+1017953950+1018213967+1018457695
2435+1018243624+1017496639+1016767058+1016540805+1016625737+1016549019
2427+1016229062+1015978721+1016077576+1016548462+1017240938+1017967316
2418+1018506983+1018611756+1018193918+1017455287+1016679829+1016026826
2410+1015626531+1015625835+1015961386+1016336341+1016585638+1016816207
2401+1017107274+1017336243+1017361165+1017155518+1016760096+1016263313
2393+1015812616+1015568332+1015641708+1016000998+1016389110+1016490124
2384+1016253985+1015966468+1016041724+1016803537+1018279825+1020117700
2376+1021939355+1023764142+1025751415+1027717872+1029419508+1031031130
2367+1032780662+1034445888+1035692720+1036568217+1037268698+1037680270
2359+1037462301+1036518719+1035089284+1033235257+1030735329+1027833992
2350+1025451437+1024407120+1024926807+1026689497+1029006403+1031147668
2342+1032568540+1032904927+1032257076+1031412976+1031191944+1031546083
2333+1031688100+1031057375+1029800519+1028308568+1026776587+1025378618
2325+1024403431+1024024578+1024085910+1024121901+1023634656+1022576972
2316+1021460254+1020683612+1019969278+1018862863+1017555186+1016693195
2308+1016572062+1016932258+1017382468+1017686483+1017762087+1017648124
2299+1017431756+1017117438+1016718396+1016460328+1016530641+1016666323
2291+1016515046+1016307172+1016463321+1016716238+1016483719+1015903466
2282+1015622215+1015783307+1016003713+1016103613+1016233935+1016539900
2274+1017102331+1017915104+1018638349+1018696618+1017956177+1017105116
2265+1017027354+1017838456+1018765191+1018939859+1018188975+1017099755
2257+1016346992+1016046249+1015938900+1015931312+1015947115+1015557193
2248+1014459480+1013070840+1012027985+1011414524+1011037899+1011121161
2240+1012124125+1013931021+1015606551+1016172464+1015608849+1014899039
2231+1014913658+1015506721+1016040540+1016467986+1017223882+1018187861
2223+1018629787+1018291311+1017750182+1017633853+1018162590+1019341198
2214+1020775228+1021418693+1020437031+1018409102+1016874685+1016572967
2206+1016928429+1017432522+1018443354+1020113384+1021584311+1021985719
2197+1021479607+1020749609+1020131066+1019669161+1019504379+1019735088
2189+1020071683+1020000535+1019398562+1018755932+1018692650+1019486487
2180+1020967717+1022572378+1023729752+1024427796+1025060819+1025752668
2172+1026388058+1027090209+1028115382+1029552614+1031457322+1033838832
2163+1036124829+1036901819+1034949912+1031188115+1028414872+1027772799
2155+1027515775+1025942582+1023404364+1021258018+1020290140+1020312557
2146+1020510059+1020342283+1020301696+1021020696+1021806039+1021326660
2138+1019673059+1018356820+1018209442+1018591080+1018782177+1018867666
2129+1018955453+1018619066+1017600019+1016382984+1015598545+1015275177
2121+1015062846+1014868686+1014878920+1015112761+1015286733+1015152721
2112+1014730985+1014092810+1013161481+1012021441+1011214795+1011268956
2104+1011979741+1012602251+1012772742+1012813746+1013098826+1013551751
2095+1013906238+1014149617+1014546570+1015335116+1016445848+1017442199
2087+1017778934+1017230426+1016155199+1015327250+1015296062+1015848538
2078+1016359941+1016629914+1016879001+1017020949+1016707536+1016053211
2070+1015494399+1014998451+1014222715+1013404233+1013277531+1014046446
2061+1015061036+1015555174+1015324813+1014722004+1014252998+1014150731
2053+1014182894+1013920788+1013299530+1012864427+1013326959+1014898482
2044+1017157955+1019342451+1020692593+1020954073+1020800429+1021287466
2036+1022487097+1023118101+1022177861+1020502679+1019945190+1021389733
2027+1024099903+1026507728+1027214753+1025629655+1022293633+1018641900
2019+1016033091+1014691930+1013928237+1013628050+1014552070+1016681430
2010+1018624008+1019473399+1019963430+1020654513+1020647690+1019476114
2002+1018533368+1019419168+1021945342+1024452023+1025469538+1024685168
1993+1022891082+1021240336+1020301418+1020101270+1020902696+1022890664
1985+1025309072+1027005834+1027653755+1027570215+1026747139+1024985076
1976+1022749830+1020998557+1020062564+1019185674+1017319743+1014307159
1968+1011225864+1009564953+1010015024+1011972918+1014010454+1014848845
1959+1014157205+1012451601+1010471639+1008858137+1007834357+1006951759
1951+1005735629+1004516853+1003853268+1003381686+1002426965+1001585720
1942+1002176694+1003969876+1005436765+1006007759+1006244456+1006553553
1934+1006922451+1007410671+1008096533+1008775642+1008890648+1007746083
1925+1005389774+1003291672+1002993783+1004058776+1004970543+1005392558
1917+1006014860+1006833968+1007025622+1006104109+1004493879+1003212240
1908+1002889637+1003191633+1003453948+1003383357+1002926116+1002056536
1900+1000879182+999629357+998632031+998186138+998008476+997212760+995564311
1890+994170380+994114060+995016847+995934949+996473989+996493413+995948524
1880+995320166+995404750+996365388+997324425+997006973+994701623+990793632
1870+987126165+986633559+990403710+995905989+1000090009+1001821720+1001634939
1860+1000821888+1000553307+1001205474+1002329642+1003306918+1003774393
1851+1003416773+1001918139+999307938+996116509+993476373+993066819+995264055
1841+997903912+999095120+998950248+998571743+998604045+998459313+996971817
1832+994008730+991341792+990751862+991423174+991891623+992502717+993967517
1822+995557071+996161342+995669432+994698699+993563811+991886820+989374848
1812+986764856+985535289+986279977+987992612+989153189+988781506+986944884
1802+984954827+984425881+985400929+986311652+985851696+983883707+981648113
1792+981705338+985080345+989188554+991423731+991547578+990706541+989735113
1782+988792923+988258269+988335056+987924249+985446667+980528123+974829874
1772+971720244+972924192+976404877+979682839+981384754+980644939+977629292
1762+974201863+972447945+972135437+972070624+972081066+971635660+969127517
1752+963728340+957158632+953190143+953450440+955867107+958147743+959495657
1742+960029825+960188481+960327783+959946703+957933533+954521977+952993825
1732+956066558+961257860+966198055+970373235+973020193+973694707+973078183
1723+971722402+968824268+963224038+955983784+952407933+956254662+963694715
1713+970144544+973927783+974788661+973102967+970148512+967924335+966995860
1703+965666672+962700035+959700748+959547591+963151289+970210819+977877753
1693+982141624+982196830+979793042+976606835+972366772+966278114+961564520
1683+963750339+970200098+975681144+978563545+978876541+977591212+976159549
1673+974571388+972072712+970558136+973452372+979024963+982401363+982259903
1663+981114990+982207481+985019222+986215442+983583521+976560609+966753803
1653+961963841+966584914+970400803+969062147+966716837+969832036+977425246
1643+983353090+985472913+984020295+979342624+972849563+969469752+974007703
1633+981788808+986507832+987291852+985828931+984081906+982625180+981172911
1623+980772616+982447032+984234992+983575167+980949790+980288851+983449857
1613+986947808+987908794+986312418+983527828+980364454+975502021+966060702
1604+949954995+928362813+906373609+890500213+885246395+891270798+904926560
1594+919721388+930132186+934324979+933378125+929162359+923195947+916748137
1584+911161204+907437140+905417635+904062759+903394301+906068201+913492313
1574+920916146+924593359+926095265+929407966+935824309+942362133+946854486
1564+948786831+947094663+940207364+930088885+928295912+937384276+946511346
1554+952615320+956234542+958114536+959460710+960417032+959241209+954485358
1544+946832208+938651296+934351920+940641144+953778612+962767702+965452393
1534+965534958+967580012+971496705+973366883+971694277+968207605+965011024
1524+961963980+958774500+957677832+959637954+962153685+964798067+969194210
1514+974096742+975953693+972636258+964188366+953185479+948602765+958401773
1504+970869252+976279637+974978853+968768087+958607142+944293573+925884327
1494+905086400+883087379+861048955+845301913+847049426+867090692+892875110
1485+914592184+930139705+941178723+949096833+953592805+954030345+950759205
1475+945555163+942013981+943024673+945844490+945467516+939478131+927793350
1465+912869384+898343833+884595481+868905942+848461249+824172333+804894342
1455+795466320+791531456+791346764+796536047+808438100+825234123+841118031
1445+849854275+848447325+838020794+824132373+814725722+816935977+831983582
1435+849639229+859895827+862912101+862929018+863431301+864719485+864265237
1425+860177774+853425601+846677048+842252084+843207501+852366247+866612496
1415+880164252+890675716+898343764+904070068+908347654+910951728+912002868
1405+912649187+913657652+913962433+912161872+908603007+905255080+903788191
1395+904717641+907651141+910709324+911371516+908180017+901325717+892864110
1385+885258091+878928768+872714869+865314984+855479636+842453554+827024033
1375+811727827+799849235+793568922+793285304+799078371+810302847+823602243
1366+834833890+842986538+850200129+858517630+867656535+876384564+884193237
1356+891225616+897629847+903219564+907760439+911372351+914409510+917038229
1346+918983174+919481768+917598502+913169779+907695278+903236272+899619556
1336+894990476+889577028+886438299+888225772+894306355+901708538+908137342
1326+913120073+916888066+919409854+920655571+921171221+921908808+923336851
1316+925021779+926367326+927323370+928091866+928619420+928770139+928640096
1306+928411197+928128693+927771978+927392151+927125937+927128165+927427307
1296+927809710+927883365+927247209+925530884+922242619+916524111+907070887
1286+892456088+871854201+845979073+817920215+793077569+777423813+774644096
1276+784028956+800921886+819606256+836204221+849435880+859600236+867479709
1266+873903432+879547728+884718493+889363097+893377950+896840117+899908812
1256+902628241+904909643+906587818+907429203+907192507+905751585+903223532
1247+900166115+897705868+897164878+899279757+903751712+909523824+915386299
1237+920419502+924177679+926703087+928390242+929689008+930836079+931886174
1227+932931744+934119749+935368391+936157215+935815120+934231553+932220403
1217+930856267+930396520+930161773+929486981+928437790+927536605+927157334
1207+927429535+928487497+930439682+933063737+935752465+937839637+938954476
1197+939219993+939260162+939856984+941387572+943559815+945640792+946933640
1187+947326416+947566523+948690969+950946543+953478565+955194054+955651992
1177+954997109+953278487+949893106+943383616+931893483+914758358+894510192
1167+876904181+867671154+868464504+875938322+884486044+889565333+889236186
1157+884087350+876231268+867634884+858717847+848489095+836417038+824599569
1147+817720554+819713744+830034459+843786988+855404519+861588622+861644803
1137+856965669+850474488+845126410+842082150+840443239+838676094+836015421
1128+832704460+829427403+826817968+825318777+825092315+825932029+827420638
1118+829198295+830946992+832127409+831800560+828739523+822050074+812301398
1108+802240213+795824844+795827420+802102303+812083707+822677179+831702470
1098+838219409+842218598+844168417+844602615+843897191+842324764+840314935
1088+838666138+838397280+840235294+844115509+849035167+853268755+854776370
1078+851803258+843867326+832803455+822502511+816493007+815031548+814679706
1068+811254366+803773934+795872462+793145654+798718245+811165465+826298560
1058+840374388+851688321+860043414+865657636+868776177+869818266+869265163
1048+867164555+862788462+854836866+842379761+826429160+810768930+800153459
1038+796674166+798241999+801292037+804319797+807960879+812759057+818636429
1028+826048358+835679452+846633468+856173294+861817034+863296941+862401116
1018+861315865+861223135+861943318+862158990+859927642+853914169+844865000
1009+835325591+826919539+818041069+805266303+787142763+765359692+741776200
999+715913742+686822193+656703383+631269345+616138409+613001560+619194086
989+630682896+644990826+661186964+678136909+693906785+706743927+716211979
979+723678139+731742444+742556462+756334123+771432966+785567133+796937734
969+804725801+808743438+808792378+805185826+800310096+798527078+803149126
959+813455987+825226953+834053558+837923261+837414364+834611674+832066008
949+831980588+835516758+842476249+851637153+861580895+871392574+880703710
939+889256166+896598687+902148584+905394731+905994129+903684811+898189563
929+889401804+877802791+864640540+851498756+839508359+828985965+819890431
919+812397747+806727344+802620459+799451655+796900141+795062544+793234276
909+788408182+776468675+757197089+738153984+730899667+741594083+766170028
899+795104453+821131275+841782382+857139571+867656256+873799773+876364096
890+876742532+876918313+878757929+883031546+889208896+896190177+903092514
880+909351384+914286985+916731011+914797552+905906760+888446317+865300365
870+844988987+836476630+841917646+855635020+870004281+880951614+888326925
860+893304643+896509439+897830969+896945308+893533125+887042361+876558674
850+861251817+841343101+818953671+797931927+782459592+775384676+777304212
840+786531182+799659251+812780707+823196518+830447981+835662326+840131426
830+844830957+850833709+859303113+870747298+884339571+898020813+909576315
820+918008543+923853544+928185431+931644256+934339041+936159165+937014403
810+936986765+936386393+935730745+935620054+936435403+937962719+939194861
800+938727387+935924905+931774927+928145958+926382155+926960807+929759529
790+933952461+938208744+941549361+943802220+945294867+946516637+948009354
781+950221905+953218825+956471169+959219906+961221659+962680612+963016024
771+959511530+947257287+922123853+886294959+850407378+827057519+820833108
761+825431416+829921402+826511447+813604618+794203198+772554348+751809190
751+733823003+720180885+712978363+714538469+725795525+744304253+764244923
741+779287934+786028690+785293679+780821864+776803669+775982264+779112431
731+785688056+795211245+807887642+824002051+842726103+862000125+879665728
721+894452271+906024482+914432344+919380685+919644810+912904749+895994973
711+865510398+818966342+756308017+681125127+601864174+532498125+489367958
701+483904873+516469137+575807382+644625478+707532891+756200598+789724142
691+811532832+825722483+835082699+841053566+844643271+847170211+849864787
681+852636916+854123297+853852559+853598250+855511241+859625994+864322462
671+868654766+872955325+877311089+880681224+883157413+886158858+890078754
662+893904320+895843278+894036382+887127154+875439798+861767815+849683088
652+840493571+832201969+821727192+808229459+794690304+786381158+786762100
642+793611110+798964479+793652183+774178083+747524712+728361032+728009747
632+745351982+769974291+792783370+811961739+830244770+848897187+864807549
622+872958249+871799691+865986226+862822644+865858132+873292825+882157650
612+891062435+899156675+905578658+910380664+914320401+917701047+920291825
602+922001954+923043556+923746056+924395091+925008273+925367773+925435022
592+925542162+926056697+927013646+928181254+929352412+930438151+931297009
582+931643769+931379923+930891563+930588592+930155717+928638077+925443933
572+921125692+917167507+915076227+915455846+918011537+922326576+927844240
562+933168718+936430460+936660264+934466509+931546515+929508492+928464941
552+926842598+923098693+917178228+910029031+902729394+896680138+893658643
543+894928030+900452169+908787839+917674036+925251931+930842205+934562858
533+936582711+936923484+935900609+934640272+934744070+936645575+938415157
523+937592290+934044007+930349459+929420497+931243683+932852033+932009813
513+929061693+925646517+923660567+924840428+929224318+934066910+936287607
503+935958878+935840530+937403281+939204190+939653356+939184628+939202937
493+940183833+941577138+942875485+943932055+944624391+945027540+945867254
483+947988260+950999521+953360008+954142219+953747145+952548488+950160434
473+946958632+944911629+945182715+946158738+944514397+937345569+925139918
463+913155230+907600738+909999723+917026951+924714700+930596946+933837803
453+935828208+939213031+944394865+948488872+949168120+947156343+944419927
443+942738062+944532079+951045955+959275530+964125850+963482246+959946494
433+956819042+954618744+953131457+953505089+956542108+960750216+963243392
424+962176171+957749328+951170778+945655759+946723259+954230353+962586630
414+968160544+970682819+972599361+976323983+981165949+984287831+984365105
404+982576797+980390352+978706329+979398247+985090579+994376793+1002638948
394+1008831544+1013611064+1016141693+1015652568+1013523417+1012381149
385+1013744101+1017074763+1021218337+1026181018+1032807186+1041401133
377+1049407447+1049790825+1041009888
##END=
