##TITLE=JB-211 F2
##JCAMP-DX=5.0
##DATA TYPE=LINK
##BLOCKS=1


$$ === CHEMSPECTRA SPECTRUM ORIG ===
##TITLE=JB-211 F2
##JCAMP-DX=5.00
##DATA TYPE=INFRARED SPECTRUM
##DATA CLASS=XYDATA
##$CSCATEGORY=SPECTRUM
##ORIGIN=Lara
##OWNER=
##XUNITS=1/CM
##YUNITS=TRANSMITTANCE
##XFACTOR=1
##YFACTOR=9.1047792e-010
##FIRSTX=3997.453
##LASTX=373.96442
##MAXX=3997.453
##MAXY=0.9776182216220481
##MINX=373.96442
##MINY=0.7094895868355592
##NPOINTS=2559
##XYDATA= (X++(Y..Y))
2559A057635544A057019058A056733040A057102984A057927977A058651171A058818697
2552A058469571A058038875A057883984A057992918A058099103A057980218A057636460
2545A057268938A057168580A057546707A058254518A058746554A058589634A057982051
2538A057522354A057494794A057613940A057490669A057166224A057005768A057109334
2531A057204259A057171592A057180560A057234438A057121118A056873398A056778604
2524A056919289A057147697A057428608A057799992A058156647A058321685A058200247
2517A057775312A057187434A056788686A056879682A057385663A057921103A058183684
2510A058137073A057851644A057385401A056869601A056568264A056662665A056987111
2503A057152214A057019058A056817425A056710586A056675103A056763089A057095325
2496A057648768A058230295A058551599A058356185A057780811A057389656A057490669
2489A057763790A057776163A057539179A057468411A057970398A058873164A059483824
2482A059572660A059465362A059274466A058846585A058365088A058280573A058615362
2475A058775883A058304795A057382913A056661945A056797131A057818257A059029168
2468A059670072A059642708A059231586A058575690A057815508A057263767A057118107
2461A057345336A057865981A058599257A059251749A059281994A058755654A058366070
2454A058345383A058451568A058312389A057752661A057035686A056661356A056864167
2447A057385008A057589260A057076078A056241920A055864447A056345486A057389067
2440A058363844A058817126A058605346A057912724A057148482A056693303A056673074
2433A056962038A057551486A058403713A058928220A058529930A057492437A056545024
2426A056169385A056353211A056710586A056971923A057171395A057293357A057225731
2419A057133295A057292375A057602549A057728504A057576167A057330869A057167533
2412A057124980A057105733A056989860A056830452A056823186A057070448A057560259
2405A058216220A058832117A059215874A059344775A059220064A058871265A058563121
2398A058606459A058837551A058848418A058599126A058294648A057979040A057651255
2391A057521831A057742579A057993115A057863297A057408052A057027634A056922824
2384A056917521A057081381A057699307A058502827A058558145A057601698A056479886
2377A055718460A055393491A055548840A056099009A056691011A057067044A057173752
2370A056855395A056008078A055043841A054854319A055843106A057249954A058063294
2363A058116255A057911742A057806146A057791286A057839206A058057860A058420145
2356A058631139A058621908A058625509A058693789A058635722A058384924A058183357
2349A058205288A058253732A058136091A057983819A058025455A058210198A058199854
2342A057820614A057455187A057422651A057320001A056813759A056256650A056198058
2335A056597200A056883283A056771337A056543453A056452718A056343784A056151316
2328A056130040A056583648A057381211A058023622A058177858A057890204A057450146
2321A057128188A057145929A057618523A058169609A058142703A057510571A056782859
2314A056445124A056817949A057654267A058101460A057753905A057043083A056709735
2307A057110578A057949384A058683838A059039184A059057907A058873033A058571107
2300A058222309A057921758A057776883A057816752A057876325A057638031A056931662
2293A056119238A055923104A056550261A057514891A058422305A059018693A059043897
2286A058694575A058610125A059004356A059346805A059217707A058840693A058630222
2279A058707536A058864588A058905766A058911854A059069232A059294956A059244155
2272A058760170A058062246A057518492A057297023A057217483A057006292A056574811
2265A056116292A055975542A056239367A056581750A056666397A056496842A056288662
2258A056203034A056243491A056239629A055971418A055491885A055144723A055180467
2251A055584976A056064444A056192166A055772731A055005216A054230894A053680986
2244A053414542A053320141A053223187A053076087A052974027A052939396A052889577
2237A052856058A052967415A053204595A053390386A053449239A053500367A053625668
2230A053699054A053501742A052968528A052330373A051935945A051891494A051959578
2223A051905962A051810448A051879317A052053717A052019151A051607636A051012361
2216A050522812A050203997A049977749A049888389A050013493A050164914A050020170
2209A049628033A049404666A049491538A049527479A049143853A048394996A047581001
2202A046886481A046336965A045946269A045770168A045847089A046142992A046582918
2195A047114692A047657072A048007704A047968424A047626958A047363526A047425587
2188A047594683A047481625A047085888A046847463A047142450A047864138A048543078
2181A048810111A048731749A048662683A048780259A048911713A048889978A048848277
2174A048979928A049174425A049103395A048599706A047887444A047432133A047542311
2167A048098569A048674009A048917016A048833089A048705956A048741372A048790799
2160A048567693A048182954A048174574A048832958A049828030A050673906A051193765
2153A051399130A051365808A051344532A051559650A051874604A052014961A051973194
2146A051873491A051675917A051345448A051076779A051029644A050995471A050608441
2139A049886556A049347122A049403226A049808456A049974803A049767016A049591307
2132A049731534A049994115A050064948A049950973A049963870A050299117A050674233
2125A050574006A049900238A049100580A048641800A048649197A048985165A049339201
2118A049357597A049002579A048642585A048590082A048800226A049148501A049653958
2111A050234569A050581207A050538066A050387561A050500292A050853935A051135043
2104A051210393A051244174A051379621A051516509A051418900A050996519A050474761
2097A050226320A050380818A050728635A051050855A051353304A051717356A052134173
2090A052553020A052917203A053117330A053048788A052747713A052423137A052346281
2083A052623329A053005515A053100440A052889838A052775274A052941752A053062077
2076A052875305A052601202A052501433A052487882A052434135A052434331A052555442
2069A052688598A052753409A052784112A052806959A052785683A052659663A052421238
2062A052225301A052299669A052590728A052717141A052475378A052154075A052110017
2055A052281405A052386607A052403039A052516228A052715046A052757337A052533708
2048A052225497A052062620A052051884A052012735A051859154A051788321A052066613
2041A052642118A053156937A053385214A053454869A053576765A053730149A053751361
2034A053625864A053511889A053447799A053243809A052787778A052273418A051971034
2027A051967761A052243631A052755700A053321254A053686419A053830377A053962223
2020A054145462A054197768A054060029A053952928A053972306A053826188A053276738
2013A052608338A052313221A052529714A053099065A053884910A054719330A055308255
2006A055477941A055320890A055026885A054790359A054771833A054864401A054718282
1999A054275083A053942650A054006021A054241499A054352332A054378059A054441036
1992A054452101A054298126A054060684A053882750A053809494A053848380A054034891
1985A054334263A054572557A054574324A054370531A054189127A054161042A054148735
1978A054019047A053930343A054091584A054378583A054516977A054488958A054435080
1971A054318813A054019703A053641510A053432283A053481317A053650217A053711362
1964A053493885A053048592A052685587A052683819A052981883A053295854A053462790
1957A053503444A053486030A053502658A053661804A053935973A054061404A053736500
1950A052996743A052312304A052104321A052211946A052180326A052008022A052100262
1943A052509551A052790528A052664049A052309358A051983210A051787273A051784393
1936A051972474A052147463A052053651A051691039A051337003A051242079A051383942
1929A051539094A051520306A051289934A050895047A050399607A049889567A049456515
1922A049121725A048838065A048609067A048530182A048613650A048684025A048584518
1915A048401346A048267731A048023088A047324312A046115824A044765669A043691777
1908A043031495A042664301A042377039A041998061A041491884A040970519A040621065
1901A040610526A040981517A041627266A042451408A043463369A044585509A045508307
1894A045945483A045926564A045707452A045496065A045345756A045205857A044979217
1887A044587276A044053735A043505071A043016176A042521194A041994395A041620916
1880A041622422A042016653A042671567A043430047A044132162A044708322A045262747
1873A045942210A046767989A047637629A048383867A048849914A049034788A049134687
1866A049329512A049539524A049479558A048990795A048260203A047658447A047421332
1859A047496813A047608104A047518547A047327651A047344344A047622441A047906691
1852A048029307A048005543A047785776A047281432A046568843A045813833A045062161
1845A044211637A043149660A041934036A040780015A039760394A038654883A037296676
1838A035875033A034667330A033589380A032230845A030323516A028047355A025781997
1831A023673951A021623122A019587546A017654489A015943097A014666721A014104702
1824A014275370A014827831A015402812A015907614A016424790A017140783A018320466
1817A020010582A021798568A023148527A023902817A024203368A024090702A023500272
1810A022547360A021466005A020280823A018839213A017239504A015913310A015116991
1803A014622597A014124603A013672501A013469231A013562912A013980384A014890546
1796A016397491A018307504A020208091A021746654A022851511A023710742A024527552
1789A025338208A026050142A026570525A026900405A027151857A027456990A027899731
1782A028550325A029415971A030342239A031186544A032050816A033055053A033980993
1775A034509559A034722910A035006375A035535596A036186320A036832789A037412549
1768A037790152A037872311A037832312A038004224A038571153A039413625A040173021
1761A040477762A040255900A039776564A039268554A038627256A037645736A036398362
1754A035242508A034510672A034274932A034376796A034651880A035099663A035808978
1747A036772430A037847893A038848725A039606420A040003008A040085625A040141074
1740A040505192A041240301A042139531A043061151A044091181A045315184A046570414
1733A047526010A048023088A048289924A048723042A049453241A050239151A050744870
1726A050796653A050471946A050071364A049901547A050026717A050331392A050724249
1719A051102900A051295105A051247250A051139298A051175959A051370652A051605803
1712A051788386A051894374A051935486A051941575A051960429A052030280A052151391
1705A052306020A052469552A052588698A052645915A052758253A053057691A053443674
1698A053646486A053583639A053464689A053463314A053496374A053444329A053401842
1691A053504295A053638630A053592018A053407865A053340697A053488452A053702393
1684A053840983A053901931A053907037A053825337A053642034A053435818A053369502
1677A053552870A053845500A053906055A053593721A053201126A053105219A053311762
1670A053542658A053634244A053619645A053516668A053275690A052936908A052674000
1663A052627454A052767418A052949674A053069671A053135660A053213760A053321123
1656A053393986A053383250A053373037A053525571A053852177A054103106A053995219
1649A053570088A053197918A053161716A053345345A053428159A053302597A053201911
1642A053419714A053942650A054407912A054477436A054197114A053899836A053826319
1635A053965563A054178194A054324574A054291776A054029588A053623638A053294086
1628A053263056A053580235A054043859A054285099A054002485A053224955A052365462
1621A051938760A052150605A052731609A053193204A053282826A053148688A053060703
1614A053110849A053234709A053338930A053355100A053319749A053382857A053598107
1607A053807726A053857873A053766287A053623180A053518174A053563214A053773030
1600A053983239A054078294A054187556A054452493A054751735A054894973A054958147
1593A055132350A055334376A055320170A055161089A055194738A055474537A055699082
1586A055729393A055735677A055783140A055728214A055568807A055484029A055495420
1579A055453915A055371036A055457908A055794792A056167093A056288793A056140842
1572A056061825A056409838A057089498A057602615A057679209A057596003A057681108
1565A057820941A057762284A057602615A057617214A057817341A058008106A058111083
1558A058198676A058342961A058545576A058690189A058591205A058235991A057903297
1551A057892298A058196057A058542106A058672120A058518211A058197694A057926340
1544A057872528A057976749A057981855A057778716A057635020A057895899A058520699
1537A059083438A059199312A058853132A058346693A057997501A057911283A058006993
1530A058150559A058244894A058349508A058723249A059543528A060570874A061286801
1523A061362152A060880066A060208786A059757599A059708238A059864504A059856059
1516A059512170A059003702A058668323A058712054A058999446A059208149A059254695
1509A059371158A059677797A059983061A060134155A060223843A060338930A060451531
1502A060618140A060934860A061287522A061457404A061457862A061476520A061548466
1495A061516323A061265525A060809167A060223057A059630924A059165139A058865046
1488A058739418A058923507A059483562A060063518A060130751A059698091A059391976
1481A059625032A060069279A060169441A059876157A059564411A059422875A059318720
1474A059241864A059446770A059988888A060495130A060608189A060376769A060069214
1467A059880019A059852655A059838056A059581105A059069625A058694051A058862428
1460A059564804A060393790A060866253A060702524A060012193A059336396A059294629
1453A059955239A060683343A060832538A060433593A059982865A059811019A059905682
1446A060054157A059985353A059640744A059348834A059446116A059801068A059993667
1439A059891410A059807549A060102601A060753718A061360646A061530136A061151811
1432A060361385A059455215A058790940A058529864A058537327A058656147A058889792
1425A059208084A059457245A059565131A059596620A059569583A059435576A059236038
1418A059097251A059072636A059083962A058989561A058729533A058494971A058642857
1411A059230342A059719106A059409521A058220279A056921515A056547119A057441963
1404A058823476A059470076A058930642A057871742A057233128A057300427A057696492
1397A058033769A058276776A058519783A058705507A058624331A058202014A057797243
1390A057876063A058335563A058533727A058111803A057482617A057277907A057617803
1383A058137531A058434416A058277823A057639275A056732320A055952367A055669296
1376A055982678A056560343A056809504A056447153A055892139A055840880A056429020
1369A057095783A057359673A057394239A057686934A058356840A058955388A058944456
1362A058337920A057658849A057235289A056909665A056527348A056223328A056097635
1355A056020844A055845528A055564093A055330775A055417189A055980452A056857555
1348A057690469A058183553A058280573A058239133A058387019A058753755A059145630
1341A059460714A059636554A059565131A059345954A059329195A059678124A060130293
1334A060386000A060603083A061192597A061983155A062055691A060932373A059453513
1327A058830939A059243239A059870527A059934486A059405396A058861446A058777257
1320A059043046A059253386A059212012A059059871A059144386A059640351A060133304
1313A059974420A059182553A058534774A058810448A060264824A062406650A064028158
1306A064037061A062507270A060608385A059570434A059779726A060551954A060819445
1299A060218474A059268770A058570584A058388132A058840300A059819464A060772179
1292A061072468A060750052A060642165A061525226A063173706A064680715A065599389
1285A066168413A066601465A066836485A066782411A066321208A065407641A064392603
1278A063857359A064027831A064631224A065226826A065431667A065015308A064156142
1271A063534812A063728458A064349068A064304094A063225489A061989571A061456815
1264A061568564A062153954A063578019A065982884A068691181A070943643A072559259
1257A073589551A073741823A072522533A070259727A068378519A067817940A067723015
1250A066713476A064895572A063536252A063165392A063101956A062820848A062808017
1243A063612716A064755804A065226106A064681566A063647805A062804678A062473882
1236A062637611A063094165A063564599A063780307A063593207A063074984A062448482
1229A061860997A061344869A061029719A061126019A061586043A062081353A062441477
1222A062787068A063071056A062895020A062153757A061509907A061674552A062403835
1215A062843826A062723632A062531950A062646318A062907262A062992629A062824580
1208A062649395A062908310A063879224A065238544A066132079A065908908A064769748
1201A063568592A062986737A063003038A063092398A062788311A062022695A061084056
1194A060380697A060255462A060851916A061947477A063018815A063700963A064025932
1187A064111102A064042888A064166093A064813151A065508523A065231016A063944362
1180A063002187A063668950A065769206A067908740A068880048A068733668A068452494
1173A068753438A069493457A070068634A069880291A068715534A067247018A066679107
1166A067317131A068011586A067584033A066390340A065757749A065972868A065812609
1159A064515023A062978030A062333198A062606515A063307517A064097420A064433257
1152A063803350A062534045A061479073A061097018A061190829A061234822A060960588
1145A060844387A061602868A063015542A064004394A064028354A063430133A062689852
1138A062235916A062458564A063331477A064556855A066082326A067633917A068236721
1131A067441777A066060788A064912659A064168974A064036996A064663105A065498245
1124A065924293A065902558A065354680A064096765A062746349A062336144A062838458
1117A063195571A062761340A061969342A061571182A061657531A061685747A061347029
1110A060945531A060740429A060560923A060421351A060769626A061709183A062643503
1103A063010959A062941697A062804285A062471722A061629905A060634440A060325379
1096A060899575A061549121A061511347A061070635A061039670A061589905A062029701
1089A061766072A061043271A060512610A060486816A060719218A060836663A060813488
1082A060845173A060996398A061202286A061410334A061508925A061360581A061082288
1075A061027428A061339305A061821194A062270547A062587596A062652013A062407697
1068A061932354A061311613A060650087A060191110A060168393A060477848A060733227
1061A060721182A060588942A060525375A060520204A060479812A060306656A059879495
1054A059238263A058682791A058478932A058553170A058607702A058515069A058437820
1047A058548522A058761284A058812478A058616933A058432583A058559324A058940069
1040A059217773A059165663A058956239A058854572A058868516A058892673A058886126
1033A058848287A058738633A058524234A058300801A058271277A058443123A058491240
1026A058190100A057759142A057587558A057735837A058024473A058420603A058943670
1019A059351256A059369718A059135483A058982687A058877092A058487574A057788012
1012A057087665A056572191A056159696A055701112A055163249A054677628A054405751
1005A054344018A054306833A054056560A053474705A052722247A052093388A051713297
998A051461453A051030364A050171591A049006572A047944333A047243462A046764126
991A046231501A045559369A044862885A044309115A043915734A043531911A042998501
984A042139662A040717823A038550466A035780043A032927395A030190622A027069239
977A023207249A019124772A015668994A013232902A011813092A011286228A011531722
970A012449086A013867456A015431289A016644753A017117346A016805928A016037170
963A015296824A015073195A015528374A016047186A016136088A016011835A015879399
956A015617538A014821152A012983872A009882849A005343949I98264670I86768910
949I71111395I55343047I42505054I32665827I25075003I18741569I12325126
942I04520754H95254675H86167708H78449227H71691971H65846188H62549490
935H62929451H66348241H70814868H74671949H77719617H79809856H80133778
928H77953000H72430616H62859665H51645864H42182538H34884409H29931047
921H28999739H34092148H44543083H57174664H71174927H88006430I05985342
914I20603989I31224675I40443620I50026223I59431024I67313823I73526735
907I78592434I83080468I88082208I94205498I98854512A000795621A001895633
900A003467388A005288500A006430475A006886702A007132917A007427902A007964129
893A009104730A011145477A013438659A014994309A015988268A017018559A018252513
886A019430233A020296600A020892137A021395695A021850679A022120199A022092704
879A021774935A021227450A020514272A019669115A018620363A017120947A014807864
872A011421675A006913347A001309327I94567717I86586721I77362212I67266099
865I57268969I48799012I43087368I40387909I39973383I40964985I42899220
858I45662376I49327251I54076426I60037494I66973993I74125218I80809938
851I87273647I94159738A000588489A004990371A007671434A009572872A010682376
844A010423592A009009085A007459850A006783660A007495856A010018231A015218331
837A021764003A025806677A027630473A028985799A030321487A031533248A032617679
830A033586696A034360757A034897441A035223523A035421686A035730289A036406610
823A037218641A037854308A038434789A039215396A040186835A040980928A041416795
816A041701373A042060711A042428102A042622730A042748293A043057943A043471029
809A043699371A043715476A043679143A043696687A043768961A043843526A043874491
802A043921560A044156908A044500731A044639190A044595525A044526197A044519454
795A044632775A044831985A044899349A044696276A044372092A044142244A044073636
788A044014586A043781727A043391423A042897357A042193409A041101318A039551429
781A037518014A034848407A031284611A026411838A019767510A012074036A005415502
774A000937812I98647576I98599066A000622662A003529187A006063935A007965897
767A009541448A011105216A012565025A013638131A014489245A015378524A016285218
760A016967235A017195315A016933520A016285545A015265728A013735609A011505536
753A008143176A002647632I94445756I85239708I77322212I71599504I68825873
746I69744939I73814651I79736766I86549143I93218217I98737263A003066610
739A006762318A009763899A011661278A012681553A013253327A013517741A013501244
732A013344192A013263867A013377645A013597543A013722189A013683761A013593288
725A013533845A013405468A012981777A012088635A010710395A008979495A007100184
718A005427090A004645958A005479985A007867240A010934679A013818095A016018316
711A017348962A017857824A017761852A017431514A017313349A017641330A018314247
704A019160451A020079975A020949419A021631959A022072148A022309001A022436985
697A022528506A022561566A022464677A022246612A022046354A021993589A022047795
690A022055192A021940039A021764330A021612582A021507379A021432683A021354780
683A021172328A020706608A019833040A018585928A017061635A015296169A013281215
676A011007477A008405954A005303360A001586179I97413622I93178022I89280942
669I86038711I83733746I82581034I82611803I83657217I85391129I87367590
662I89108441I90192873I90347698I89581296I88183548I86479358I84590227
655I82396619I79651531I76175327I72026992I67423804I62466646I57105699
648I51552349I46698299I43871445I43853245I46055954I48810862I50480094
641I50277348I48185996I44373170I38807054I31283136I21669698I10317372
634H98497429H88290222H81612114H79148199H80239504H83698425H88421152
627H93009545H95228554H92602875H83846115H69769192H53094674H37454573
620H26132100H21138544H22888691H30393363H41770434H54831140H67479611
613H77875424H84554383H86635261H84069220H77814803H69744119H62144588
606H57023243H55530569H57580678H61821255H66317603H69780190H72379749
599H75439790H80281729H87047823H94338554I00091573I03068670I03644044
592I03361889I03948064I06599144I11716823I18957473I27512339I36444938
585I44923471I52376687I58581481I63564302I67405867I70173148I72011738
578I73264154I74480039I76229205I78793347I82025234I85552108I89096919
571I92544776I95717287I98219695I99652598I99949416I99378561I98218779
564I96572983I94499830I92164554I89796546I87582381I85656263I84199662
557I83545861I84090466I85978679I88906219I92281344I95494771I98032334
550I99587788A000267186A000545151A000876732A001409227A002057071A002655554
543A002994271A002899215A002389307A001589976A000414352I98531441I95844289
536I92911709I90712339I89963482I90695449I92400295I94428538I96221500
529I97319483I97352150I96091486I93506461I89794255I85364485I80752263
522I76498594I73100163I70982035I70351409I70964884I72093308I72873195
515I72770546I71690173I69734400I67015760I63658113I59790166I55481637
508I50727814I45479467I39667399I33238779I26194654I18614894I10662440
501I02567599H94670856H87513084H81676859H77328724H74057688H71457933
494H69949745H70888909H75538381H83550146H92439670H98912282I00891624
487H98305943H92328968H84371866H75674745H67305605H60215720H55239839
480H53049962H54129745H58721018H66604145H76873151H88044269H98465875
473I06759010I12218810I15079968I16331401I17037444I17585977I17477959
466I16037266I13441308I10673896I08222420I05491865I02183711H99769811
459I00742887I06435677I16005908I27370802I38658710I48852497I57607162
452I64862543I70648491I75081992I78332144I80445558I81196183I80240980
445I77585644I73885877I70148729I67138376I65170098I64342487I64696261
438I66211257I68886363I72755096I77581716I82653111I87101997I90373949
431I92256075I92644938I91546759I89288798I86587703I84301788I83038505
424I82969243I83992334I85933574I88499549I91191479I93485446I95104860
417I96030733I96236492I95480499I93371668I89581035I83970075I76595352
410I67680101I57625493I47117472I37264497I29507784I25151793I24811702
403I28211180I34442357I42450915I51379193I60547271I69269596I76900616
396I83101352I87961032I91844429I95162273I98204835A001030641A003473280
389A005294195A006322327A006467987A005691765A003992157A001307690I97349139
382I91591865I83505076I72801380I59577469I44539124I29277936I15972979
375I06128122H99255648H92988334H84727931H73206575H58678204H42285776
368H25739505H11350510H01740083G99061966H04207926H16466683H33732941
361H53096508H71638748H87251485H99105208I07481288I13197908I17098196
354I19807343I21761153I23446817I25498366I28348853I31827610I35245026
347I37770871I38614325I37062013I32639772I25280367I15258819I02989326
340H88948016H73755959H58168949H42847533H28165909H14327541H01667221
333G90887847G83056635G79249635G79989065G84960167G93233532H03685448
326H15258522H27139545H39005117H51100407H63833918H77157729H90433488
319I02905596I14118284I23887463I32193495I39177391I44978134I49522403
312I52593246I54042712I53952827I52828004I51555622I50828893I50655082
305I50719238I51105221I52319732I54670392I57913474I61543587I65158773
298I68308829I70152068I69720979I66674162I61574552I55533420I49877552
291I45849215I44029281I44038446I44942652I45606273I44642363I40754514
284I33508430I23427177I11305243H97824709H83834920H70639225H59797856
277H52534227H49142342H48780254H49860300H50932555H51490187H51979147
270H53011992H54694907H56789925H59293053H62544777H66673014H70937616
263H73673997H73269683H69745625H65401483H63464236H65921473H72656601
256H82104347H92147498I00853523I07343549I12021891I15408865I17000194
249I16008920I12994508I09996397I09005253I10428860I12823513I14167710
242I13587099I11835577I10188733I09266459I09183973I10303887I13136044
235I17610068I22968266I28442010I33663910I38344608I42064015I44654605
228I46313559I46960683I45859689I42327840I36632758I29846960I23058739
221I17177408I13189921I11852401I13136698I16653883I22495214I30919018
214I41406875I52454394I62210874I69694204I75448336I80716977I85556429
207I89038983I91487513I93718175I95878266I97473850I98014985I97502982
200I96341105I94857663I92908501I90168258I86984618I84525024I83406354
193I82501167I80177806I76701733I74435458I75421560I79336708I84027292
186I87674491I90024562I91625972I92645986I93041396I93217235I93576705
179I93819908I93454547I92545104I91316321I89637138I87483856I85331948
172I83589330I82114398I80624082I78914654I76388154I72243289I66854257
165I62444454I61466403I64190869I68239894I70397039I68629412I62821271
158I54469283I46115985I40572521I39857575I44429601I53184266I64004097
151I74369731I82033810I85756949I85478001I82012927I76943627I72403482
144I70371965I71788698I76041909I81467732I86526493I90551491I93659977
137I96115054I97765563I98198223I97470773I96347062I95479975I94736487
130I93770613I92914131I92991249I94423498I96775205I99062953A000441454
123A000719616A000327152I99851482I99521995I99042200I98084575I97071370
116I97113071I98902825A001937727A004948997A006812465A007033999A005691962
109A003158458I99961005I96719101I93945209I91839258I90126687I88206527
102I86020184I84517954I84445549I85217384I85730566I85806899I86219526
95I87559141I89602376I91736739I93570027I94947088I95634081I95501513
88I95065711I95268392I96486700I98192331I99665233A000618341A001250801
81A002060671A003416718A005018521A005983609A005685153A004356471A002822817
74A001707486A000915030I99991839I98750946I97325898I95971554I95121619
67I95271600I96493704I98180547I99295158I99031399I97779900I97228355
60I98509052A000512811A001776094A002542757A003208866A002928216A001160000
53I99063935I98173870I98901123A001119019A004738592A008889218A012154886
46A014040219A015214469A016325675A017022094A016451958A014512943A012203003
39A010579334A009802458A009504591A009511269A009780331A009961080A009383088
32A008024095A007271834A008263174A010703980A013383930A015230442A015844768
25A015199346A013841794A012810389A012178911A010754650A007867764A003795762
18I97711489I88304790I78467985I73705193I76358237I84120253I92445793
11I98060484A000402764A000805113A001409619A003607353A006531750A007833199
4A005419430I98569934I89863124I85449066
$$ === CHEMSPECTRA ===
##$OBSERVEDINTEGRALS= (X Y Z)
##$OBSERVEDMULTIPLETS=
##$OBSERVEDMULTIPLETSPEAKS=
##END=


$$ === CHEMSPECTRA PEAK TABLE EDIT ===
##TITLE=JB-211 F2
##JCAMP-DX=5.00
##DATA TYPE=INFRAREDPEAKTABLE
##DATA CLASS=PEAKTABLE
##$CSCATEGORY=EDIT_PEAK
##$CSTHRESHOLD=0.93
##MAXX=3997.453
##MAXY=0.9776182216220481
##MINX=373.96442
##MINY=0.7094895868355592
##$CSSOLVENTNAME=
##$CSSOLVENTVALUE=0
##$CSSOLVENTX=0
##NPOINTS=0
##PEAKTABLE= (XY..XY)
##END=


$$ === CHEMSPECTRA PEAK TABLE AUTO ===
##TITLE=JB-211 F2
##JCAMP-DX=5.00
##DATA TYPE=INFRAREDPEAKTABLE
##DATA CLASS=PEAKTABLE
##$CSCATEGORY=AUTO_PEAK
##$CSTHRESHOLD=0.93
##MAXX=3997.453
##MAXY=0.9776182216220481
##MINX=373.96442
##MINY=0.7094895868355592
##NPOINTS=40
##PEAKTABLE= (XY..XY)
1698.421739116497, 0.7853322655522608
1677.1737607349492, 0.7547859580452628
1592.1818472087566, 0.8558250106092034
1430.6972115089911, 0.8820945656912241
1317.3746601407347, 0.8946183360677693
1286.210958514464, 0.8593575392928504
1266.3795120250193, 0.8004450235972661
1249.381129319781, 0.7476285135729485
1229.5496828303358, 0.7789416938700143
1211.1347682329942, 0.8224910537039909
1161.556152009382, 0.8954967897478892
1128.9759184910085, 0.9013398919673175
1107.7279401094602, 0.8834835325353892
1072.3146428068803, 0.7920700343321304
1052.4831963174352, 0.776683155057839
1024.1525584753713, 0.8192205459980731
995.821920633307, 0.878012541731387
973.1574103596558, 0.8949717917906146
944.8267725175915, 0.8420206348286198
889.5820287255665, 0.7275282767547907
841.4199443940574, 0.7094895868355592
806.0066470914776, 0.8655504616967894
783.342136817826, 0.8595178161839755
762.0941584362781, 0.7727956801989917
739.4296481626266, 0.7861651215876692
721.014733565285, 0.8276292120205138
709.6824784284595, 0.8277919326343761
682.7683724784983, 0.8302214774094859
641.6889476075057, 0.8872019689740873
604.8591184128222, 0.8753939307533217
592.1103313838935, 0.855719569982244
576.5284805707583, 0.8835022483195127
555.28050218921, 0.9040263927314875
538.2821194839717, 0.9078114670491504
514.2010773182169, 0.896315935806778
497.2026946129786, 0.9059853588146011
468.8720567709147, 0.9060362618141524
458.9563335261919, 0.9079543984254216
446.20754649726314, 0.9088152689559503
393.7958664894445, 0.8865370788158385
##END=

##END=

