##TITLE=NiW-X10405
##JCAMP-DX=4.24
##DATA TYPE=INFRARED SPECTRUM
##DATE=28/3/2018
##SAMPLING PROCEDURE=Diamant-ATR
##ORIGIN=Angelika Moesle
##XUNITS=1/CM
##YUNITS=TRANSMITTANCE
##RESOLUTION=4
##FIRSTX=3997.453
##LASTX=373.96442
##DELTAX=-1.4165319
##MAXY=0.98255038
##MINY=0.15903644
##XFACTOR=1
##YFACTOR=9.1507135e-010
##NPOINTS=2559
##FIRSTY=0.96937841
##XYDATA=(X++(Y..Y))
3997+1059347349+1059494362+1059782527+1059882642+1059596952+1059176561
3989+1059126015+1059607114+1060197838+1060397742+1060211972+1060007248
3980+1059916513+1059709443+1059266449+1058859932+1058815639+1059080549
3972+1059373078+1059663978+1060131203+1060667668+1060880730+1060645847
3963+1060295738+1060223567+1060513425+1060946648+1061292263+1061607459
3955+1062156561+1062949990+1063627410+1063895708+1063771883+1063366799
3946+1062801087+1062311130+1062071362+1061962844+1061817915+1061735257
3938+1061837326+1062013651+1062201831+1062586983+1063176991+1063526188
3929+1063387577+1063109184+1063014866+1063053557+1063174971+1063499091
3921+1063995823+1064413479+1064563228+1064466891+1064288808+1064177945
3912+1064094635+1063844250+1063408682+1063108011+1063249292+1063670140
3904+1063757879+1063172171+1062401539+1062108685+1062291003+1062511360
3895+1062572262+1062562687+1062488888+1062203654+1061806256+1061697087
3887+1062092141+1062739794+1063090489+1062926931+1062525299+1062251725
3878+1062228406+1062295692+1062281818+1062231403+1062403103+1062930905
3870+1063420797+1063240759+1062425770+1061685883+1061655465+1062333797
3861+1063109249+1063448806+1063234181+1062640656+1062081784+1062188608
3853+1063186370+1064141794+1064475945+1064531572+1064508644+1064304245
3844+1063945082+1063814222+1064282033+1065213096+1065987375+1066009261
3836+1065414629+1064924345+1064895816+1064976064+1064646147+1063974914
3827+1063584029+1063868025+1064467998+1064759354+1064622437+1064465979
3819+1064581792+1064994302+1065833131+1066908537+1067499652+1067201261
3810+1066219326+1065069144+1064396087+1064582443+1065270286+1065873060
3802+1066132760+1065976236+1065490317+1064963362+1064679367+1064698191
3793+1064857971+1065000425+1065051687+1065006483+1065002835+1065294321
3785+1065925300+1066491076+1066601743+1066509054+1066755661+1067210445
3776+1067200153+1066586762+1065776528+1065048756+1064449890+1064114632
3768+1064251549+1064858101+1065657588+1066195095+1066200176+1065873190
3759+1065623847+1065557734+1065434170+1065185283+1065041070+1065239216
3751+1065708981+1065973240+1065819713+1065610364+1065816782+1066503517
3742+1067036595+1066967095+1066450561+1065777309+1065256607+1065276213
3734+1065980470+1066888084+1067416472+1067529679+1067493789+1067364884
3725+1066971068+1066373114+1065947837+1065830786+1065766692+1065598249
3717+1065452473+1065391961+1065248074+1064874581+1064446959+1064365343
3708+1064765803+1065443940+1066103513+1066487624+1066468865+1066156014
3700+1065874689+1065874428+1066125399+1066403077+1066504234+1066410177
3691+1066262968+1066218349+1066310322+1066451278+1066594448+1066730388
3683+1066821645+1066837929+1066763543+1066528595+1066101950+1065754577
3674+1065874298+1066261665+1066508077+1066645124+1066822687+1066859033
3666+1066538235+1065928231+1065248791+1064749584+1064642304+1064908908
3657+1065223778+1065274259+1065204368+1065362780+1065722529+1065875731
3649+1065546856+1065044783+1064656894+1064219958+1063536415+1062639093
3640+1061855434+1061654813+1062237721+1063283684+1064178206+1064490080
3632+1064236438+1063741204+1063435844+1063573673+1063880336+1063952898
3623+1063637767+1062986206+1062254135+1061828793+1061869048+1062199160
3615+1062717061+1063365822+1063809988+1063706095+1063236135+1062916379
3606+1062980213+1063276064+1063640698+1063985010+1064171236+1064117498
3598+1063911471+1063642783+1063285508+1062874757+1062610758+1062640265
3589+1062896057+1063158362+1063209429+1063059224+1062925824+1062961714
3581+1063144097+1063350710+1063426790+1063187803+1062540606+1061641330
3572+1060779377+1060129965+1059818352+1060107363+1061139062+1062416912
3564+1063175102+1063120452+1062457101+1061633774+1061022532+1060699520
3555+1060585922+1060647541+1060905677+1061356292+1061841104+1061979650
3547+1061451783+1060481703+1059728528+1059504002+1059566403+1059663131
3538+1059863882+1060336058+1060945150+1061279431+1061143491+1060772733
3530+1060461576+1060260760+1060149506+1060163380+1060148855+1059807409
3521+1059225413+1058931843+1059210171+1059712375+1059896125+1059609068
3513+1059139628+1058945717+1059338230+1060155694+1060825624+1060980845
3504+1060789669+1060564036+1060309026+1059848119+1059206458+1058650192
3496+1058452242+1058669863+1059142429+1059643786+1059959503+1059933122
3488+1059611608+1059243391+1058987730+1058793818+1058631302+1058595868
3479+1058722493+1058896083+1058981737+1058900382+1058659050+1058360334
3471+1058115420+1057928218+1057713658+1057392208+1056944394+1056434896
3462+1056007730+1055804699+1055818899+1055851988+1055735915+1055603166
3454+1055724255+1056037041+1056108105+1055672537+1054991078+1054521247
3445+1054336846+1054054413+1053305538+1052079146+1050616698+1049201736
3437+1048146718+1047679428+1047621652+1047368075+1046384773+1044685815
3428+1042804604+1041351276+1040528601+1040012133+1039383499+1038642831
3420+1038131639+1037996936+1037999412+1037875261+1037636470+1037447118
3411+1037406278+1037554007+1037884446+1038236704+1038381894+1038323922
3403+1038246149+1038100894+1037657835+1037042620+1036729769+1036845582
3394+1036966410+1036754781+1036318627+1035879541+1035553141+1035425669
3386+1035439803+1035318063+1034894936+1034290142+1033606859+1032827044
3377+1032096797+1031695165+1031584302+1031288061+1030380578+1029014793
3369+1027845396+1027390938+1027536844+1027685876+1027293754+1026267136
3360+1025011172+1024054706+1023537130+1023190669+1022825773+1022516635
3352+1022275630+1021890086+1021150525+1020072384+1018900967+1017937336
3343+1017239788+1016537225+1015591311+1014527304+1013620277+1012880390
3335+1012068723+1011031748+1009828154+1008578248+1007325736+1006025935
3326+1004626931+1003193469+1001889695+1000772602+999674138+998295848+996341489
3316+993653040+990380382+986963836+983820604+980989897+978052041+974514081
3306+970437115+966480197+963071403+959815093+956020886+951545675+946827049
3296+942336271+938225173+934346549+930490527+926619067+922865766+919382976
3286+916274332+913572595+911151403+908725780+906069379+903204150+900269094
3276+897195624+893673101+889543570+885055332+880568722+876161189+871662138
3267+866926967+862010456+857189174+852846647+849252669+846439224+844279098
3257+842617203+841324372+840314819+839579883+839152196+839049150+839352817
3247+840272871+841886045+843882938+845881524+847890728+850161065+852759103
3237+855595412+858668752+862011237+865527768+869060842+872548387+876040947
3227+879623851+883394739+887462911+891832861+896301363+900587287+904524664
3217+908019178+910915869+913074756+914569381+915720475+916843365+917910889
3207+918584467+918655661+918298191+917806345+917312609+916885508+916689578
3197+916827407+917146771+917457473+917905092+918862339+920470432+922574996
3187+925048168+927825332+930709256+933488244+936166987+938858562+941626086
3177+944516849+947491247+950236690+952307708+953536315+954170224+954600126
3167+955061749+955555550+955908590+955921813+955513016+954675750+953325338
3157+951386416+949039870+946618416+944221324+941720664+939215315+937221744
3148+936294980+936564450+937666757+939056512+940381586+941597361+942774444
3138+943913879+945003484+946106443+947242164+948303696+949265047+950315766
3128+951595895+952968193+954247216+955478819+956834247+958412246+960250271
3118+962328194+964494572+966521493+968284220+969849258+971427518+973210958
3108+975160497+976942243+978146229+978633060+978716109+978940569+979568226
3098+980337880+980855521+981032301+980960391+980618684+980017082+979402258
3088+979007921+978781636+978536332+978121607+977327982+975979720+974291770
3078+972813234+971835338+971070178+970004674+968375346+966201803+963602396
3068+960822952+958322488+956525760+955500640+955051914+954990490+955137177
3058+955324054+955610265+956260849+957411813+959032803+961160881+963774161
3048+966476354+968685462+970143805+971037414+971706889+972380075+973016004
3038+973269907+972740802+971324341+969205773+966565526+963503323+960178360
3029+956751132+953224050+949564154+945889017+942354313+938904679+935176715
3019+930628551+925039049+919106211+914263499+911643770+911437678+913249192
3009+916559044+920645389+924361367+926151386+924489621+919107058+912321582
2999+908454812+910826241+919092402+929828804+939572003+946953935+952221793
2989+955738258+957506000+957575176+956235576+953895934+951025494+947993971
2979+944747497+940775272+935543630+928999029+921676306+914323881+907404159
2969+900950098+894730659+888341213+881318119+873524524+865445695+858012436
2959+852280284+849291230+849870881+854175694+861272849+869185318+875620099
2949+879087777+879595191+878380067+876978588+876291592+876214275+876046679
2939+875230908+873728011+871975640+870701699+870565238+871778277+874158954
2929+877421452+881154170+884749125+887752118+890135466+891980331+893200926
2919+893849751+894354365+895164534+896403041+897992830+899876711+901997690
2910+904245359+906525987+908871686+911529325+914880083+919117284+924019009
2900+929135164+934147166+939014499+943873104+948839705+953847863+958629607
2890+962830071+966149628+968488880+970021674+971030445+971657906+971941511
2880+971988930+971869470+971422828+970527330+969555361+969195481+969738916
2870+970808068+971823939+972469117+972639840+972241921+971219080+969670067
2860+967827808+965923865+964097565+962431826+960999147+959798158+958732783
2850+957771106+956987969+956234208+954813774+951737307+946533087+939991287
2840+934040016+930561461+930159568+932183297+935853875+941057965+948055134
2830+956750611+966369530+975713832+983738597+989989041+994554010+997730527
2820+999827535+1001158992+1002049019+1002787929+1003520260+1004166219
2812+1004575798+1004767365+1004876274+1004920501+1004836605+1004679887
2803+1004560491+1004441682+1004250506+1004161725+1004524275+1005442832
2795+1006633724+1007784102+1008888819+1010126610+1011565412+1013127453
2786+1014731964+1016316802+1017764529+1018935815+1019797377+1020421712
2778+1020827578+1020966970+1020950100+1021122256+1021722099+1022530053
2769+1023036360+1022959825+1022477097+1021955614+1021611692+1021452433
2761+1021420516+1021487412+1021659958+1021953529+1022380825+1022970312
2752+1023731107+1024570848+1025361867+1026133280+1027008781+1027893076
2744+1028500214+1028796586+1029118621+1029711495+1030407349+1030887601
2735+1031069398+1031111997+1031132515+1031042692+1030728668+1030334917
2727+1030182628+1030358301+1030591295+1030625231+1030493199+1030323518
2718+1030099057+1029767838+1029453879+1029400728+1029723219+1030287237
2710+1030847738+1031261290+1031543462+1031786747+1032078559+1032449317
2701+1032831603+1033117293+1033277333+1033363183+1033380705+1033263068
2693+1032990016+1032652869+1032382096+1032281004+1032437918+1032879544
2684+1033454374+1033898476+1034110170+1034258812+1034525741+1034846344
2676+1035015569+1034999610+1035039474+1035411730+1036103676+1036784353
2667+1037148011+1037221681+1037225524+1037220899+1037104630+1036912021
2659+1036854636+1037023144+1037292419+1037548210+1037781399+1037949712
2650+1037939030+1037672686+1037179863+1036631608+1036326638+1036474824
2642+1036926937+1037257245+1037176085+1036762402+1036232581+1035623424
2633+1034877609+1034141045+1033686261+1033552145+1033529021+1033503227
2625+1033582173+1033869099+1034265195+1034544305+1034604948+1034587491
2616+1034697311+1035030224+1035645896+1036553770+1037529972+1038246866
2608+1038627329+1038792841+1038771280+1038531708+1038135482+1037690990
2599+1037350521+1037309745+1037559609+1037816834+1037904703+1037943329
2591+1038055103+1038173196+1038195147+1038105584+1037989706+1037989120
2582+1038156130+1038417589+1038769001+1039256809+1039675833+1039631084
2574+1039035149+1038258004+1037716979+1037555115+1037708642+1038022535
2565+1038223156+1038015761+1037458713+1037172372+1037837677+1039364675
2557+1040823996+1041356748+1040948862+1040173867+1039439908+1038747115
2548+1038002929+1037254575+1036584644+1035996591+1035488982+1035144474
2540+1035065007+1035199710+1035290901+1035129623+1034875395+1034891809
2531+1035256704+1035791541+1036556961+1037829666+1039500745+1040967817
2523+1041737536+1041808666+1041429375+1040777358+1039982756+1039327287
2514+1039233034+1039872154+1040793512+1041189217+1040655422+1039529536
2506+1038413485+1037569901+1036893131+1036255574+1035640424+1034986974
2497+1034127692+1032925270+1031413319+1029879677+1028855990+1028835212
2489+1029823725+1031300307+1032761842+1034177000+1035742168+1037358142
2480+1038634559+1039352690+1039669775+1039882381+1040163445+1040481963
2472+1040704796+1040864901+1041228950+1041905589+1042591477+1042968097
2463+1043115827+1043310976+1043703034+1044333361+1045209448+1046257887
2455+1047320851+1048170819+1048551998+1048447845+1048273214+1048496241
2446+1049083448+1049593989+1049772528+1049758784+1049781973+1049923189
2438+1050131431+1050257535+1050145761+1049806334+1049396625+1049024499
2429+1048713146+1048495069+1048384858+1048337764+1048327212+1048396517
2421+1048616874+1049005023+1049408545+1049573926+1049470359+1049379429
2412+1049492050+1049625580+1049508594+1049195157+1049043519+1049306671
2404+1049785686+1049951589+1049446324+1048438661+1047497046+1047130457
2395+1047369117+1047765539+1047890145+1047781302+1047815433+1048247224
2387+1048991866+1049732208+1050152014+1050162957+1049943512+1049760934
2378+1049833952+1050330879+1051263896+1052323017+1053097101+1053569015
2370+1054095710+1054791108+1055294158+1055338126+1055254555+1055678269
2361+1056859261+1058347046+1059285860+1059060618+1057754368+1056021018
2353+1054526589+1053546543+1053059582+1053030661+1053396859+1053795951
2344+1053581847+1052588644+1051578701+1051331898+1051729297+1052078559
2336+1052021239+1051763363+1051525159+1051106721+1050144784+1048690218
2327+1047347883+1046814805+1047365991+1048729756+1050335243+1051682724
2319+1052544482+1052910419+1052872705+1052634631+1052554252+1052902147
2310+1053420504+1053442064+1052725496+1051887970+1051717637+1052288820
2302+1053006821+1053317588+1053089870+1052465927+1051644359+1050797908
2293+1050020438+1049380471+1049010299+1048969719+1049107939+1049339304
2285+1049899935+1050973712+1052248370+1053121852+1053197411+1052566758
2276+1051828760+1051597786+1051820553+1052004304+1052107545+1052558421
2268+1053502120+1054646375+1055650195+1056281499+1056520355+1056608941
2259+1056737325+1056949540+1057483921+1058534053+1059569530+1059722992
2251+1058907286+1057886335+1057349088+1057346808+1057479296+1057483791
2242+1057716459+1058782093+1060525735+1061919659+1062224172+1061759553
2234+1061261714+1060950035+1060549836+1059989531+1059668407+1059947192
2225+1060667017+1061355380+1061603095+1061103888+1059804282+1058319949
2217+1057691837+1058292787+1059324747+1059812424+1059812685+1060082546
2208+1060861124+1061839736+1063043461+1064622046+1066005287+1066478896
2200+1066213334+1065675436+1064837127+1063964818+1063953549+1064910341
2191+1065760374+1065946404+1066213985+1067230702+1068531350+1069100970
2183+1068422312+1066921955+1065544185+1064871520+1064816609+1064935875
2174+1064665493+1063683232+1062246254+1060676917+1058917187+1057424712
2166+1057664154+1060343613+1063901961+1066225970+1067296621+1068828503
2157+1071404852+1073503423+1073741823+1072480453+1070978728+1069971065
2149+1069380797+1068877682+1068350336+1067948768+1067593513+1066689157
2140+1065023679+1063608260+1063517330+1064286463+1064623349+1064211621
2132+1063699907+1063522084+1063690332+1064308739+1065532461+1067000249
2123+1067797391+1067317985+1065907192+1064296689+1062787083+1061416218
2115+1060413831+1059978327+1060035192+1060495317+1061292458+1062097026
2106+1062441338+1062189585+1061701386+1061584661+1062174408+1063136867
2098+1063856887+1064188367+1064385014+1064535154+1064621200+1064768213
2089+1064949944+1064850611+1064429242+1064270244+1064985118+1066334488
2081+1067241059+1066829787+1065253937+1063359113+1061938874+1061482657
2072+1061953725+1062551354+1062431893+1061723402+1061110206+1060573936
2064+1059324291+1056907332+1053855942+1051230481+1049687264+1049083383
2055+1049093349+1049751684+1050981398+1052240359+1053288863+1054931738
2047+1058184139+1062496313+1065528292+1065413196+1063027763+1061083696
2038+1060987098+1061752974+1061908586+1061314540+1060939744+1061492167
2030+1062663128+1063712870+1064409701+1065021725+1065720250+1066469255
2021+1067023503+1066724982+1065101126+1062929472+1061797462+1062276347
2013+1063346085+1063777876+1063464308+1063128138+1063146963+1063282903
2004+1063358005+1063457925+1063550419+1063365626+1062519893+1060721406
1996+1058274158+1056245804+1055596392+1056073257+1056421022+1055956598
1987+1055298262+1055259245+1055777277+1056506285+1057759318+1059833724
1979+1061870155+1062567833+1061773622+1060236594+1058443709+1056760188
1970+1055865797+1056197343+1057228846+1057791691+1057430248+1056981131
1962+1057342965+1058221332+1058632410+1058195994+1057363027+1056883231
1953+1057377813+1058838697+1060379243+1060925414+1060195623+1058841824
1945+1057732612+1057162407+1056723386+1056108692+1055778384+1056300714
1936+1057339318+1057811558+1057153092+1055993986+1055303343+1055247521
1928+1055296503+1055167533+1055033938+1054877610+1054340298+1053445125
1919+1052855053+1053047141+1053574161+1053622818+1053006951+1052100445
1911+1051363425+1051208465+1051789809+1052706020+1053306580+1053290817
1902+1052740217+1051855011+1050919193+1050215978+1049801058+1049565524
1894+1049474202+1049556926+1049784578+1050057045+1050291797+1050565241
1885+1051043474+1051670934+1052147148+1052279962+1052125393+1051811369
1877+1051461585+1051180065+1050963355+1050742933+1050496261+1050229201
1868+1049962271+1049760934+1049592946+1049287977+1048793460+1048336657
1860+1048169321+1048173945+1047908449+1047011257+1045303375+1042507581
1851+1038252532+1032630592+1026717751+1022410006+1021668752+1025150890
1843+1030756612+1035600756+1039030394+1041620616+1043533874+1044683600
1834+1045302789+1045727219+1046020464+1046043131+1045785646+1045438989
1826+1045062109+1044559124+1044000708+1043540843+1043099022+1042501328
1817+1041776944+1041074576+1040396634+1039513968+1038121803+1036247237
1809+1034414032+1033063881+1032104874+1031153619+1029806790+1027742089
1800+1024986615+1021980431+1019060943+1016153831+1012945787+1009050879
1792+1004418103+999779269+995861758+992614698+989677493+986914658+984502454
1782+982721750+981763134+981650252+982193752+983026198+983828355+984629536
1772+985750993+987217218+988650028+989735008+990315375+990482321+990623537
1762+991113429+991965221+992925530+993767681+994337431+994651064+994871486
1752+995048462+995137699+995191437+995309660+995520312+995746140+995746466
1742+995297349+994460474+993500946+992559071+991412211+989450101+986328689
1732+983171518+981307634+980829661+981400258+982487453+983494074+984217677
1723+984818171+985416972+986074591+986951070+988083470+989235215+990246461
1713+991034353+991520338+991744994+991685719+991019893+989408348+986898635
1703+983483653+978753627+973019326+967966288+964294017+961327891+958722752
1693+956578846+954829993+953262350+951755285+950113516+947618263+943458835
1683+938199249+932549430+925859053+917042097+904048907+884460505+860073033
1673+836457820+814598105+790601452+763317029+736230101+709731095+679779133
1663+643770248+605387589+570643331+541167615+516496245+497880724+491774785
1653+509593198+542503469+571318277+599835410+637655223+681600613+717364129
1643+742217523+762018922+779501523+794494863+807259879+818320010+825609969
1633+827289973+825004980+820282837+813342336+804835690+796587767+790537814
1623+788234583+789871140+793637274+797954007+802301160+805829284+808187294
1613+811126128+816518201+824645231+834005297+842164243+847383184+849187533
1604+847362144+840811812+827074761+802508424+763945272+712530732+657649491
1594+615334601+599240061+612537244+647839788+692954576+737384973+775503177
1584+805992972+829653845+847538730+860943323+872080120+882853389+892185120
1574+897958373+900819824+902315882+903025806+902520541+900274045+896416915
1564+891623447+886296901+879082240+865955129+846323997+827957493+811370195
1554+792684977+771125476+747181519+721327366+695300275+670392687+645488682
1544+619837104+594703687+569954512+546014137+528329483+517723126+510401283
1534+504386894+499952882+497682904+497210142+498068252+500269055+503674430
1524+507744816+512532618+518333945+524064956+528808660+533287649+537703944
1514+541073298+543003947+543824538+543485697+540782886+532114734+515057182
1504+493901170+470578714+442934379+409935098+373617531+339014684+312722129
1494+297671534+291650469+292595894+300757479+315809735+334969961+356022895
1485+378967331+404941954+434279189+464743712+493196848+518192826+538547853
1475+550700130+549496861+533977022+510898242+487031733+465221065+448534694
1465+441397546+444183471+452058455+461254637+470091655+475534307+475230152
1455+474090098+476973598+482661262+485989612+481090590+466285397+446562358
1445+428941440+418223211+417835127+429208304+451043301+481090493+513720709
1435+539038006+553698303+561570127+564503359+559728585+543231860+512268749
1425+466970504+415504865+372697834+349821760+351260920+372987953+402436702
1415+431152013+458427805+484893819+510098300+533191898+553912733+573262409
1405+592261976+610013070+625303042+639043870+652792710+666543439+679437557
1395+691313328+701988958+710632391+716920353+721448129+724830022+727014118
1385+727706259+727030402+725119489+721594361+715607069+705815994+689708623
1375+663080973+622965941+573524258+524810119+485616770+461610185+455215463
1366+465366580+490286381+527257888+568869922+606783923+638519325+665655888
1356+689603362+710729705+729177174+745348966+759795419+772967148+785060541
1346+795952034+805387527+813404932+820451215+826947224+832771935+837422624
1336+840693263+842760308+843705961+843324326+841256695+837022099+830015093
1326+819657851+805517540+787443304+765888492+742212247+718736688+698196118
1316+682560531+672341575+666850298+664614810+663775134+662508422+659016579
1306+651303232+637853629+619424333+600334031+587340906+586255078+598862790
1296+622505490+652167334+682993625+711496688+735514771+753813272+765814367
1286+771603904+772082723+768908747+764078020+759110572+754031676+746800665
1276+733375294+708104243+665706890+606431924+540610762+484762895+450177896
1266+436309009+435537759+441731860+453217333+470122237+491630573+515814005
1256+540735011+565122743+588409211+610598779+632042727+652984733+673174737
1247+691887768+708142739+720893556+729313570+733058860+732172220+726689086
1237+716121192+698858883+671962349+632052693+577104492+508030082+429274809
1227+348496002+275390938+219202569+185380889+173796767+180009041+198006856
1217+222279362+248814958+275473727+301734137+327760609+353386523+377556406
1207+397985038+411043593+412935160+402452237+383274196+363343794+351220666
1197+351814940+364516937+384925051+408180741+430867920+450831216+466301779
1187+475047835+473666873+458192988+427160181+385504408+345079782+319204134
1177+314603600+327938008+349847619+371850049+389815637+402741639+409795771
1167+408740395+397443199+377680133+356921845+344494627+345116519+356563952
1157+373129234+390087257+405152443+417622651+427570998+435824555+443969107
1147+453651501+465537955+478978536+492649049+505362217+516381605+525371629
1137+532414656+538251482+544400541+552643481+564012359+578085124+593029676
1128+605881911+612732524+609968517+597297362+579545421+563285956+551062485
1118+541219236+534176471+535636605+551094076+579003094+611653405+641739419
1108+666429581+686251041+702501192+716188999+728077082+738693698+748288385
1098+757024312+765189316+773041860+780497852+787255775+793278502+798875365
1088+804245878+809226288+813575069+817325179+820780871+824263856+827858159
1078+831353260+834478253+837246494+840001577+843043522+846296965+849454397
1068+852299434+854673989+856199749+856234011+854128796+849433423+841817260
1058+830938209+816658636+799472667+780469909+760635095+740092506+717734561
1048+691070304+656206976+608612307+545387653+468392795+385885327+310674104
1038+255314907+227217563+226588279+247913858+283211435+324702803+365840317
1028+400966276+424899127+434160934+429455172+415974923+400000853+385560588
1018+374538432+368034151+366096076+367573179+372052298+381285770+397422942
1009+420265276+447089118+474701080+501009593+525140394+546973600+566729272
999+584664377+600954196+615726528+629114185+641321242+652627459+663241339
989+673199098+682473314+691105999+699223062+706974319+714406601+721326780
979+727264959+731459496+732428598+726795584+708971342+675201072+631004775
969+592646087+576370272+585167167+608047312+631018259+645816775+649929696
959+643729863+629748486+612482269+596706508+585598566+580531655+582100209
949+590566796+605310923+624578528+646075107+667575008+687279027+704264766
939+718604981+730779079+741114044+749842284+757316319+763893228+769626161
929+774147684+777074402+778840647+781010412+785228333+791708384+799133697
919+806049706+811874808+816667429+820665580+824194876+827530978+830750485
909+833844344+836823106+839691332+842489340+845245595+847835753+850138332
899+852292465+854552966+856984776+859451955+861767366+863784842+865381796
890+866432841+866957842+867194613+867221971+866655152+865025499+862291195
880+858860775+855348349+852241853+849634761+847416143+845668918+844660864
870+844597747+845506077+847217541+849462214+851904185+853935145+854668518
860+853180537+848051876+835450092+806401183+747893006+654670599+546059993
850+464803930+447716220+495552644+575980625+653666779+712577174+754119936
840+784538797+807689781+825140986+838104864+848025496+856141517+863093873
830+868940535+873368847+875933145+876328134+874283235+868837033+857720624
820+836259609+795090016+722951091+620501693+511048773+426523373+379783851
810+359652926+353582845+363220653+394621612+443843360+497975986+545422990
800+581669591+607615326+625685655+638289523+648376383+659212770+672735130
790+688525938+704631550+719286180+731893957+742754314+752500379+761892296
781+771484704+781252525+790866232+800199397+809237036+817717692+825149063
771+831146255+835730635+839250552+841975151+843950159+845293145+846350768
761+847438094+848543006+849345228+849524550+848997920+847772375+845683248
751+842502172+838267120+833316933+827943032+822078588+815363395+807334135
741+797348628+784486948+767744886+746092174+718245558+682875141+639401405
731+588837354+534831321+484674472+447893164+431114527+433444399+447636265
721+465329615+480853005+491753388+497562271+498496525+494938666+487471079
711+476832643+463965948+450436618+438455586+429916502+425365212+424176729
701+425686661+429718161+436048039+444007081+452790655+461813541+470681695
691+478997751+486401015+492980562+499396387+506176262+513111617+519688330
681+525891517+532362514+539815998+548396118+557689093+567130709+576227623
671+585107567+595214944+607693751+618159706+619059829+607651998+584541790
662+555597361+533896872+530616071+545736655+570765723+597314297+621479133
652+642484256+660538365+676164833+690043816+702797564+714733913+725816451
642+735893345+744744563+752040971+757500135+760707266+760485150+754598625
632+739861597+712329916+668519098+608846278+541761238+483256285+448801201
622+444268149+464458771+498826442+537675283+574731631+607025580+633835547
612+655355901+671730007+682694778+687355954+683938887+670396465+646658145
602+617012976+589537507+572023315+567751917+574669165+587708927+601610382
592+612869506+620570021+625963658+631230409+638106164+646875375+656524973
582+665973429+674733717+682680057+690001282+697129637+704261640+711290466
572+718139059+724573514+730062446+734465290+738477444+742976625+748319195
562+754277175+760210209+765442828+769836162+773844864+777845685+781757985
552+785553625+789627139+794160191+798477771+801591431+803167998+803543054
543+803052445+801690569+799050908+794051543+784571365+767365530+738609802
533+695861622+641395888+583631636+533912472+501861092+492025529+501701279
523+523210918+549376619+575999710+601319873+624847542+646316373+665381728
513+681761370+695334537+706496867+716039837+724111174+730067396+733823694
503+736380762+738679824+740517327+740890300+739104449+735267838+729674231
493+722066015+712241135+701042263+689584473+677867569+665258424+652339229
483+641459266+634824256+632758253+634271897+638249008+643942013+651267602
473+660247660+669535750+676911299+681187712+681275582+674732609+659956044
463+639586263+620407375+609608442+611434156+625397490+645685850+665803683
453+683089180+697097524+707877959+716161577+722661624+727107067+728821528
443+728200841+727007213+726464104+725859115+724391001+723408025+725486599
433+731583972+740389008+750000306+759681364+770525633+783778392+797978043
424+809193199+815351279+817951467+818933858+818553004+817011416+815075035
414+812831013+810066160+807178980+804992213+804102382+804705677+806269086
404+807532932+807868190+808320824+810774455+815989618+821825923+824948768
394+824517563+822063867+819513313+818279821+819450782+823622847+829913089
384+836093251+840671768+843245836+843277428+840760940+838012305+839991156
374+848172183
##END=
