##TITLE=YM- 188 F1
##JCAMP-DX=4.24
##DATA TYPE=INFRARED SPECTRUM
##DATE=18/4/2019
##SAMPLING PROCEDURE=Diamant-ATR
##ORIGIN=Rieke
##XUNITS=1/CM
##YUNITS=TRANSMITTANCE
##RESOLUTION=4
##FIRSTX=3997.453
##LASTX=373.96442
##DELTAX=-1.4165319
##MAXY=1.0004041
##MINY=0.37194854
##XFACTOR=1
##YFACTOR=9.3169894e-010
##NPOINTS=2559
##FIRSTY=1.0000657
##XYDATA=(X++(Y..Y))
3997+1073378578+1073516378+1073319594+1072861027+1072205932+1071593379
3989+1071348230+1071578729+1072201901+1073042522+1073698704+1073741823
3980+1073257795+1072757645+1072476798+1072270929+1072157951+1072386019
3972+1072906193+1073292341+1073308078+1073155308+1073025888+1072782211
3963+1072311297+1071821063+1071539641+1071448414+1071481424+1071611292
3955+1071688765+1071587174+1071469973+1071621144+1072055976+1072428114
3946+1072365867+1071952722+1071768988+1072237087+1072984497+1073308078
3938+1073046040+1072530537+1072072610+1071808268+1071820168+1072035313
3929+1072108883+1071796945+1071310230+1071050814+1071070774+1071054781
3921+1070845777+1070568066+1070347483+1070246595+1070302189+1070408578
3912+1070380749+1070167076+1069883606+1069704095+1069775106+1070141614
3904+1070643491+1071019979+1071201410+1071303512+1071329038+1071133597
3895+1070734270+1070493536+1070823962+1071447710+1071411373+1070526418
3887+1069699105+1069661936+1069960183+1069919112+1069945981+1070506395
3878+1070924210+1070541324+1069789244+1069366631+1069469246+1070046484
3870+1070962594+1071599329+1071521024+1071156564+1071031558+1071095852
3861+1071023689+1070534927+1069279946+1067185624+1065112990+1064993230
3853+1067767853+1070504475+1070940971+1069888020+1068479885+1067543560
3844+1067673747+1068669441+1069483448+1069530597+1069417682+1069736210
3836+1070034201+1069863902+1069511597+1069249175+1068892967+1068281374
3827+1067639777+1067245824+1067160611+1067562560+1068728873+1069981998
3819+1070015521+1068967432+1068011659+1067705095+1067625447+1067321698
3810+1066777533+1066321462+1066433928+1066954614+1067032406+1066694047
3802+1067023386+1068279199+1069140163+1069026289+1068713135+1068821252
3793+1069159675+1069396635+1069536099+1069650740+1069716122+1069826093
3785+1070125556+1070403780+1070307755+1069972722+1069840807+1069882647
3776+1069613571+1068857013+1067957984+1067567358+1068213177+1069505007
3768+1070194137+1069691172+1068591073+1067638817+1067081475+1067011935
3759+1067573372+1068434592+1068751584+1068069811+1066669993+1065371126
3751+1065258787+1066470585+1067692044+1068250090+1068796110+1069837801
3742+1070312873+1069292933+1067367247+1065664895+1065134549+1066013490
3734+1067533068+1068667586+1068991039+1068646666+1068044669+1067599601
3725+1067438514+1067419834+1067577146+1068085805+1068702452+1068839996
3717+1068148307+1066711448+1065059508+1064274609+1065394924+1067815706
3708+1069588174+1069660528+1068379318+1066859420+1066236184+1066797046
3700+1067846797+1068719341+1069127368+1068828736+1067825430+1066615039
3691+1065945742+1066344045+1067464168+1068204861+1068110371+1067489566
3683+1066614335+1065632908+1064778469+1064414968+1065094566+1067077252
3674+1068978500+1069199851+1068445467+1068169035+1068536758+1068609945
3666+1068150099+1067557314+1066964914+1066236312+1065401066+1064882235
3657+1065168456+1065873963+1065652292+1064049420+1062281430+1062162183
3649+1064226500+1066409746+1066940987+1066180655+1065033726+1064251642
3640+1064280558+1064929256+1065590173+1065912603+1065888869+1065545647
3632+1065130775+1065383025+1066765698+1068077744+1068005581+1067144873
3623+1066354792+1065856881+1065765015+1066249299+1066899212+1066997541
3615+1066593480+1066214561+1065992571+1065739617+1065622992+1066019696
3606+1066756294+1067203217+1067017628+1066345836+1065638922+1065316556
3598+1065354109+1065424416+1065444824+1065565863+1065667966+1065449494
3589+1065001739+1064835534+1065166345+1065539058+1065615507+1065494852
3581+1065225201+1064669073+1063919360+1063493293+1063787446+1064527499
3572+1065093414+1065305680+1065549294+1066148859+1066756166+1066630265
3564+1065652996+1064353425+1063272902+1062666939+1062402278+1062162886
3555+1061891380+1061846918+1062146317+1062532849+1062870184+1063406032
3547+1064190803+1064682892+1064411769+1063687134+1063169264+1063151159
3538+1063396564+1063397907+1062867498+1062026877+1061292390+1060890377
3530+1060890760+1061228608+1061609254+1061788254+1061878585+1062084902
3521+1062415072+1062867689+1063433733+1063757890+1063328623+1062233962
3513+1061302050+1061252150+1061847686+1062087205+1061371718+1060198496
3504+1059475140+1059473605+1059683312+1059651709+1059575964+1059887198
3496+1060545300+1061008217+1060909889+1060484013+1060229716+1060405772
3488+1060837726+1061035342+1060667619+1060039840+1059784711+1060015466
3479+1060254793+1060214298+1060035618+1059840049+1059581338+1059280083
3471+1059070760+1059082403+1059366768+1059833012+1060284030+1060553041
3462+1060502629+1060062679+1059502138+1059370223+1059834035+1060314609
3454+1060135354+1059351926+1058594408+1058228284+1058090932+1058053379
3445+1058338512+1058997893+1059540842+1059473861+1058918437+1058396025
3437+1058235769+1058383742+1058588395+1058651089+1058544636+1058296545
3428+1057894979+1057441466+1057178980+1057187233+1057285177+1057324713
3420+1057337572+1057373078+1057409223+1057393486+1057281659+1057154478
3411+1057192799+1057367512+1057416133+1057279996+1057165226+1057087177
3403+1056885147+1056695528+1056806395+1057065874+1057000237+1056518063
3394+1056014587+1055785815+1055724016+1055615644+1055478612+1055507016
3386+1055791445+1056142279+1056213547+1055853884+1055290080+1054894528
3377+1054854928+1055177613+1055805200+1056491898+1056799806+1056523117
3369+1055976330+1055663369+1055774044+1056085406+1056256409+1056198513
3360+1056158401+1056384677+1056812153+1057177061+1057291447+1057112383
3352+1056741013+1056421271+1056305925+1056179640+1055702201+1054953128
3343+1054376849+1054109053+1053761737+1052996415+1051876291+1050498864
3335+1048738999+1046600599+1044483247+1042926436+1042289957+1042650324
3326+1043765201+1045175895+1046503295+1047590663+1048377673+1048864836
3318+1049210041+1049593438+1049972613+1050193515+1050249749+1050206758
3309+1050073052+1050001017+1050283527+1050891281+1051382923+1051498972
3301+1051438900+1051411967+1051347801+1051201492+1051149801+1051345562
3292+1051717891+1052082800+1052321487+1052447708+1052587300+1052854904
3284+1053195182+1053384098+1053262547+1052917790+1052581478+1052420711
3275+1052471699+1052656456+1052792913+1052686268+1052314514+1051914420
3267+1051832661+1052217913+1052851449+1053324794+1053376229+1053041580
3258+1052553074+1052138649+1051885632+1051775980+1051809118+1051989526
3250+1052216442+1052317457+1052190468+1051877443+1051564289+1051459308
3241+1051529168+1051472359+1051149737+1050865244+1050921925+1051088514
3233+1050936447+1050558936+1050461695+1050807347+1051313831+1051881409
3224+1052715248+1053729814+1054362199+1054215826+1053598283+1053176118
3216+1053229345+1053447432+1053400475+1052985219+1052405294+1051984152
3207+1052048766+1052688379+1053511407+1053875931+1053481147+1052600159
3199+1051713861+1051102524+1050810418+1050769539+1050818095+1050783421
3190+1050706844+1050835880+1051297325+1051916211+1052382903+1052473490
3182+1052192643+1051819034+1051687823+1051836563+1051977818+1051814428
3173+1051275446+1050550939+1049992381+1049853173+1050065503+1050368932
3165+1050603142+1050747467+1050791482+1050756168+1050738511+1050740878
3156+1050602758+1050316985+1050211812+1050551131+1051128689+1051486433
3148+1051393478+1050983212+1050546653+1050259601+1050082392+1049900642
3139+1049675261+1049405098+1049118494+1048924588+1048878463+1048830994
3131+1048593522+1048151269+1047647856+1047326322+1047383707+1047650351
3122+1047611263+1046989114+1046093476+1045438509+1045246267+1045400572
3114+1045656085+1045783969+1045662546+1045357518+1045056263+1044865109
3105+1044737480+1044631795+1044548053+1044358114+1043852910+1043063661
3097+1042308766+1041830687+1041549521+1041251657+1040907924+1040673714
3088+1040577114+1040404511+1040034805+1039653711+1039432936+1039261933
3080+1038928692+1038253061+1037032242+1035277879+1033445660+1031980652
3071+1030746974+1029309475+1027618063+1026004123+1024594325+1023084471
3063+1021187381+1019095683+1017240432+1015685413+1014219829+1013136747
3054+1013320225+1015259409+1018446857+1021940997+1025076434+1027558311
3046+1029330906+1030481098+1031024110+1030812292+1029765995+1028072151
3037+1026123690+1024429079+1023505101+1023639894+1024743256+1026489815
3029+1028583560+1030868077+1033232881+1035483172+1037401693+1038932594
3020+1040153797+1041086284+1041736645+1042286567+1042995976+1043929615
3012+1044893129+1045564986+1045702914+1045372488+1044921278+1044579528
3003+1044191781+1043482691+1042475354+1041468465+1040576218+1039390777
2995+1037250778+1033740836+1028613948+1021310787+1011044664+997513684+981337374
2985+963858997+946642275+930844051+916699623+903623883+891018609+879128246
2975+869109895+862153922+858523517+857523601+858315793+860640102+864924898
2965+871921559+882056599+894813492+908769772+922425885+934976653+946219277
2955+956022420+964248024+971037984+976730723+981445810+984963108+986929865
2945+987019621+984996375+980831850+974753282+967075937+958090384+948428944
2935+939643823+933928372+932689705+935475139+940568249+946357654+951884252
2925+956599403+960256549+963045182+965494752+968084169+970908564+973698796
2915+976150925+978186583+979892517+981297646+982288605+982729003+982626708
2905+982176586+981638564+981170785+980758727+980316538+979869295+979598556
2895+979673086+980091221+980735249+981515094+982378425+983238237+984000425
2885+984655713+985171792+985221244+984155307+981387721+976774865+970707685
2876+964113742+958384217+954880865+954218605+956103027+959866690+964925190
2866+970743895+976770387+982565933+987800106+992175809+995626639+998470738
2856+1001069751+1003436475+1005339578+1006636014+1007429741+1008034105
2847+1008744154+1009557905+1010260725+1010790303+1011266335+1011698992
2839+1011989115+1012166003+1012352168+1012559956+1012732750+1012907144
2830+1013193236+1013668564+1014349697+1015152636+1015866716+1016311016
2822+1016568256+1016935787+1017581990+1018333495+1018851237+1018951485
2813+1018716316+1018366633+1018090265+1017959182+1017953424+1018042028
2805+1018222052+1018459652+1018669935+1018854756+1019183263+1019773617
2796+1020481491+1021102616+1021685164+1022411783+1023275242+1024104730
2788+1024804672+1025392018+1025910209+1026400251+1026829645+1027053299
2779+1026993675+1026802456+1026724983+1026890677+1027283990+1027808066
2771+1028346152+1028811500+1029110324+1029123502+1028859481+1028544024
2762+1028381978+1028302842+1028111623+1027833911+1027733984+1027956486
2754+1028291199+1028414093+1028312246+1028309175+1028676707+1029354065
2745+1030061683+1030582497+1030877801+1030974978+1030864814+1030602073
2737+1030391278+1030404712+1030583136+1030725799+1030693044+1030448343
2728+1030013638+1029459878+1028923327+1028618874+1028732684+1029186261
2720+1029599406+1029641309+1029352849+1029035602+1028955058+1029207884
2711+1029697670+1030136789+1030227312+1029976086+1029745971+1029888633
2703+1030386928+1030950924+1031370978+1031635831+1031780157+1031785402
2694+1031664107+1031552984+1031636663+1031941307+1032256956+1032344728
2686+1032179803+1031944570+1031850720+1031986473+1032252670+1032464424
2677+1032570365+1032683855+1032857929+1032985429+1032971611+1032862791
2669+1032759089+1032691468+1032607086+1032446191+1032233221+1032065225
2660+1031999140+1031997861+1031995941+1031958836+1031847969+1031618110
2652+1031331506+1031244821+1031638710+1032477411+1033301142+1033573480
2643+1033161998+1032443824+1031895118+1031624380+1031443525+1031361318
2635+1031683364+1032458986+1033181510+1033345220+1033076593+1032888125
2626+1032985877+1033129179+1033078896+1032879552+1032693260+1032585591
2618+1032563200+1032700553+1033075505+1033580709+1033939220+1033967944
2609+1033695415+1033214393+1032628838+1032159843+1032014750+1032113910
2601+1032207376+1032244865+1032368463+1032593332+1032760240+1032765806
2592+1032674899+1032649437+1032847053+1033285916+1033772887+1034093590
2584+1034282377+1034544288+1034925829+1035294128+1035611888+1035936109
2575+1036175244+1036174925+1035970271+1035670616+1035249347+1034787197
2567+1034691364+1035251650+1036120291+1036636242+1036621080+1036501321
2558+1036635155+1036857017+1036796305+1036383928+1035890495+1035632296
2550+1035752567+1036112742+1036274340+1035784298+1034683367+1033638733
2541+1033377527+1033983362+1034869980+1035444212+1035631784+1035669145
2533+1035627946+1035452273+1035340830+1035638757+1036268455+1036673667
2524+1036528638+1036189639+1036173901+1036456027+1036630868+1036582824
2516+1036563248+1036708661+1036928284+1037167036+1037376615+1037392033
2507+1037214313+1037166972+1037475327+1037938500+1038226000+1038276731
2499+1038309934+1038582016+1039114025+1039609057+1039714742+1039386619
2490+1038922422+1038636266+1038542160+1038417538+1038214292+1038213781
2482+1038613171+1039161110+1039409905+1039187019+1038720328+1038434939
2473+1038607861+1039085236+1039409841+1039316823+1038984093+1038748093
2465+1038725190+1038769268+1038712971+1038576194+1038508573+1038541392
2456+1038546574+1038512284+1038662495+1039146780+1039762723+1040126672
2448+1040007552+1039468889+1038838552+1038477930+1038413380+1038311469
2439+1037969911+1037639805+1037701987+1038192797+1038790891+1039171985
2431+1039316375+1039472216+1039773598+1039997636+1039869495+1039491920
2422+1039215616+1039185356+1039338382+1039731695+1040479233+1041375575
2414+1041955373+1042002330+1041743618+1041501220+1041385171+1041387218
2405+1041522204+1041716621+1041704786+1041234704+1040325503+1039245364
2397+1038339554+1037896277+1037960763+1038229070+1038316779+1038145008
2388+1037920203+1037819636+1037826353+1037777477+1037499637+1036985733
2380+1036464344+1036238899+1036451293+1036972426+1037511792+1037893206
2371+1038181858+1038419649+1038460465+1038328678+1038432124+1039079287
2363+1040036596+1040773002+1040949955+1040637313+1040128143+1039559669
2354+1038914937+1038314092+1037890455+1037517038+1037048300+1036714546
2346+1037078303+1038327335+1039523651+1039321237+1037561308+1035466027
2337+1034215524+1033860020+1033848185+1033990463+1034391773+1034898896
2329+1035155624+1035020831+1034690404+1034595211+1035116024+1036080563
2320+1036757537+1036692859+1036250670+1036109287+1036601120+1037604939
2312+1038689940+1039289954+1039091122+1038372820+1037777541+1037698853
2303+1038070223+1038667037+1039317079+1039794134+1039805585+1039231737
2295+1038294580+1037466882+1037177655+1037442956+1037768009+1037605898
2286+1036912163+1036096684+1035585275+1035647586+1036411181+1037685418
2278+1038913338+1039612128+1039806737+1039879411+1040092381+1040411101
2269+1040677041+1040737177+1040541672+1040365999+1040686765+1041470896
2261+1041997468+1041858004+1041637869+1042089782+1043129618+1044144440
2252+1044846300+1045389505+1045933157+1046393835+1046552555+1046239209
2244+1045408121+1044223000+1043155016+1042666061+1042700479+1042851139
2235+1042989579+1043328194+1044022057+1044962477+1045705089+1045629408
2227+1044616889+1043313032+1042320153+1041659684+1041254984+1041210138
2218+1041452216+1041858452+1042742958+1044326510+1045742706+1045503059
2210+1043192633+1040181881+1038455795+1038881351+1040592083+1042058947
2201+1042757161+1043443283+1044723918+1046006407+1046168710+1044811498
2193+1042749804+1041533783+1042223296+1044334251+1046389357+1047590279
2184+1048334043+1049040445+1049374646+1049054264+1048756976+1049494406
2176+1051182940+1052537080+1052676416+1052052796+1051411071+1050851873
2167+1050507884+1051151528+1053072032+1055019533+1055570350+1055132895
2159+1054812385+1053819122+1050998502+1047925376+1047330224+1049517309
2150+1052296282+1053961912+1054689171+1054983772+1054526164+1053120780
2142+1051563266+1050832425+1051032408+1051551047+1051952676+1052360320
2133+1052922461+1053162811+1052333834+1050536737+1048884029+1048152100
2125+1047839459+1047126787+1046216563+1045942497+1046415778+1046880486
2116+1046807236+1046397481+1045970198+1045513743+1045012121+1044632179
2108+1044379161+1044096331+1043965568+1044404623+1045294503+1045950686
2099+1046106783+1046284183+1046897247+1047610047+1047941369+1047985320
2091+1048114995+1048308645+1048157474+1047486385+1046663870+1046167494
2082+1046096995+1046249637+1046403367+1046462095+1046651523+1047346282
2074+1048302440+1048758895+1048730683+1049025603+1049586209+1049349313
2065+1048051917+1046658112+1045835724+1045374919+1045054472+1045019158
2057+1045364939+1045841930+1046036411+1045925224+1046178050+1047511271
2048+1049682618+1051502107+1052101800+1051896379+1051963360+1052561838
2040+1052868274+1052487308+1052207358+1052549299+1052795088+1052377401
2031+1051959522+1052151956+1052470035+1052464789+1052715056+1053641658
2023+1054337441+1053916747+1053289608+1054019105+1055839874+1056919437
2014+1056564189+1056069413+1056731289+1058199496+1059053935+1058454561
2006+1056854951+1055218621+1054132723+1053634109+1053161020+1051798883
1997+1049320716+1046806340+1045716669+1046540592+1048297769+1049085419
1989+1047579532+1044330989+1041252553+1039680004+1039425131+1039846913
1980+1040943621+1042881462+1045221829+1047359844+1049157838+1050626876
1972+1051781738+1052952784+1054269628+1054922804+1054082056+1052411051
1963+1051476709+1051988630+1053321915+1054259648+1053935427+1052459416
1955+1050838119+1049958027+1049681594+1049448792+1049285402+1049298645
1946+1048833745+1047293695+1045149218+1043090594+1041083469+1039314200
1938+1038701775+1039574127+1041079822+1042478169+1043862058+1045193616
1929+1045850438+1045624418+1045257974+1045492119+1046144784+1046603862
1921+1046817472+1047042597+1047048162+1046451795+1045495446+1044659944
1912+1043987319+1043284499+1042652243+1042452324+1042732530+1043037815
1904+1043023549+1042934049+1043106715+1043329345+1043168386+1042648277
1895+1042218306+1042249973+1042792282+1043680180+1044610875+1045204044
1887+1045349457+1045461348+1046150157+1047621435+1049478028+1051076550
1878+1051992085+1052291164+1052431651+1052762205+1053229664+1053648311
1870+1053985071+1054276793+1054517080+1054741118+1055017102+1055294814
1861+1055364610+1055053567+1054473322+1053948798+1053675948+1053522410
1853+1053168121+1052430499+1051438260+1050459072+1049693749+1049379636
1844+1049730151+1050421007+1050852257+1050966899+1050954232+1050673066
1836+1049872237+1048728699+1047783417+1047405906+1047357541+1047025324
1827+1046369013+1045898547+1045703874+1045392448+1044859735+1044360289
1819+1044030246+1043778060+1043423259+1042863166+1042209158+1041710863
1810+1041592255+1041977955+1042808404+1043881314+1045184468+1046944972
1802+1049128154+1051179677+1052566252+1053288329+1053697891+1054130420
1793+1054676696+1055141020+1055320212+1055253550+1055126754+1055124898
1785+1055208641+1055089777+1054684053+1054206678+1053734228+1053157693
1776+1052506884+1052019529+1052066486+1052810762+1053720410+1054223631
1768+1054405253+1054473770+1054451954+1054397321+1054336289+1054188253
1759+1054115003+1054402310+1054902141+1055173391+1055088625+1054898302
1751+1055016206+1055695420+1056669874+1057582657+1058356105+1058968145
1742+1059573021+1060560398+1061815187+1062652992+1063049760+1063830308
1734+1065487303+1067158947+1067919472+1067976025+1067933546+1068138519
1725+1068512192+1068911647+1069354668+1069860767+1070533647+1071594339
1717+1072760779+1073308078+1073271933+1072749456+1071908452+1071143769
1708+1070772015+1070781995+1071094829+1071516674+1071763103+1071912674
1700+1072011258+1071470613+1070040279+1067724223+1064117744+1058984267
1691+1051769391+1041507873+1028497323+1012865560+989370415+949311916+895461742
1681+837113609+774072398+706073189+636522032+570368734+516231476+481244975
1672+464861996+467084042+489973384+526472490+567104070+611083929+659407056
1662+705813902+742804458+770560217+792262167+810805009+832034254+860750009
1652+885000881+896876722+904202529+913197934+923707223+931880240+936899524
1642+940137127+942331697+943894969+946028507+950821258+958297021+965535567
1632+971694039+977921730+984804324+991755563+997920880+1003265856+1008161925
1622+1012235671+1014895972+1016583610+1018087002+1018847591+1017025863
1613+1011458897+1000980187+983249689+955444413+915513030+863015846+799753155
1604+731135573+667703287+622690374+604993846+614756748+644985492+685390092
1594+726389395+762755947+794151451+822221004+846962045+863845526+864930784
1584+847666849+823588643+811332796+819692873+844681559+877093165+905134825
1574+922312715+932683372+942192809+952796779+961733264+965543244+962252030
1564+950898794+932819381+911490976+894929221+896231351+910372004+924053515
1554+935664055+945861726+954527088+961875926+967958780+972768548+976875625
1544+980794745+984647268+989066730+994034514+997208144+997992403+997826966
1534+997633828+997155557+995330311+991611941+986437073+981107386+977308538
1524+975940962+977117575+980357673+984048150+987073679+989824184+992631817
1514+995213686+997457323+999572053+1001884974+1005265560+1010938787+1017297241
1504+1021172603+1023055618+1024397220+1025806315+1027253602+1027694832
1496+1024864231+1017009422+1003253509+982244783+954902233+930235977+919725216
1486+924482590+938221102+954945031+970541992+982499656+990261383+994694344
1476+996458687+994859205+987411335+971250250+946410880+914349085+875076764
1466+830310663+789186098+763718758+755857870+761023847+779161797+812726025
1456+846892889+857735548+846346934+827656887+816382851+821619711+841428474
1446+865649022+887180864+905783650+922321479+936060503+947135259+957561446
1436+968389582+977673830+984168102+989240228+994405628+999746382+1004439525
1426+1008334911+1011953481+1015394330+1018401243+1021269844+1024445393
1418+1027017921+1027099168+1023284838+1013754353+995878057+968544783+934800532
1408+900627718+871358458+850910914+841874309+843912718+854822421+872207203
1398+892449263+911732926+928307092+940817173+947382583+946919602+936941235
1388+911370768+867470366+816580147+777376470+759823628+761254090+772843454
1378+788851897+809224720+833669369+856817774+871866477+877508997+877424103
1368+875953593+876396358+880818251+890196605+903683891+917249353+925549614
1358+925793164+919207985+910410580+904075285+900383017+895229324+885382551
1349+872207139+860528275+854801757+856539231+864750377+877895528+894447495
1339+911983577+927742456+940488090+950544634+958559251+964941631+969953814
1329+973857260+976930259+979481356+981877955+984379536+986873952+988990153
1319+990549971+991836810+993447935+995937937+999464768+1003644519+1007775585
1309+1011167686+1013351508+1014243883+1014037695+1012700251+1009670819
1300+1004154904+995624400+984254147+971345955+959300135+950591079+946378829
1290+946045844+947990338+950733869+953420463+955828258+958405393+962186201
1281+968021219+975246331+980986539+981321188+974125376+961636279+950325074
1271+947224695+955161200+971278782+990006702+1006964905+1020525249+1030973315
1261+1039027532+1045094840+1049363579+1052083887+1053605832+1054196953
1252+1053751885+1051647264+1047043556+1039423788+1028786550+1015406741
1244+999520489+980966707+958614268+929851492+890871405+838531980+773675182
1234+703632192+640718097+596530258+576367078+578202241+595942847+623109277
1224+654350540+685405766+712855089+733784103+745438145+745724110+734646091
1214+715181509+692383618+671350198+655765072+647883329+649031985+659331631
1204+677099298+699290075+722880221+745870099+767349290+787100860+805196076
1194+821657391+836327431+849127250+860411010+870848584+880935900+890787343
1184+900339386+909535542+918357769+926808498+934807889+942137663+948577237
1174+953896943+957411938+957473865+951462535+936467123+910278858+872043429
1164+823010765+768560001+719663857+689282023+684336949+701256128+729968621
1154+761288956+790479079+816258037+838688141+858014539+874471312+888400467
1145+900194229+910164088+918579759+925647111+931296732+935024825+935731932
1135+931510662+920195938+901391057+878751439+859728918+851554046+856430539
1125+870589233+887883172+903870631+916899478+926836135+933837209+938098847
1115+940020822+940022294+938072234+933964262+928596959+924449003+923867158
1105+927016414+932163262+937729013+943377354+949315114+955332459+960699058
1095+964556443+966151382+964820208+960010312+951594961+940320797+927856970
1085+916126479+906267807+898165801+891372322+886823377+887179009+894696099
1075+908775977+926043431+942688544+956492502+967114833+975220869+981545673
1065+986516784+990363102+993314549+995728358+998076657+1000674839+1003444600
1055+1006129467+1008656189+1011136019+1013667092+1016242820+1018718619
1047+1020742697+1021724380+1021186742+1019619887+1018801146+1020528831
1038+1024965566+1030660417+1035993750+1040186168+1043233384+1045340629
1030+1046203640+1044148662+1035891839+1018667824+994562365+972296483+962182362
1020+968188319+985660938+1006461045+1024879777+1039036424+1048907571+1053933188
1010+1051479652+1038002666+1014283675+989710054+977373727+982299353+996045094
1000+1003721927+995108384+970717921+940988495+919312903+912342152+915563634
990+917763193+907962610+878455110+825851856+754066786+676778916+612974237
980+575852278+565741740+574923438+597033607+628976794+666508890+703297671
970+734931159+761066901+782918167+800173018+811442575+817139153+820275870
960+823869234+829018385+836232110+846687596+860718342+876383564+890900513
950+902867389+912474962+920364766+927000036+932756942+938007620+942967472
941+947565805+951587092+954977402+957876135+960242858+961647219+961643124
931+960220851+957714856+954463242+950758435+946857420+942761987+938346875
921+934278759+932655351+935874466+944408361+956016150+967435088+976579424
911+983113296+987669023+991099380+994097721+996931584+999447559+1001433764
901+1002929672+1004200454+1005522800+1007017620+1008664442+1010518733
892+1012847520+1015879446+1019405317+1022849622+1025878797+1028718802
884+1031693280+1034668525+1037162813+1038701775+1038637929+1035511833
875+1026929893+1011178946+990251787+970951235+961021807+962997265+972173909
866+980239385+979428641+963306324+926463741+867186128+792022711+715912989
856+654790234+617511155+605606142+618104515+652407133+701164325+753009294
846+798514488+834326576+861675203+882767608+899035018+911432951+921104883
836+929279051+936605754+942950838+948014072+952022500+955828706+960422881
826+966228279+972775330+979193792+985010065+990368348+995725287+1001518402
816+1007794202+1013967643+1019286006+1023583725+1027260383+1030729381
807+1034305920+1038225680+1042223104+1045439916+1047276806+1048165407
799+1049244139+1051427385+1054928498+1059484481+1064663572+1069751052
790+1073308078+1072508529+1061137573+1031173874+978069126+908335323+841418430
781+801069104+801081387+836984062+890607703+942239702+979084460+995372662
771+989759314+966169487+936146932+916092188+917779379+940108787+971068307
761+997667478+1012959794+1014570088+998722924+956833548+881155523+778765861
751+677297170+606231873+568631069+538997220+493954111+439150466+401230718
741+399215373+429892768+477023545+526760661+573208483+615414786+653791214
731+688648039+719913484+747586525+772230198+794540542+814614734+832289319
721+848175187+863676379+879748348+896063163+911333152+923648367+929969268
711+925388975+904428358+866207452+819652122+780508453+759274154+751762182
701+743400057+721936475+684828911+637759420+590739574+555576120+542393608
691+554590727+586539287+627420239+667753379+702530493+730350418+751688867
681+767854238+780554578+791583465+802234201+813005144+823911648+834736138
671+845505482+857242691+870721148+883023888+891250899+897630337+904660776
662+912236211+918991817+924496984+929381346+934104109+938663739+943042449
652+947341128+951492538+955195746+958388312+961295617+963361470+962694603
642+957957190+951139849+946958691+948241564+953151452+958225178+962324257
632+965791720+967938308+967978292+967063590+967383333+969969743+974408014
622+979940754+985686336+989846255+990093067+986273619+982079793+982004624
612+986898774+993802608+999610821+1003623727+1006745857+1009664934+1012404243
602+1014886887+1017084655+1018678699+1019265982+1019085895+1019069453
594+1019957542+1021574233+1023210436+1024686447+1026496532+1028726735
585+1030540913+1031226396+1031211426+1031491249+1032449902+1033570921
577+1034079004+1033768345+1033143957+1032562368+1031731152+1030574436
568+1029918573+1030467663+1031723028+1032786726+1033602076+1034612676
560+1035739580+1036425703+1036260010+1034873562+1031680613+1026728438
551+1021711969+1019207190+1020712053+1025859093+1033136792+1040659384
543+1046759383+1050619007+1052292699+1052258985+1051403075+1051001765
534+1051865288+1053671726+1055600802+1057132343+1057931764+1057712333
526+1056792065+1056247645+1056927434+1058713784+1060770873+1062050804
517+1061646359+1058936798+1053423058+1044456954+1031218592+1012880658+989121108
507+961237016+932702116+907785785+889468132+878080094+871825533+870131946
497+875417042+889708419+910782526+933401353+953486932+970022138+983895764
487+995858609+1005372396+1011185599+1013157986+1012947703+1012378781+1011876712
477+1010821458+1008471432+1003833242+995680633+984361240+972412340+961490034
467+950754980+939220122+928020936+919458892+914342432+911231305+908699528
458+907586250+909815301+915995971+925811653+938245156+950872117+961510762
448+969840708+976067695+979899491+981742650+983177654+985273191+987679962
438+989765647+991557499+993668006+996775423+1000961763+1005653243+1010484698
428+1015624701+1020822217+1024994995+1027188028+1027223022+1025348260
419+1022545872+1020218493+1017592674+1012761155+1005299530+995876202+985591015
409+976892258+973629512+977556885+985729710+993807470+1000994646+1009778808
399+1020883120+1029568634+1031873879+1032345944+1035450353+1040148551
391+1045498197+1052893928+1061787166+1067579002+1066466747+1061538371
382+1059299531+1061124074+1063993506+1065538226+1065986045+1067861383
374+1073308078
##END=
