##TITLE=X9680
##JCAMP-DX=5.0
##DATA TYPE=LINK
##BLOCKS=1


$$ === CHEMSPECTRA SPECTRUM ORIG ===
##TITLE=X9680
##JCAMP-DX=5.00
##DATA TYPE=INFRARED SPECTRUM
##DATA CLASS=XYDATA
##ORIGIN=Default
##OWNER=
##XUNITS=1/CM
##YUNITS=TRANSMITTANCE
##XFACTOR=1
##YFACTOR=1.0543573e-009
##FIRSTX=3996.5625
##LASTX=399.65625
##MAXX=3996.5625
##MAXY=1.132107529395358
##MINX=399.65625
##MINY=0.8786968253226078
##NPOINTS=1765
##XYDATA= (X++(Y..Y))
1765I27341591I27680273I27743815I27970563I28134788I27910018I27768010I28283014
1757I28943361I28814808I28326148I28313259I28554706I28416542I27700737I26951522
1749I27151362I27997246I28405575I28742730I29254851I29470237I29692859I30300745
1741I30709582I30420309I30031371I29411388I28404275I27871520I28309980I29690372
1733I30923216I30972455I30885453I31068955I30416465I30198535I31527370I32076011
1725I30685217I28932394I27785196I28030657I31044363I36071504I39592188I39370922
1717I35598616I31172860I30171683I32408926I33504907I33065373I34603601I35951035
1709I35785397I35390523I33138073I32227120I34600549I38110943I40696535I39639165
1701I38385292I39088207I37349517I34178256I34727010I41114191I49961295I47737336
1693I37720139I32310900I32599325I36303058I40718809I44363353I44901365I41635075
1685I38748904I37114232I35949226I35710775I35857136I38416497I43499718I44393258
1677I42530933I39610391I34300365I31524657I33946137I37770905I38584566I40628584
1669I42520305I39665114I36747567I33706725I30398601I29206347I29427838I30239295
1661I31048377I31513237I32795943I32722564I30219961I29333204I31955259I35789524
1653I36798559I35872343I34757198I34532993I36682669I37952485I37850728I41518733
1645I49066397I51849794I48639018I48213447I47045218I41356034I39161868I43025360
1637I48582599I48190269I41158625I34565612I32442902I33182167I34295277I34611629
1629I33426102I31994379I33008671I37859829I42253306I39718027I34508571I32665354
1621I34059992I34343725I32210217I30506916I30844806I34453623I40455936I42279480
1613I36815688I31729697I30554064I32641780I37605606I44207608I45948559I43829976
1605I43860842I40064623I33185277I29758040I29359491I30294922I32884245I35387753
1597I36264673I40499126I48825572I50057738I40972014I33067069I30653616I30957191
1589I30880930I30841697I32060408I35845943I41772504I41188248I34358932I31446982
1581I34060501I38529617I39476976I38742742I39261929I39253336I38214679I35993604
1573I32804140I31128030I31893979I33060850I33346053I33374319I33340060I33960327
1565I35771886I36087164I33534756I31361337I30441905I29881506I29666685I29771099
1557I30112777I32017274I35954823I38024732I35704387I32704305I30914510I30070604
1549I30413808I31510411I31600918I30686065I30844919I31676445I31417360I30575602
1541I29987672I29568433I29226246I29147611I30043695I31843552I32695599I31934568
1533I30779060I29528804I28287141I28249717I29479113I30353206I30521049I30305607
1525I29697834I30020291I31393164I31529801I30571080I30371070I30372427I29748543
1517I29262483I29019962I28732668I29123641I29988746I29918816I29040935I28773823
1509I29089948I28988587I28353283I27763714I27935740I28694000I28899493I28185836
1501I27623911I27790340I27760152I27273527I27083015I27333620I27859139I28533563
1493I28683994I28070398I27505986I27567040I27885709I28000073I28322247I28847088
1485I29122397I29819377I30934805I31170259I30529924I29868221I29462153I29381143
1477I29294593I29140092I29232295I29296346I29116970I28882081I28784451I28954442
1469I29330265I29529709I29406130I29246711I28924649I28599705I28893670I29546555
1461I29558257I28686199I28017315I28267638I28953876I29246428I29070219I28753415
1453I28224504I27967511I28284314I28668278I28930303I28872753I28248982I27793393
1445I28055700I28319590I28200761I28241124I28789821I29340779I29154168I28404501
1437I28106579I28578110I28978355I28709150I28185158I28141120I28667939I29324611
1429I29610945I29317036I29164005I29569903I29320485I28511572I28667600I28916283
1421I28331914I28122294I28442829I28633454I29045119I29534683I29539206I29496920
1413I29679687I29675278I29455765I28908764I27922059I27327232I27777564I28621639
1405I28832559I28431014I28088093I28215063I28467703I28292003I28282901I28758729
1397I29186448I29761432I30377685I30131771I29300698I28809438I28812377I28965635
1389I28959812I28933299I28329314I27186525I27175897I28090015I28481045I28424739
1381I28306984I28069494I27754216I27483712I27279915I27317791I27889723I28481045
1373I28516095I28256105I27908831I27758287I28207318I29018718I29245693I28938217
1365I29550908I30779003I30916432I30006723I29287470I29048963I28715256I28239485
1357I28141572I28364759I28253787I27927486I27871463I28221903I28490768I27900294
1349I27551720I28157570I28407045I28033596I27366748I26332726I25496113I25454505
1341I25856785I26287953I27106758I28103017I28401674I28051799I27649633I27424862
1333I27187090I26865424I26900305I27240626I27190425I26819577I27004153I27719506
1325I28097421I27917310I27619106I27525602I27281950I26693398I26211748I25754859
1317I25318038I25193611I24696924I23626043I22546061I21218413I19519747I17989320
1309I17374538I18153093I19689399I20907941I21665579I22232423I22422539I21954456
1301I20616746I18575498I16590443I15305137I14472368I13366042I12351863I12017251
1293I11819447I11627069I11678004I11809780I12248862I12815027I12981796I12697893
1285I11456174I09751629I09357207I10344251I11491393I12190465I12705016I13426192
1277I14120006I14316454I14084900I13928024I14133630I14539810I14798782I14973635
1269I15110837I15193996I15402824I15406329I14697082I12594949I08377230I03834848
1261I02325281I03348053I03889401I03586109I03173031I02221150I01058009I00496649
1253I00084590H99599152H99105121H98327866H97366996H95993784H93611423H90062531
1245H85973816H81876736H77460759H72904867H69750509H69074785H69822248H70870629
1237H72497612H74962904H78226877H81881823H85694889H89785864H93262509H95570304
1229H96966864H97434608H97115091H96275142H95718926H96403073H98343751I00859527
1221I03176988I04955703I06276115I07289333I08017405I08371520I08419855I08260944
1213I07737969I06652390I04998158I02773748H99641494H95348643H90792977H87863842
1205H87459301H89115681H92306445H96124259H99822000I03477907I06798411I09427250
1197I11483422I12778790I13680189I15187042I16801362I17563467I17948731I18535021
1189I19167837I19811677I20526691I20955710I21145996I21570549I21994763I22137110
1181I22318407I22639112I23037095I23442371I23506478I23309409I23148972I22956594
1173I22979885I23311896I23555887I23789533I24100118I24260329I24239469I24037990
1165I23957036I24314713I24812814I25109944I25076704I24845150I24724115I24660800
1157I24775503I25355575I25974032I26216892I26305760I26294906I25934629I25497978
1149I25522061I25779337I25902350I25959786I25863682I25487124I25125717I25242624
1141I25749431I26233626I26450199I26422498I26259687I26011795I25903876I25999867
1133I26316219I26616459I26644725I26729239I26879953I26946039I27031741I27088725
1125I27006245I26963111I27106815I27251423I27274997I26999857I26316558I25789569
1117I26050689I26631948I26965486I27293313I27524528I27286755I26814489I26700069
1109I27129880I27689940I27935627I27917650I27841614I27905213I28371543I28915943
1101I28986721I28552331I28147790I28286180I28566577I28461315I28256953I28511685
1093I29220310I29583188I28877276I27728834I27469862I28021442I28257801I28042472
1085I28131057I28670257I29255247I29675787I29792129I29513314I28901924I28549787
1077I28801128I28782529I28326939I28222243I28406027I28817239I29390471I29493302
1069I29348977I29284813I29063435I29100802I29541806I29761319I29527843I29043027
1061I28741995I28794061I29083334I29773586I30465987I30487695I29982810I29674769
1053I30045617I30506012I30326354I29931875I30026227I30110855I29745321I29572560
1045I29633783I29904231I30441339I30431955I29892247I29778844I30248510I30980313
1037I31633763I31530197I30919541I30581595I30208485I29921813I30478933I31255622
1029I31424652I31495995I31812799I31808842I31209266I31022542I31756776I31844966
1021I30505729I29491493I29893264I30618962I30983874I31062906I31150756I31861982
1013I32787406I33194774I33121791I32603961I31905568I31642921I31320295I30330989
1005I29756966I30202719I30789970I30906652I30839662I31314528I32186191I32432161
997I31764917I31057931I30755995I30551237I30989923I32007607I32350755I31944970
989I31628393I31538564I31277217I30809248I30345970I30157889I30470623I31197225
981I31738008I31819866I31976289I32232943I32196028I31633141I30311882I28386976
973I26387166I24271748I21608199I19033631I17337905I15939367I14518724I13534846
965I13017072I12445592I11228181I10133671I10101730I11345315I13678041I16367538
957I18382555I18532364I16589877I14626982I14516576I15744558I17127777I17519089
949I16702262I15773220I15593562I16117159I16811651I17153668I17735889I19230248
941I20481352I20572481I20129951I20353364I21701590I23357404I24761822I25792226
933I26636923I27958805I29416475I29865790I29661258I30200571I31239907I31660163
925I31826989I32202529I31686620I30434555I30039059I30124479I30498606I31551679
917I31919983I31846436I32223954I32250694I32503900I33100196I32871412I32654500
909I33108054I33121622I32446859I32036665I32703230I33709382I33251023I32447820
901I33908317I35938937I35967260I34811638I33915214I34473804I35805805I34705528
893I31441329I30805291I33258768I34206692I33363295I33993228I35401999I35797721
885I36439187I36832987I36114016I36146635I36499336I35469894I34908477I35967260
877I36155567I34887334I34252313I35258069I35008934I31541390I28827980I30623824
869I34842957I35264909I32972208I32362061I29755101I26550373I28724697I32414749
861I32263414I29506022I28943531I31437598I33049883I32014900I30601098I30690248
853I31069576I31647105I33721706I34952119I34194255I33936527I34458428I34495400
845I34280296I33969202I33936979I34819948I35237661I34024208I32719738I32702722
837I33657599I34673757I34833233I34852454I35254395I34576353I33503041I33199296
829I32940494I33715149I36238499I38554604I39199009I37967861I36495831I36991332
821I37841682I37065049I34921875I32737828I32995952I35114479I37214011I38796899
813I38527808I37423291I37811608I38947500I39734591I40134214I39243952I37010157
805I35618911I36340369I37055496I35650343I32827883I32131469I36212212I39990567
797I37413794I31712795I29513540I31581697I33367196I32189696I31083201I33140617
789I36249918I37335723I37462524I37355792I36033854I36627324I41033860I44963494
781I45007023I42134307I38717755I36597758I36700589I38122871I39029866I39421179
773I40317264I41213348I41569894I41132451I39430281I37891035I37762764I37919244
765I37380101I37694870I39699033I40484032I38675639I37658520I39390200
758I41076937I40609137I39519092I38390210I36703416I35574025I35304312
751I34899036I35470459I37759768I39179789I38660318I37943327I36876742
744I35875113I36451963I36492440I34284480I32294054I32110891I33030662
737I34204883I35293797I35778500I35529930I36613983I39161359I39381098
730I37305931I35993490I35627730I35750913I36317926I37209714I38562801
723I41003389I43944453I43893800I40784159I38789267I38391114I38039883
716I38033947I38667159I38936702I38471785I38373929I40457462I44640076
709I45752790I42685774I41131999I41539480I41482609I42241830I45698237
702I48027796I47027185I45518070I43321586I41050593I40071464I39570649
695I39383585I40467977I41689854I41197689I39910914I39717123I40780598
688I41456604I40515181I39604342I41212104I43101621I40070503I35372772
681I33560873I33891471I34926624I34954381I32959715I32183987I34821361
674I35901513I29979305I21631716I15385073I12209685I09398023I05026368
667I00718141H96085252H92676219H92350879H91906426H87766155H82319944
660H78947883H77830420H76526685H76960906H83898706H92053239H92019264
653H88941732H87034408H87739020H90730114H96569899I07384193I18051618
646I19507367I17742672I19467060I25578310I34299969I41249868I46707102
639I54279415I58458919I56542267I50520393I45290417I44856083I47759045
632I54700463I62122853I57370005I49192689I47274341I50250285I52631854
625I54390217I56811356I53822299I49473991I49901484I50130551I47216623
618I47189148I54992167I68010068I67345934I62475386I64376096I60763604
611I51632260I47827448I50978978I59279194I63143251I55245090I48921111
604I48909465I50989494I52975002I53433360I50735780I50479011I53073704
597I50456852I45984457I45304493I46338063I46364520I45607108I44260691
590I41653730I38534422I35786358I33047113I30621958I29550286I30271574
583I32817085I36391304I40003682I44340684I51179441I56851720I54718778
576I53273828I56008607I55337124I52557118I53382933I60238990I75295200
569I80670576I68809879I60550254I57400984I56476238I56728030I60637087
562I69425962I79736784I78058245I64364563I57878225I56336152I51701568
555I48216669I48319161I48575476I47511605I36753447I10410789H76040625
548H49485409H48868534H68998524H96897161I20078168I16902724I06266956
541I06025736I13999254I21337921I23747586I27481281I35156312I39725998
534I37468347I34550009I33304954I31915630I30591883I31381745I34170794
527I33975025I28506428I25627323I27522493I27833474I25673905I27648672
520I31095524I24273614I15210390I13031205I15132093I17431296I16752067
513I14002250I11328356I10886899I13398774I15321362I15819632I16750654
506I14277560I06975412H99567720H94804356H95337337I01533272I05215523
499I03142787I00504903I01117198I06469510I14358513I20757623I23828031
492I26366362I29137378I29641754I26584292I21490726I19089711I19898962
485I19034988I14371515I08411601I02513080H98425383H98201574H99985942
478I00234229H99913694H99670551H99547877I02563280I07110184I08860293
471I09258899I10052095I11404052I13749610I17037778I20672260I24690422
464I29525977I34961221I39691966I42134702I42970637I43746535I44710175
457I45439208I45642327I45168139I44397159I44758905I46424330I47724899
450I48237699I48344487I48199257I48664457I49894700I50778291I50873152
443I50532378I49869600I48735348I46917117I44455669I42057537I40318055
436I38521363I36417365I35394084I36275301I38374494I40526261I42101518
429I43064819I43077086I41713484I39466291I36520084I31929141I25673453
422I19687421I15896855I14493850I14553152I15448671I16783498I17643685
415I17310261I15558965I11701013I04380606H92929142H78962242H66655792
408H61115230H64819076H75533875H87756771H94560478H92689278H88971977
401H91232116H96153825H97642871H95955851H94597506H96378595I01400705
394I07879694I14288075I19905407I24728073I28744878I31320295I32124798
387I31751236I30535860I28367699I26096480I25139228I26041757I28801128
380I32987868I37235436I40199451I41565145I41030355I38452056I36021587
373I36414652I39502359I43708772I47916316I51175370I53063417I54044921
366I54429787I53874761I51965119I48963508I46333371I45885300I47823152
359I50468045I51873537I51239138I48263760I43093367I38602826I36342122
352I31935303I23904010I19225161I22666360I30190734I35799869I38521024
345I41375990I45448197I48050240I46293516I39016751I28653184I22634024
338I25947858I35055516I44178268I50929569I55090757I57782008I60188676
331I62207764I63903829I65327299I66180474I66753707I66834774I65038082
324I59429456I48797872I36726481I31457497I35604213I43248151I49225930
317I52679228I54415656I55509093I56657253I58172077I60139720I62379056
310I64568302I66009184I66306991I66632729I68043309I69822928I71468341
303I72876999I72217499I64488480I50017374I42782330I49721148I59757114
296I65831675I69772954I72346052I73839055I74925708I75697480I76467329
289I77379299I78001937I78216082I77208347I71044353I52683976I24646667
282I08752770I17868625I35170162I43576488I44878187I46116685I48497461
275I50130664I53050754I59404808I66397557I70870800I71908609I68911297
268I63122109I59201406I60536573I65539065I70775148I74811513I77626908
261I79306352I80309678I80745651I80340318I79183000I76617025I70787924
254I59622003I42009258I20917438I04582820H99970508I06942002I19911117
247I32247867I41705966I50025628I57198261I62003685I64125658I63598332
240I62655496I64457614I68412009I72480485I76429452I79800552I82161883
233I84332702I86760514I88685532I89755905I90692748I91616024I91830506
226I91272875I90404095I88890176I84618978I74621793I57874381I36874029
219I17246041I06078536I05879658I08227138I01191085H87032825H81898670
212H93504013I12457521I25358288I22985821H99676148H61705704H33395686
205H34110134H57078299H84260170I05776091I19642139I26637997I28778571
198I28061466I26303442I23524399I18689014I15664509I20186257I30994672
191I42413856I51792132I58932316I63914797I67599083I70569712I73020137
184I75762265I78797454I80604660I80767131I81159124I82797639I84714291
177I86577238I87985782I88552457I89590832I91633549I93532676I94227678
170I93313785I89599199I80319627I65753096I53091909I49106083I51407377
163I52856624I49901032I44515593I41779174I44355212I48682886I46445360
156I32531148I16328135I13326696I25365185I43992166I61093636I72837200
149I78353680I78361368I78299522I81434998I84922102I87116212I87225994
142I84678903I82268728I80654748I74714054I61714582I51355028I55764390
135I69041773I77654043I82615494I91425060I98590908A002347331A004152954
128A003793524A002514891A000483253I95379003I85825479I71635448I55518138
121I45758500I48887192I61418694I74265418I82895892I88343629I92110901
114I96320709A000804578A002178979A000033600I97484697I97879402A001578612
107A006607674A011594226A015452517A017211559A016841954A016051187A016585639
100A018141845A019113625A018926503A018105891A015970574A008949897I89587779
93I55380540I23839563I21164821I46156031I74087229I91290400I99788590
86A005284720A011054575A015988212A018645543A019886753A020148269A016002796
79A003610250I88200377I82768130I91650283A005099522A014056523A019152519
72A021522556A021057639A021810528A023403140A022882596A022846416A024743281
65A025534839A024324153A022194040A015988325A000908598I68705070I18132741
58H78840925H79636948I09914158I44430343I70674859I85885288I92990990
51I95678508I88939925I70798101I54488921I56705077I75930391I95753130
44A010560939A021845238A027079060A030078068A033984750A037343301A042186714
37A045495855A042258170A037389770A036595725A038971866A041416185A045308848
30A052235116A055731943A052676742A051688907A056138292A058946110A055759191
23A051725991A052147266A052372487A046813723A040820228A040362998A042696291
16A045046880A047054096A048116101A049702721A056315916A065210392A061420845
9A048984768A044568961A050006409A058820272A064966967A069548864A073741823
2A071488015A054400282
##END=


$$ === CHEMSPECTRA PEAK TABLE EDIT ===
##TITLE=X9680
##JCAMP-DX=5.00
##DATA TYPE=INFRAREDPEAKTABLE
##DATA CLASS=PEAKTABLE
##$CSTHRESHOLD=0.93
##MAXX=3996.5625
##MAXY=1.132107529395358
##MINX=399.65625
##MINY=0.8786968253226078
##$CSSOLVENTNAME=- - -
##$CSSOLVENTVALUE=0
##$CSSOLVENTX=0
##NPOINTS=39
##PEAKTABLE= (XY..XY)
411.890625, 1.1070819223759358
436.359375, 1.0973964053794645
495.4921875, 1.0063723616254734
515.8828125, 0.9266123448125025
556.6640625, 1.041916281352702
583.171875, 0.9712368535245434
642.3046875, 1.0004661377617017
674.9296875, 1.007717161676547
711.6328125, 0.9629726692124808
793.1953125, 0.9654375594150657
817.6640625, 0.8786968253226078
831.9375, 0.929836300574791
840.09375, 0.9551208303338035
907.3828125, 0.9488904748945084
972.6328125, 0.9581501169447211
1007.296875, 0.9940294319465091
1052.15625, 0.9820890116016782
1088.859375, 0.9727859184327753
1111.2890625, 0.9691917588440253
1207.125, 0.9432254110128938
1217.3203125, 0.9372940934453822
1229.5546875, 0.907923128891679
1366.171875, 0.9484448708144522
1376.3671875, 0.9470253864183902
1413.0703125, 0.949453918163842
1423.265625, 0.9434435048203988
1439.578125, 0.9604002514350127
1500.75, 0.9552748487394729
1512.984375, 0.8950107355631982
1551.7265625, 1.0094427165075832
1588.4296875, 0.9808386250293902
1727.0859375, 0.9352512034259785
1739.3203125, 0.9241723089745505
2357.15625, 0.959572402768129
2854.6875, 0.9356991924622473
2895.46875, 0.9444077883762598
2926.0546875, 0.9163153438106806
2968.875, 0.9513732469969013
3013.734375, 0.9587874095080612
##END=


$$ === CHEMSPECTRA PEAK TABLE AUTO ===
##TITLE=X9680
##JCAMP-DX=5.00
##DATA TYPE=INFRAREDPEAKTABLE
##DATA CLASS=PEAKTABLE
##$CSTHRESHOLD=0.93
##MAXX=3996.5625
##MAXY=1.132107529395358
##MINX=399.65625
##MINY=0.8786968253226078
##NPOINTS=222
##PEAKTABLE= (XY..XY)
3984.328125, 0.978198974049973
3974.1328125, 0.9787738613134407
3965.9765625, 0.9773381039668106
3937.4296875, 0.9783081105740961
3927.234375, 0.981485872834357
3921.1171875, 0.9807616158265555
3910.921875, 0.9782170942345308
3894.609375, 0.9807333042243359
3888.4921875, 0.983784287399773
3876.2578125, 0.982900469229976
3866.0625, 0.9893933828328316
3859.9453125, 0.9849576637148688
3847.7109375, 0.9829888032845701
3827.3203125, 0.9865734863099075
3811.0078125, 0.9821598222379462
3790.6171875, 0.9797154951657832
3774.3046875, 0.9798492477697892
3762.0703125, 0.9853316832603989
3755.953125, 0.9888297613771144
3739.640625, 0.9902121714074364
3727.40625, 0.9831279805568847
3717.2109375, 0.9826550770576168
3704.9765625, 0.9833625244469842
3696.8203125, 0.9810867595850868
3682.546875, 0.9811364704230673
3672.3515625, 0.9951340251544248
3662.15625, 0.9798769636601343
3641.765625, 0.9812414338009968
3635.6484375, 0.9814397383763381
3623.4140625, 0.9820779250346686
3615.2578125, 0.9897702628497166
3603.0234375, 0.9817416356651191
3592.828125, 0.984073905643438
3576.515625, 0.9802008558965505
3558.1640625, 0.9806267308428093
3550.0078125, 0.9812756466410245
3533.6953125, 0.9796535664354104
3517.3828125, 0.9787068653418841
3507.1875, 0.9802336980720883
3496.9921875, 0.9809435293633111
3486.796875, 0.9792160682542764
3476.6015625, 0.9792594603289579
3468.4453125, 0.9781944445310122
3458.25, 0.9780470422174004
3450.09375, 0.9774767445712595
3437.859375, 0.9779227071327978
3407.2734375, 0.9796456387228716
3397.078125, 0.9792706660383423
3382.8046875, 0.9790758777445965
3372.609375, 0.9784618305966495
3358.3359375, 0.9784093193856803
3346.1015625, 0.978225736801319
3339.984375, 0.9786552482259053
3327.75, 0.9785559467466768
3317.5546875, 0.9785923653021761
3307.359375, 0.9796708515689865
3301.2421875, 0.9789829540726757
3293.0859375, 0.9785725159716462
3280.8515625, 0.980021862929516
3268.6171875, 0.9777342365479936
3258.421875, 0.9785364558976289
3250.265625, 0.9787418531345273
3235.9921875, 0.9792970112641974
3221.71875, 0.9775746753859982
3205.40625, 0.9776843475236295
3191.1328125, 0.9781887225339452
3182.9765625, 0.9794327903429342
3164.625, 0.9785928418716756
3156.46875, 0.9783080504757299
3148.3125, 0.977970927109556
3134.0390625, 0.9757597131646365
3113.6484375, 0.9772473259119953
3105.4921875, 0.9771989867928621
3066.75, 0.9672405409744275
3032.0859375, 0.9611806550777537
3013.734375, 0.9587874095080612
2995.3828125, 0.9636066837789752
2968.875, 0.9513732469969013
2926.0546875, 0.9163153438106806
2895.46875, 0.9444077883762598
2854.6875, 0.9356991924622473
2791.4765625, 0.9731260224670363
2773.125, 0.9741808457929628
2758.8515625, 0.97492286450384
2742.5390625, 0.9758055492395394
2728.265625, 0.9754130531366841
2711.953125, 0.9762335107588949
2689.5234375, 0.9773503229135604
2677.2890625, 0.9761129903390038
2660.9765625, 0.9770729826606538
2650.78125, 0.9782765789646822
2638.546875, 0.978599397865367
2630.390625, 0.9787144946713069
2618.15625, 0.9778846195296926
2612.0390625, 0.9784883550632456
2595.7265625, 0.9790232463368951
2587.5703125, 0.978677897929424
2573.296875, 0.9795648148553255
2561.0625, 0.9792259022448135
2546.7890625, 0.9802093793209637
2538.6328125, 0.9804804609089375
2530.4765625, 0.980101614515688
2518.2421875, 0.9803191115569613
2501.9296875, 0.980469851965785
2485.6171875, 0.9816304136222567
2477.4609375, 0.9800161409324489
2446.875, 0.9802960443279518
2438.71875, 0.9814375927592326
2424.4453125, 0.9811334897549802
2404.0546875, 0.9807187604197397
2357.15625, 0.959572402768129
2340.84375, 0.9642272278766049
2328.609375, 0.9653627559277026
2312.296875, 0.9701457307854924
2291.90625, 0.9801951338994834
2275.59375, 0.9805934711417807
2265.3984375, 0.9824990922755829
2253.1640625, 0.98335108045285
2245.0078125, 0.9826996616104046
2236.8515625, 0.983133165886086
2226.65625, 0.9846803234619622
2216.4609375, 0.9814013534444743
2210.34375, 0.9840984036353035
2198.109375, 0.9869986464019168
2189.953125, 0.9857275775568322
2181.796875, 0.9850357462534349
2173.640625, 0.9793165611572541
2159.3671875, 0.9769151495902729
2149.171875, 0.9794383931976264
2141.015625, 0.9811860610643154
2126.7421875, 0.9847027949790972
2116.546875, 0.9847032715485967
2106.3515625, 0.9834019236705707
2088.0, 0.9836526203145063
2075.765625, 0.9874012158344163
2065.5703125, 0.9834389379379445
2053.3359375, 0.9883790900558743
2039.0625, 0.9864766288309004
2028.8671875, 0.9827996188998738
2018.671875, 0.980039386347842
2010.515625, 0.9816943698817173
1998.28125, 0.9869141270120342
1984.0078125, 0.9875086833109334
1961.578125, 0.9887370158915773
1957.5, 0.9883335523640874
1947.3046875, 0.9886271054691961
1928.953125, 0.9857176233695628
1914.6796875, 0.9867467572798749
1904.484375, 0.9827779223353543
1894.2890625, 0.9863828110639891
1882.0546875, 0.986485927207929
1857.5859375, 0.9890229396672632
1849.4296875, 0.9893814021708317
1839.234375, 0.9922893934092427
1835.15625, 0.9926590616221957
1814.765625, 0.9904459403449205
1804.5703125, 0.990797608570048
1796.4140625, 0.9906786970993966
1786.21875, 0.9843067214419229
1776.0234375, 0.9828549916365551
1739.3203125, 0.9241723089745505
1727.0859375, 0.9352512034259785
1712.8125, 0.9676286857447056
1690.3828125, 0.9962159085604559
1678.1484375, 0.9987656165360393
1665.9140625, 1.0010848335709843
1657.7578125, 0.9986757926745804
1649.6015625, 1.0147929492994179
1641.4453125, 0.9993487889391705
1629.2109375, 1.0004896214618446
1619.015625, 1.0021444837446303
1610.859375, 0.996688692917349
1590.46875, 0.9800781297611878
1572.1171875, 1.0050912194507444
1566.0, 1.0043355510302614
1549.6875, 1.0084677038118375
1529.296875, 0.9997591669418338
1512.984375, 0.8950107355631982
1500.75, 0.9552748487394729
1478.3203125, 0.981176345161796
1468.125, 0.9759419250845079
1462.0078125, 0.9759910391562565
1451.8125, 0.9626611161195465
1439.578125, 0.9604002514350127
1423.265625, 0.9434435048203988
1413.0703125, 0.949453918163842
1390.640625, 0.9690489461477403
1376.3671875, 0.9470253864183902
1366.171875, 0.9484448708144522
1323.3515625, 0.9957320386909108
1311.1171875, 0.9997408084725261
1282.5703125, 0.9862395808422132
1254.0234375, 0.964203266552605
1229.5546875, 0.907923128891679
1217.3203125, 0.9372940934453822
1207.125, 0.9432254110128938
1178.578125, 0.9754272985581645
1160.2265625, 0.9869011932110351
1133.71875, 0.99730107101769
1111.2890625, 0.9691917588440253
1088.859375, 0.9727859184327753
1052.15625, 0.9820890116016782
1007.296875, 0.9940294319465091
972.6328125, 0.9581501169447211
942.046875, 1.0113410045863638
907.3828125, 0.9488904748945084
886.9921875, 1.014982849592721
840.09375, 0.9551208303338035
831.9375, 0.929836300574791
817.6640625, 0.8786968253226078
793.1953125, 0.9654375594150657
734.0625, 1.000696927085456
723.8671875, 0.9929717470948702
711.6328125, 0.9629726692124808
697.359375, 1.0314772426072107
676.96875, 1.0030681186635044
644.34375, 0.9971673785120501
621.9140625, 1.0517052719202382
583.171875, 0.9712368535245434
554.625, 1.036188752072849
515.8828125, 0.9266123448125025
495.4921875, 1.0063723616254734
##END=

##END=

