##TITLE=HMS-Q280
##JCAMP-DX=4.24
##DATA TYPE=INFRARED SPECTRUM
##DATE=28/7/2021
##SAMPLING PROCEDURE=Diamant-ATR
##ORIGIN=Angelika Moesle
##XUNITS=1/CM
##YUNITS=TRANSMITTANCE
##RESOLUTION=4
##FIRSTX=3997.453
##LASTX=373.96442
##DELTAX=-1.4165319
##MAXY=0.93679023
##MINY=0.30056024
##XFACTOR=1
##YFACTOR=8.7245389e-010
##NPOINTS=2559
##FIRSTY=0.93643528
##XYDATA=(X++(Y..Y))
3997+1073334987+1073741823+1073410957+1072510452+1071648821+1071346307
3989+1071622382+1072138322+1072593323+1072867006+1072949125+1072887980
3980+1072751411+1072588062+1072401621+1072131012+1071718027+1071258654
3972+1070953613+1070866234+1070936602+1071190951+1071641306+1072036596
3963+1072072258+1071822145+1071641033+1071656336+1071702246+1071683322
3955+1071638778+1071535959+1071345351+1071277100+1071610289+1072204386
3946+1072597695+1072687739+1072778192+1072958689+1072950559+1072693409
3938+1072480051+1072446165+1072494193+1072667038+1073078042+1073408839
3929+1073146428+1072385976+1071672322+1071344462+1071327178+1071324650
3921+1071061351+1070399892+1069578842+1069304270+1070015055+1071212266
3912+1072030789+1072056613+1071484378+1070785003+1070347970+1070338952
3904+1070635317+1070969668+1071341935+1071832119+1072151781+1071967799
3895+1071346854+1070623908+1070201632+1070297005+1070559962+1070464522
3887+1069950836+1069306866+1068783206+1068474270+1068677996+1069655222
3878+1070760272+1071098380+1070654515+1070058915+1069876915+1070120470
3870+1070508792+1070850794+1071056979+1071092094+1070984288+1070887276
3861+1070939129+1070966320+1070635522+1069957053+1069609312+1070648025
3853+1072688490+1073173687+1071955912+1070422642+1069036531+1067964820
3844+1067593646+1068107605+1069023413+1069873977+1070910162+1072110790
3836+1072446233+1071500502+1070105577+1069112091+1068546278+1067989005
3827+1067388349+1067072172+1067138099+1067341005+1067646593+1068285575
3819+1069074174+1069651533+1070120129+1070557776+1070517195+1069669774
3810+1068305934+1067162216+1067009319+1067904290+1068962200+1069567501
3802+1069895634+1070193639+1070199993+1069640465+1068778970+1068300127
3793+1068679499+1069706324+1070688333+1070894722+1070142879+1069040971
3785+1068407318+1068405337+1068498796+1068251211+1067802086+1067673989
3776+1068096606+1068639942+1068666586+1067992899+1067135708+1066792955
3768+1067054614+1067662784+1068582008+1069616690+1070243716+1070168020
3759+1069697716+1069537578+1069926856+1070367851+1070415127+1070105440
3751+1069698331+1069019041+1067677404+1066012417+1065159189+1066047669
3742+1067494653+1067838363+1067133727+1066076363+1065232084+1065109726
3734+1065902151+1066936901+1067492398+1067514192+1067178749+1066627419
3725+1066065159+1065667819+1065429046+1065416954+1065760390+1066270387
3717+1066571945+1066517700+1066263829+1066271480+1067162967+1068605578
3708+1069293681+1068951201+1068286941+1067794980+1067388144+1066832716
3700+1066328799+1066269841+1066576932+1066771639+1066583695+1066325930
3691+1066522824+1067173215+1067538445+1067168023+1066437152+1065750826
3683+1065325681+1065230786+1065250872+1064962363+1064143499+1063270732
3674+1063285420+1063990329+1064545758+1064909348+1065486570+1066220378
3666+1066712202+1066874390+1066885731+1066947354+1067136459+1067381176
3657+1067509068+1067320304+1066748821+1065884388+1064814932+1063844265
3649+1063903018+1065300813+1066650238+1067120336+1066905543+1066453344
3640+1066086133+1065856788+1065688451+1065589799+1065607631+1065693233
3632+1065801928+1066056824+1066536761+1066789607+1066390354+1065653882
3623+1064990306+1064624324+1064683283+1065017633+1065119701+1064905591
3615+1064982517+1065730057+1066716438+1067222267+1067049695+1066406204
3606+1065536101+1064681506+1064044984+1063692051+1063554663+1063525969
3598+1063574475+1063731949+1063986503+1064207718+1064206489+1063989305
3589+1063891541+1064315115+1065066139+1065368858+1064946035+1064100664
3581+1063323542+1063157460+1063755997+1064642087+1065305253+1065705053
3572+1065966439+1066063178+1065968283+1065723020+1065271709+1064588593
3564+1063877741+1063285967+1062831649+1062606062+1062789634+1063358862
3555+1063852053+1063635689+1062597659+1061508117+1061260805+1061879223
3547+1062578871+1062635507+1062263719+1062182966+1062439570+1062505771
3538+1062144845+1061658554+1061476213+1061757343+1062339347+1062860821
3530+1062996980+1062731631+1062346247+1062049677+1061768137+1061417049
3521+1061164886+1061215920+1061493224+1061763150+1061931281+1062049609
3513+1062164110+1062299517+1062444216+1062514106+1062483772+1062466146
3504+1062524763+1062542389+1062361072+1061976440+1061527998+1061139403
3496+1060789954+1060386261+1060000740+1059866290+1060060314+1060377311
3488+1060544965+1060448089+1060138948+1059753086+1059467515+1059510488
3479+1060054712+1060951391+1061646530+1061577734+1060696290+1059445653
3471+1058353652+1057808676+1057913750+1058352286+1058712460+1059002540
3462+1059525039+1060310564+1061019914+1061290250+1060935541+1060031279
3454+1058979312+1058296470+1058210457+1058538727+1058938868+1059219315
3445+1059422903+1059609822+1059655596+1059370913+1058756526+1058044512
3437+1057517435+1057312343+1057337348+1057426435+1057590604+1057981522
3428+1058575140+1059088143+1059284422+1059209340+1059072362+1059029389
3420+1059064983+1058996870+1058690325+1058282601+1058025109+1057956859
3411+1057981590+1058104427+1058290458+1058326598+1058091446+1057654140
3403+1057055125+1056417372+1056163433+1056592199+1057353403+1057764679
3394+1057553302+1057042691+1056754387+1056924227+1057339124+1057641228
3386+1057728539+1057766456+1057871529+1057924749+1057775064+1057544558
3377+1057532192+1057703398+1057538067+1056639680+1055289231+1054167033
3369+1053702400+1053834527+1054251543+1054752317+1055311366+1055803122
3360+1055922952+1055569200+1055064463+1054791600+1054795835+1054890661
3352+1054962806+1055015616+1055022311+1054878569+1054522084+1054090858
3343+1053864178+1053956544+1054111354+1053956954+1053473533+1053038891
3335+1052993050+1053334710+1053834117+1054198391+1054180902+1053827559
3326+1053540075+1053631144+1053964742+1054220800+1054270535+1054152481
3318+1053965220+1053836509+1053768054+1053603885+1053339697+1053239679
3309+1053444224+1053702673+1053706772+1053502568+1053361149+1053339697
3301+1053206750+1052829564+1052422045+1052323735+1052656103+1053212625
3292+1053617343+1053677054+1053546770+1053356299+1052922272+1052199873
3284+1051648407+1051691311+1052157174+1052611013+1052845687+1052814056
3275+1052508262+1052092613+1051822687+1051724104+1051570388+1051226951
3267+1050876819+1050829406+1051147770+1051574213+1051817905+1051827196
3258+1051774113+1051836078+1052021426+1052217158+1052357347+1052439329
3250+1052395401+1052118369+1051657220+1051261179+1051153304+1051286251
3241+1051414485+1051414758+1051388114+1051375885+1051224013+1050903737
3233+1050696869+1050818475+1051125498+1051412982+1051710782+1052082161
3224+1052405648+1052538664+1052451627+1052087763+1051380394+1050539941
3216+1050052285+1050193977+1050699601+1051094482+1051229206+1051266576
3207+1051280239+1051181861+1050983123+1050815879+1050668175+1050368052
3199+1049873837+1049384609+1049127254+1049162643+1049394789+1049656721
3190+1049792402+1049747311+1049599539+1049458598+1049338358+1049212447
3182+1049180679+1049373815+1049654672+1049666149+1049279399+1048791059
3173+1048602705+1048876389+1049470554+1050035752+1050213106+1049871924
3165+1049158065+1048359287+1047788350+1047641329+1047782953+1047798871
3156+1047449012+1046991826+1046915104+1047396407+1048129327+1048646975
3148+1048731690+1048455821+1047914192+1047101477+1046111065+1045296368
3139+1045065179+1045468872+1046067888+1046327839+1046141808+1045790379
3131+1045420503+1044912146+1044277126+1043785712+1043600228+1043572832
3122+1043467143+1043183417+1042800356+1042511096+1042432598+1042465801
3114+1042463888+1042452000+1042496271+1042490464+1042299992+1041972405
3105+1041619268+1041237983+1040813179+1040416659+1040079508+1039764082
3097+1039546761+1039575386+1039774603+1039855902+1039666591+1039296101
3088+1038853808+1038328986+1037621070+1036593904+1035222275+1033781919
3080+1032710550+1032182722+1031976947+1031785382+1031479452+1031096186
3071+1030718590+1030372284+1029992229+1029530807+1029057975+1028675939
3063+1028432042+1028388865+1028618688+1029023133+1029284382+1029092271
3054+1028434570+1027676987+1027315583+1027576081+1028305380+1029224945
3046+1030061914+1030466632+1030222052+1029605410+1029142280+1028933772
3037+1028611241+1027951012+1027117050+1026329134+1025742757+1025585625
3029+1025930838+1026446641+1026845962+1027373107+1028362016+1029592293
3020+1030541919+1030938507+1030724602+1029957933+1029019512+1028452743
3012+1028437576+1028785385+1029356663+1030072708+1030687369+1030946842
3003+1030896150+1030784313+1030742912+1030736900+1030783561+1030994050
2995+1031317879+1031488470+1031370689+1031137450+1031002112+1031043308
2986+1031278869+1031569564+1031590811+1031268348+1030995211+1031065033
2978+1031221619+1031119141+1030879207+1030813075+1030870120+1030753706
2969+1030464173+1030348919+1030573209+1030842656+1030779599+1030337920
2961+1029704745+1028979751+1028102952+1027043334+1025980710+1025204818
2952+1024770791+1024361496+1023604391+1022445575+1021151830+1020079846
2944+1019479874+1019368378+1019513350+1019637279+1019666929+1019690636
2935+1019669389+1019384911+1018769704+1018085222+1017639854+1017536079
2927+1017783255+1018405635+1019310649+1020253989+1021055911+1021784253
2918+1022653399+1023755307+1024947599+1026044451+1027012864+1027891029
2910+1028622309+1029085508+1029251794+1029280557+1029449645+1029891323
2901+1030414369+1030711417+1030680400+1030472166+1030334026+1030413754
2893+1030573140+1030496214+1030143349+1029870622+1029920905+1030071137
2884+1029983826+1029648451+1029289711+1029018214+1028735649+1028301349
2876+1027744076+1027318589+1027267692+1027480572+1027543152+1027212149
2867+1026687395+1026339382+1026336649+1026588539+1026910113+1027210441
2859+1027564467+1028074942+1028696981+1029311027+1029892894+1030475035
2850+1031017278+1031478222+1031909653+1032320793+1032560044+1032535245
2842+1032438437+1032521171+1032750174+1032940373+1033104610+1033406099
2833+1033861646+1034318969+1034642184+1034802800+1034869616+1034946337
2825+1035050045+1035083179+1034986850+1034856157+1034843723+1034992657
2816+1035201370+1035337802+1035353583+1035294010+1035240789+1035254931
2808+1035336435+1035436522+1035506616+1035487965+1035263130+1034748351
2799+1034072477+1033562070+1033477628+1033777546+1034150701+1034261240
2791+1033984893+1033483436+1033101467+1033130708+1033574436+1034142640
2782+1034508895+1034569356+1034446520+1034300455+1034200095+1034171812
2774+1034258713+1034431422+1034514838+1034334546+1033935977+1033583454
2765+1033516297+1033705197+1033899768+1033964397+1033993022+1033984688
2757+1033702943+1033094362+1032537636+1032390683+1032509352+1032455175
2748+1032069313+1031656124+1031597575+1031904188+1032237103+1032324687
2740+1032201031+1032044924+1031941080+1031867022+1031849465+1032007143
2731+1032346822+1032615177+1032562572+1032294559+1032158947+1032314030
2723+1032595228+1032770943+1032767049+1032632052+1032459480+1032416644
2714+1032662932+1033089375+1033354245+1033338737+1033307652+1033450711
2706+1033579150+1033449550+1033093542+1032684999+1032334457+1032103609
2697+1032006119+1031946135+1031819336+1031686935+1031694109+1031824802
2689+1031916690+1031920242+1031942378+1032014863+1032039526+1031977698
2680+1031896809+1031814896+1031674296+1031464081+1031256119+1031111353
2672+1031020558+1030934886+1030819702+1030659836+1030457751+1030260925
2663+1030153802+1030163777+1030233325+1030331088+1030498537+1030730888
2655+1030913229+1030930309+1030787182+1030626839+1030657992+1030979976
2646+1031433679+1031681060+1031482936+1030873810+1030114246+1029510038
2638+1029218114+1029212648+1029430994+1029803465+1030097303+1030021879
2629+1029627682+1029342248+1029447390+1029767325+1030003570+1030147039
2621+1030386153+1030747147+1031024657+1031087510+1031064828+1031117980
2612+1031217929+1031292192+1031365839+1031395284+1031246555+1030977927
2604+1030843203+1030925458+1031038184+1030985784+1030723441+1030388066
2595+1030244802+1030352062+1030359441+1030017097+1029660817+1029709391
2587+1030005415+1030167671+1030203470+1030275477+1030276092+1030048797
2578+1029669903+1029271743+1028879049+1028483213+1028101381+1027875247
2570+1028106642+1028865727+1029665736+1029973373+1029838581+1029550482
2561+1029045541+1028226814+1027451537+1027087946+1026945571+1026689787
2553+1026489887+1026747789+1027418675+1028038050+1028338104+1028509037
2544+1028840381+1029301804+1029569680+1029415485+1028968546+1028538482
2536+1028276003+1028137248+1028096667+1028201126+1028450351+1028787093
2527+1029162707+1029488449+1029631850+1029584368+1029521584+1029565786
2519+1029607392+1029449849+1029019239+1028391803+1027794017+1027576764
2510+1027924505+1028545656+1028930083+1028980366+1029059342+1029400934
2502+1029895627+1030467862+1031149201+1031686047+1031592997+1030848259
2493+1030171907+1030269534+1030977790+1031503637+1031426505+1031030464
2485+1030685319+1030419014+1030154280+1029908471+1029701329+1029539483
2476+1029400592+1029135517+1028653804+1028200716+1028122082+1028418378
2468+1028793036+1028973944+1028810731+1028294244+1027618302+1027033975
2459+1026607258+1026288484+1026167902+1026411321+1026937236+1027415328
2451+1027639685+1027682863+1027648499+1027536866+1027370784+1027199305
2442+1026986288+1026642783+1026086399+1025277099+1024422163+1024041151
2434+1024472103+1025405469+1026222147+1026638821+1026725927+1026545225
2425+1026208074+1026077517+1026378801+1026724356+1026564901+1026032222
2417+1025778556+1026025322+1026293062+1026103683+1025585898+1025278602
2408+1025469347+1025837583+1025874680+1025569092+1025348150+1025364615
2400+1025283794+1024852705+1024269266+1023841798+1023607534+1023430248
2391+1023268470+1023193046+1023228914+1023297164+1023349700+1023498635
2383+1023892217+1024415467+1024689697+1024539260+1024326380+1024544043
2374+1025142375+1025562396+1025420158+1024883175+1024470327+1024770176
2366+1026092069+1028005530+1029491592+1029851698+1029204791+1028093388
2357+1027014640+1026205546+1025511841+1024602113+1023440974+1022332098
2349+1021573012+1021265853+1021294615+1021431183+1021672006+1022209740
2340+1022861839+1023105257+1022810395+1022394268+1022201405+1022133770
2332+1021856807+1021133930+1020067753+1019115942+1018727961+1018872728
2323+1019036009+1018857971+1018640992+1018823607+1019240896+1019429728
2315+1019293638+1019007930+1018626645+1018156068+1017746294+1017586429
2306+1017765834+1018232243+1018803590+1019376986+1020100410+1021057072
2298+1021913853+1022278195+1022277512+1022360450+1022626345+1022772342
2289+1022645953+1022457736+1022427880+1022545525+1022685987+1022702110
2281+1022507676+1022329502+1022631538+1023469121+1024222605+1024352273
2272+1024095806+1023987658+1023986906+1023610472+1022790173+1022103300
2264+1022124820+1022882129+1023935872+1024751867+1025046183+1024878393
2255+1024388277+1023624135+1022819481+1022504875+1023016785+1024046548
2247+1024867189+1024995832+1024650141+1024398456+1024268105+1023690199
2238+1022604074+1021805227+1021701109+1021545343+1020440225+1018310058
2230+1015409532+1011617452+1006831544+1001742028+997734062+995902582+996220946
2220+997733925+999553859+1001536390+1003978773+1006892415+1009854427+1012491449
2210+1014806144+1016971017+1018957033+1020443026+1021109199+1020985543
2201+1020457646+1020032979+1020206371+1021048191+1021588862+1020488048
2193+1017907731+1015772030+1015592352+1016904270+1018126555+1018171167
2184+1017103965+1015896437+1015625897+1016662150+1018525944+1020299421
2176+1021212223+1021196646+1020726684+1019948606+1018618789+1017095493
2167+1016450021+1017103623+1018093079+1018333901+1018322902+1019849954
2159+1023669157+1027914325+1029873560+1028797546+1026220508+1024235448
2150+1023606714+1023493784+1023129374+1023005239+1023689926+1024451881
2142+1024169931+1022911780+1021630263+1020888052+1020651192+1020697171
2133+1020590731+1019888418+1018786920+1017932189+1017525694+1017273873
2125+1017088252+1017093102+1017109635+1016793253+1016158780+1015566801
2116+1015340599+1015556622+1015951844+1015994679+1015362188+1014382024
2108+1013753768+1013824819+1014352373+1014959177+1015528133+1016091623
2099+1016632226+1017106424+1017464344+1017634799+1017596062+1017415702
2091+1017193940+1016998208+1016806438+1016591372+1016507204+1016624233
2082+1016427954+1015273032+1013471203+1012110574+1011755318+1012124716
2074+1012896645+1014013378+1015314365+1016398851+1016830145+1016466213
2065+1015759664+1015430574+1015665180+1016071059+1016410192+1016737710
2057+1016849001+1016241855+1014872413+1013583177+1013438683+1014626877
2048+1016195125+1017156638+1017530477+1017575157+1016869770+1015353921
2040+1014351007+1015113919+1016998618+1018147255+1017589845+1016152017
2031+1015356449+1015673924+1016258457+1016580988+1017457376+1019524895
2023+1021634089+1022105554+1020988207+1019863960+1019811423+1020461541
2014+1020928838+1020685693+1019527355+1017884503+1017046304+1017666362
2006+1018431596+1017799788+1016160898+1014884369+1014455261+1014489352
1997+1014599686+1014535398+1014016042+1012986416+1011968198+1011591832
1989+1011665548+1011667871+1012013015+1013348366+1014843788+1015107018
1980+1014618474+1015045054+1016296851+1016602098+1015456672+1014164088
1972+1013825707+1014369316+1015081262+1015297968+1014831695+1013920191
1963+1012693945+1010950118+1008787841+1007231548+1007375153+1008843657
1955+1010076325+1010287293+1010147923+1010405552+1010978265+1011497690
1946+1011789819+1011779640+1011586162+1011614446+1012003656+1012272625
1938+1011943945+1011119001+1010293851+1009824572+1009673520+1009509829
1929+1009017869+1008285700+1007767847+1007723030+1007983938+1008362285
1921+1008798908+1008992113+1008525293+1007549638+1006654804+1006050186
1912+1005559318+1005054036+1004491570+1003841658+1003182727+1002644104
1904+1002171410+1001473537+1000324627+998942068+997895362+997567638+997801150
1894+998063630+997976250+997736316+997981921+998994195+1000285754+1001407747
1884+1002380191+1003199465+1003678035+1003803741+1003758241+1003668129
1875+1003630827+1003779215+1004155171+1004670770+1005149818+1005328334
1867+1005064488+1004498061+1003859215+1003408382+1003420816+1003970233
1858+1004843205+1005677373+1006096369+1005914164+1005328676+1004710941
1850+1004225744+1003845005+1003623244+1003796294+1004525388+1005413185
1841+1005849125+1005868049+1005959664+1006376201+1006784472+1006695590
1833+1006088923+1005329086+1004660590+1003979866+1003254803+1002775549
1824+1002665010+1002606119+1002357167+1002104321+1002134244+1002458825
1816+1002737359+1002608442+1002146815+1001835966+1001935574+1002034499
1807+1001646929+1000941405+1000529787+1000769994+1001355005+1001647066
1799+1001499771+1001288326+1001208120+1001175601+1001174713+1001378370
1790+1001866026+1002420567+1002855413+1003188124+1003481961+1003714790
1782+1003899796+1004096280+1004144581+1003790145+1003135860+1002612678
1773+1002597375+1002983715+1003128823+1002745899+1002183160+1001751388
1765+1001475997+1001359855+1001443136+1001559003+1001517944+1001434869
1756+1001401051+1001259427+1000955820+1000676603+1000532930+1000320733
1748+999854323+999335445+998964818+998611748+998068959+997399370+996810329
1738+996342621+995973702+995689771+995185991+994113187+992795394+991649011
1728+990815663+990219654+989518161+988379840+986915367+985467563+984024269
1718+982045700+978720302+974105190+969068963+963606020+957074577+949134545
1708+939259122+925645385+907484854+887872694+867676958+840311754+801391587
1698+760540469+723013314+684570761+650368867+625530282+606349894+589872592
1689+577755574+571907280+574114887+588164905+610098797+630625331+649887154
1679+670305813+693953609+723258031+755139900+782091573+804199541+827159371
1669+850227212+867043442+877688472+886247126+895081377+903524574+909815946
1659+914017185+917087892+919535057+921957558+925214911+927909115+928973037
1649+929848264+931954383+935357527+938485212+940783306+942803959+944896756
1639+947076932+949532363+952807820+956289326+958453106+959476720+960114677
1629+960631369+961035541+961324596+961392231+961081451+960354065+959244984
1619+957932861+957003048+957131350+957925004+958468136+958214264+955817655
1609+948296074+932792787+910395764+887439760+872441278+870590806+879215251
1599+889877770+895913427+897006658+897762874+902518312+911285611+920960315
1589+929024276+935338466+941175111+947169504+952689288+956903235+959675595
1579+961464034+962947841+964494842+965338506+964705400+963129021+961499013
1570+960887836+962020282+964362168+967054322+969422511+970970538+971828753
1560+972840139+974230759+974663420+974410368+974208078+974087769+973886025
1550+973567661+973217529+972981489+972925673+972880788+972671051+972694757
1540+973528856+974506356+974993876+975193297+975353162+975409798+975024551
1530+974157932+972976297+971386528+969126829+965466466+957724558+942491265
1520+919883549+888159973+839675095+773652818+701024904+631597502+572443204
1510+534362568+535601283+600999198+698995096+761474040+795472960+821815233
1500+846660992+869367087+887821318+899832853+905005306+904780061+899365213
1490+887317675+870197497+855209330+847427797+847437635+854824014+868114674
1480+883603614+897413015+908298799+916863603+923734246+929193774+933026504
1470+934938257+935466563+935327331+934827240+933939169+932479205+930236039
1460+926647479+919133071+901577090+874583059+851867673+838592316+833550214
1451+836854843+848345313+864620052+879409412+888754001+893105746+894350575
1441+894038838+893518321+894301728+897645571+902750458+907762705+912272948
1431+916342333+919300588+920450250+919970655+918363738+916005729+913159789
1421+909687029+905131969+899816456+894687112+889450507+883050509+874913379
1411+865391503+855712563+847233363+840782946+836975015+836274342+838489497
1401+843303963+850566754+859455796+868952736+878955709+888953354+897536262
1391+904430134+910623128+916850827+922654338+926965775+929674052+931624884
1381+933627023+935967269+938436022+940527521+941410605+939896396+935206954
1371+927557685+917631228+906855163+897707263+892153183+890632484+892394893
1361+895389083+897332058+897372161+895692758+892792369+889518689+887048979
1351+886531467+888694701+893588552+900626371+908834347+917075868+924517790
1341+931017328+936704288+941304302+944372071+945870703+945883273+944126603
1332+939880888+932310117+921192734+907666854+894201436+883508515+877069712
1322+874596723+874950612+877319552+881440449+887210279+894438911+902615529
1312+910768168+917853263+923213524+926519724+927593962+926435146+923293388
1302+918668916+913234803+907826378+903550125+901521342+902036804+904158500
1292+906428173+907872834+908269559+907773431+906535502+904582621+901886367
1282+898483428+894546649+890388382+886408904+882975632+880274459+878243285
1272+876612798+875008273+873037424+870255226+866064234+859771086+850794937
1262+838790576+823687772+805754126+785472377+763261932+739442384+714399527
1252+688574492+662341528+636065729+610221087+585260964+561370672+538516497
1242+516735159+496199061+477066359+459569849+444330168+432418242+425014817
1232+422906239+426068150+433479056+443266383+453202165+461329970+466324625
1222+467481460+464627254+458110090+448702033+437351274+424943630+412169969
1213+399519351+387398951+376228655+366372259+358060575+351462146+346818511
1203+344499853+344927902+348413848+355031611+364565784+376513919+390167178
1193+404733376+419399182+433310583+445567448+455450284+462952702+469055208
1183+475108696+481806870+488882025+495733915+502127902+508338556+514871502
1173+522095727+529976971+538029421+545505502+551689683+556074938+558257403
1163+557509077+552330543+540945318+523240949+502331456+483071204+468361948
1153+457364873+447352813+436602095+425653184+416740094+412093897+412223224
1143+415929940+422247718+431736766+445140868+461066910+475834271+485976820
1133+490846486+492959471+496179693+503430631+515431849+530934112+547891829
1123+564648281+580599737+596144630+611918936+627886925+643166264+656688865
1113+667900049+676814096+683498846+687466846+687513303+682580168+673556744
1103+664332941+660106014+663454093+671621079+678138312+678059267+672271606
1094+666521794+665919772+670806928+678002016+684758500+690646589+696633534
1084+703643069+711885137+720869961+729860115+738380853+746375402+754004039
1074+761380102+768480637+775258573+781724840+787864546+793589217+798835386
1064+803580850+807755513+811296729+814296794+816932449+819222755+820936522
1054+821716718+821215124+819103403+815025068+808663465+799970496+789351427
1044+777661877+766076650+755839686+747872258+742501067+739576698+738807774
1034+739905514+742463833+745825166+749032441+750750171+749364127+743844548
1024+735150623+726477193+721144738+719822709+720257009+720031285+719224718
1014+719966724+723730384+729861413+736921230+744621191+753746888+764664304
1004+776658349+788537550+799324477+808441566+815654759+820971911+824597431
994+826943211+828465345+829365371+829614870+829341460+828992695+829062584
984+829823036+831268039+833099381+834806795+835983169+836552466+836578905
975+836002503+834711217+832742213+830267926+827456146+824437771+821372461
965+818466402+815892370+813762271+812235970+811532427+811682454+812378892
955+813202333+813881487+814284428+814364019+814204428+813954861+813692723
945+813522064+813816652+815174822+818036953+822357886+827624072+833126640
935+838285089+842857434+846900379+850480741+853462634+855647661+857042722
925+857840886+858205092+858236518+858124954+858156995+858564515+859439332
915+860728909+862234510+863668650+864759490+865257804+864937732+863743527
905+861849604+859407905+856329478+852462589+847871935+842800524+837425575
895+831785755+825993791+820526065+816218522+813806268+813440765+814807406
885+817647879+821876651+827181028+832849883+838097623+842371212+845465556
875+847684879+849757659+852173534+854581894+856034070+855725544+853438791
866+849638307+845564550+843093132+843823934+847762284+852995063+856999477
856+858162256+855932549+850100003+840516436+827248389+810469666+790129437
846+765737244+736357194+701071087+660199884+616891422+577854362+552067586
836+547348083+566096665+602892574+646570501+686117148+715784955+735598586
826+748376995+756921371+762908999+766935002+769128501+769715356+768998696
816+767138796+764153419+759808233+753421146+744188736+731885140+717152621
806+701253087+685843533+672971938+664814244+662902149+667563855+678183743
796+693671249+712326405+731625735+748841423+762107351+770948707+776049905
786+778570034+779345379+778356812+774924701+768872170+761705571+755928773
776+752572632+749883688+745050094+737030745+727512968+719440467+714822281
766+713774892+715083940+716857007+716480300+710997203+698638474+680197974
756+658829758+638501485+622535545+613328003+612318872+618560713+627808974
747+635854694+643351749+654599279+670622879+686006950+693942678+692996878
737+688199151+686520841+691529946+701621392+712744309+722057267+728725620
727+732491329+732943392+730291341+726580559+726056420+733060831+747926025
717+765392714+777957149+780625392+773400928+760508018+747302346+737320346
707+731354375+728395779+726891408+725359231+722749264+718954724+715128962
697+713390942+715945845+723923247+736555317+751463073+765979569+778370954
687+788050440+795093861+799716967+801975231+801899124+799903339+796756252
677+792829516+787316769+778852189+767493232+754920872+742306223+730290043
667+721523085+717969572+717991571+719977791+723657898+729251330+736509407
657+744133603+750181966+753234500+753125669+750931146+748484050+747430717
647+748280461+750144938+751449273+751284147+750367109+750436248+752565663
637+756388624+760929952+765632239+770427506+775200776+779442391+782449289
628+783870858+783993762+783334968+782029130+779926905+777124075+773939482
618+770660745+767831271+766332229+766523589+767610466+768207637+767322367
608+764678719+760406838+754786148+748303894+741720734+735887505+731480149
598+728977305+728798379+731121272+735454571+740645266+745579493+749968335
588+754410670+759752485+766297182+773361850+779616945+783978186+786230916
578+786668496+785162007+781137644+774619318+766591565+757988777+748790799
568+738480529+727360755+716886043+708619859+703294372+700683107+700169694
558+701682605+705910557+713163989+722327944+731564044+739858511+747487353
548+755131975+762732396+769203241+773365880+774805007+773438776+768838079
538+760448854+748205994+732938268+716469096+700989788+687873340+677016592
528+667627527+659991854+655951778+656668096+660901992+666326130+670749609
518+672465836+671700670+671548046+675720729+685927633+701556284+720485807
509+739832209+756487481+768314760+775461342+779887759+783810601+788568908
499+794311957+800440390+806265899+811457277+815843113+818828011+819715535
489+818766456+816982253+814515140+809861701+801581034+790698734+779977119
479+771365245+765233464+761495560+760870925+764803127+773693262+785916652
469+799353308+811819501+820925318+826005131+828607789+830102117+830433051
459+829644042+829412443+831306024+834136113+835706343+835559322+834847717
449+834188581+833022113+831167542+829501803+828821420+828993583+829361136
439+829635297+829985634+830206576+829873797+830035438+832650598+837342363
429+841115725+842354815+842488173+843012721+843734027+844432992+845514336
419+846334771+845608752+844279413+843402273+842715126+842463851+843638039
409+846121755+848101690+848227191+847442964+847834155+850244018+853679681
399+855925512+854029608+847292049+839682473+834926215+833713359+834986813
390+837427693+840398245+844314596+850283779+857437124+861688715+861538346
380+860724195+863951283+872266724+880148412+880578134
##END=
