##TITLE=YM-277
##JCAMP-DX=4.24
##DATA TYPE=INFRARED SPECTRUM
##DATE=9/1/2020
##SAMPLING PROCEDURE=Diamant-ATR
##ORIGIN=Marie
##XUNITS=1/CM
##YUNITS=TRANSMITTANCE
##RESOLUTION=4
##FIRSTX=3997.453
##LASTX=373.96442
##DELTAX=-1.4165319
##MAXY=0.89887422
##MINY=0.57225245
##XFACTOR=1
##YFACTOR=8.3714186e-010
##NPOINTS=2559
##FIRSTY=0.82741868
##XYDATA=(X++(Y..Y))
3997+988385276+988417458+988144121+987641946+987075976+986675261+986534499
3988+986514064+986458742+986398934+986490141+986873340+987581355+988478335
3978+989316289+989922060+990265245+990314373+990010989+989484820+989089873
3968+989062318+989303189+989592119+989805933+989870298+989729393+989423374
3958+989089588+988908384+989031133+989430779+989918429+990432779+991065464
3948+991611569+991565645+990861120+990112165+989910811+990200382+990577387
3938+990806367+990782728+990483830+990154387+990154885+990399885+990335093
3928+989718926+988988413+988759504+989157157+989791693+990414054+991127551
3918+991867819+992185016+991874298+991321429+990952825+990824523+990729684
3908+990405225+989760222+989113013+988995675+989440890+989987137+990549263
3898+991294800+991919724+992033573+991872589+992089038+992729483+992892389
3888+992271595+991873515+992470315+993163377+992900649+992375974+992478218
3878+992478431+991543217+990323558+989836620+990186712+991024026+992217127
3869+993176976+993178116+992560240+992245749+992488400+992688401+992321150
3859+991333177+990042175+989280476+990315370+993065121+994857158+994664989
3849+993697663+992846892+992396836+992329908+992402390+992420831+992668678
3839+993699087+995455239+997008685+997634534+997385334+996637376+995768947
3829+995201767+995208531+995281725+994403755+992615848+991433783+991821325
3819+992686692+993303285+994147791+994929141+994801266+993909840+992925925
3809+992525993+993328490+994731775+994996212+994032945+993658503+994599413
3799+995331850+995236869+995298314+995957770+996690349+997101601+997124812
3789+996736273+996236448+996226622+996787893+997188821+996998290+996861941
3779+997509364+998442229+998584131+997784909+996728868+996183688+996550512
3769+997409115+997826632+997667002+997585762+997805771+998061166+998379573
3759+998832477+998878401+998047638+996739691+995679662+995514692+996581270
3750+997874123+997917697+997205411+997663798+999926041+1001584222+1000948262
3740+999006775+997306658+996844212+997592099+998598941+999148677+999192608
3730+998946611+998903749+999621304+1000930818+1001846737+1001849727+1001349617
3720+1000743063+1000066661+999367119+998799583+998654192+999401723+1001097568
3710+1002785084+1003589859+1003447672+1002505409+1001155668+1000202653
3701+1000134586+1000466877+1000587704+1000550181+1000577522+1000596390
3693+1000478483+1000471861+1001120424+1002386576+1003276721+1003212641
3684+1002550337+1001879061+1001599530+1001608857+1001422740+1001171474
3676+1001846950+1003229088+1003620618+1003131615+1003287116+1004339383
3667+1005038712+1004972424+1004636715+1004305279+1003929698+1003443400
3659+1003004380+1003028090+1003480638+1003353617+1002039404+1000434054
3650+1000348329+1002826024+1006014012+1007304016+1006586817+1005266623
3642+1004646612+1005061780+1005743380+1005778268+1005156548+1004550492
3633+1004251166+1004007947+1004066117+1005347720+1007471906+1008567392
3625+1008242292+1007415302+1007001060+1007590739+1008891851+1009521973
3616+1008786333+1007553786+1006685216+1006112766+1005574208+1005302651
3608+1005441633+1005541171+1005283640+1005069897+1005476165+1006470689
3599+1007355992+1007620857+1007446274+1007198925+1006916474+1006469052
3591+1005962107+1005806392+1006385534+1007351934+1007729295+1007256455
3582+1006541747+1006129783+1006091264+1006336975+1006890699+1007625200
3574+1008085865+1007886220+1007110138+1006294469+1006237366+1007415729
3565+1009082241+1009950598+1009733010+1009081600+1008739341+1008946675
3557+1009366828+1009510154+1009194879+1008597296+1007953219+1007374148
3548+1006962042+1006903942+1007402059+1008483162+1009757574+1010533086
3540+1010435613+1009813253+1009271704+1008928235+1008467498+1007781129
3531+1007160334+1006978062+1007380200+1008159486+1008853973+1009069994
3523+1008793737+1008387113+1008190672+1008167247+1008040012+1007713417
3514+1007358057+1007081373+1006762681+1006255238+1005559256+1004766656
3506+1003965939+1003208155+1002539799+1002093232+1002015054+1002200530
3497+1002289459+1002037055+1001549832+1001090876+1000790553+1000497280
3489+999803007+998433685+996711923+995315260+994606320+994480652+994659222
3479+994835940+994748222+994374634+993876732+993205955+992108333+990681624
3469+989470153+988713509+987946896+986729801+985372583+984464923+983999701
3459+983460360+982574701+981537671+980575258+979631357+978525903+977210978
3449+975842013+974707865+973957273+973259725+972074527+970461273+969112030
3439+968341644+967641533+966547685+965279182+964214170+963295759+962193794
3429+960731698+959071382+957593337+956473287+955381575+953829554+951794582
3420+949770432+948172344+946925273+945715226+944429066+943183704+942069706
3410+941078956+940176066+939244412+938097021+936691316+935204016+933793540
3400+932409409+930892988+929207395+927529278+926098368+924989568+924071798
3390+923123411+921945191+920509368+919039369+917746517+916485348+914981671
3380+913354320+912013051+911040101+910046432+908678605+906945379+905004035
3370+902933677+900854988+899039098+897673906+896577851+895343881+893788513
3360+892142009+890753392+889656055+888499764+886966397+885197714+883678872
3350+882725216+882212575+881760953+881064259+880059340+878860542+877580292
3340+876274410+875074900+874232673+873894259+873834593+873583897+872929710
3330+872157260+871644120+871397767+871157538+870746428+870177112+869597827
3320+869201527+869025022+868904907+868728971+868581587+868575535+868707825
3310+868881767+868976036+868955174+868907541+868907613+868925413+868903697
3301+868791129+868562292+868370336+868527404+869158949+870040692+870880997
3291+871588797+872203397+872729068+873122805+873392867+873686141+874280306
3281+875378640+876821868+878149537+879122417+880012775+881142508+882391928
3271+883495674+884551786+885859448+887463161+889144268+890723559+892150980
3261+893396129+894445192+895440499+896670553+898291354+900126823+901851292
3251+903274583+904377759+905245190+906033020+906862289+907742536+908675330
3241+909708729+910822869+911970118+913248588+914797975+916504714+918055454
3231+919287644+920274052+921076905+921685453+922260608+923139075+924406510
3221+925696087+926639133+927343659+928192864+929335769+930603345+931779145
3211+932769468+933614614+934473929+935514021+936702067+937791644+938629171
3201+939394004+940373006+941523743+942488648+943082742+943510014+944014396
3191+944592043+945156589+945747765+946450795+947272089+948181600+949126355
3182+949976414+950603403+951018429+951299740+951430962+951446840+951688066
3172+952554999+953949384+955323120+956350538+957133313+957737162+958065394
3162+958270807+958736670+959512396+960222404+960636361+960939389+961351923
3152+961821631+962191373+962435732+962637941+962864998+963121319+963391096
3142+963764114+964448846+965502822+966632840+967500699+968118147+968681767
3132+969188428+969473015+969452936+969147630+968675217+968343211+968506900
3122+969213134+970144361+970984523+971684279+972320239+972855593+973195930
3112+973395646+973623629+973970730+974427408+974958205+975464011+975798296
3102+975969390+976169818+976450347+976571102+976387121+976167042+976242015
3092+976496556+976495773+975976225+975015165+973913912+973061575+972732060
3082+972915899+973394578+973931427+974401776+974842576+975323747+975729018
3072+975880746+975889076+976046072+976394811+976756935+977124826+977678265
3063+978413265+979024162+979223950+979051076+978775033+978547762+978282470
3053+977921200+977652847+977721412+978106748+978561717+978967202+979476070
3043+980258631+981271239+982286554+982964380+982886700+981680569+979102838
3033+975000711+969440120+963022279+956901912+952360837+950290336+950838648
3023+953404987+957067239+961097525+965089149+968754392+971869969+974471338
3013+976818381+978997391+980765006+981918022+982610871+983214791+984015081
3003+985033457+985997436+986543968+986586973+986420436+986344608+986249627
2993+985691417+984338329+982158892+979242675+975751446+972039923+968500278
2983+965245433+962085926+958719368+954837392+950141954+944272212+936869245
2973+928060431+918783049+910215390+903008579+897253540+892676437+888537500
2963+883854594+878142346+871893321+866459110+863549372+864446779+869334030
2953+877328813+887102745+897443360+907476532+916603184+924317438+930176928
2944+933948258+935651794+935435274+933554735+930586044+927520022+925342578
2934+924350404+924025161+923716081+923288240+922967269+922799664+922617463
2924+922509167+922975172+924403448+926543084+928690126+930328157+931440446
2914+932195025+932481820+931986694+930768601+929463359+928691763+928498170
2904+928543667+928546016+928301301+927497309+925729053+922683537+918332352
2894+913026586+907386037+902037338+897442292+893913540+891681771+890915586
2884+891703629+893912188+896899177+899495420+900585780+899766693+897360056
2874+894047183+890782014+888739281+888793394+890954817+894484139+898524962
2864+902553468+906379409+909917844+913051933+915715674+918041072+920303030
2854+922673640+925081416+927373990+929604122+932037317+934809567+937665691
2844+940178772+942186047+943870928+945460258+947003593+948459209+949856014
2834+951287779+952766678+954124607+955122264+955690513+956038610+956484751
2825+957177243+958014273+958833787+959592425+960297805+960887698+961310912
2815+961639928+962009101+962504725+963114056+963710002+964166822+964557497
2805+965081175+965730805+966234689+966398520+966367691+966490724+966970970
2795+967661611+968227937+968518292+968720927+969133390+969833359+970585019
2785+971082637+971290186+971462846+971831663+972388733+972966238+973411168
2775+973740967+974172155+974836595+975492349+975785195+975746818+975728092
2765+975892494+976070850+976077400+975943259+975843294+975943331+976300755
2755+976793674+977150529+977182071+977030059+977055050+977420948+977924974
2745+978286101+978436974+978485746+978525690+978541282+978446159+978232843
2735+978072785+978155235+978436049+978685249+978770618+978733594+978603583
2725+978343346+978011126+977799092+977824439+978021023+978294075+978630995
2715+978979876+979211062+979302270+979401452+979611065+979873011+980147202
2706+980506763+980929692+981188932+981132898+980947136+980960949+981289324
2696+981786942+982227315+982415853+982266760+981922579+981706913+981842977
2686+982235432+982570856+982641416+982543587+982507559+982558325+982487054
2676+982173915+981783667+981603175+981782172+982218344+982619272+982732267
2666+982555904+982255083+981925569+981596980+981411219+981557393+981990290
2656+982384668+982473383+982344724+982280360+982354693+982400830+982392856
2646+982547289+982896739+983100799+982966872+982892254+983433090+984579271
2636+985738979+986368460+986416520+986221716+986179708+986499895+987092922
2626+987616029+987745542+987514427+987311791+987475765+987971318+988500763
2616+988778728+988675417+988306742+988051418+988292217+989073710+990079840
2606+990886396+991185152+990946204+990499067+990331461+990669021+991299641
2597+991825455+992030725+991983305+991869599+991816483+991861055+991990141
2587+992103990+991981169+991507119+991012135+991064752+991743930+992493384
2577+992933045+993351702+994103504+994986458+995521954+995498387+995068267
2567+994588449+994440708+994823908+995640218+996591309+997387826+997886085
2557+998040447+997826276+997334141+996828976+996568169+996677319+997205411
2547+998044149+998851345+999336005+999489868+999376660+999019734+998637958
2537+998594455+998947537+999341274+999450139+999327603+999198873+999087232
2527+998916209+998896059+999369611+1000200945+1000804793+1000918714+1000896143
2517+1001102624+1001409852+1001420390+1000966916+1000313441+999940494
2509+1000097989+1000583076+1001041391+1001394260+1001792197+1002246526
2500+1002586435+1002758384+1002874013+1002901282+1002618190+1002019326
2492+1001503837+1001397891+1001503409+1001412487+1001113517+1000940430
2483+1001050932+1001334736+1001739509+1002298217+1002897936+1003332115
2475+1003529268+1003579464+1003676723+1004075160+1004830237+1005576842
2466+1005854167+1005633518+1005328425+1005347222+1005694608+1005899237
2458+1005449608+1004467615+1003675584+1003518232+1003697585+1003764086
2449+1003719159+1003823467+1004198621+1004781821+1005415432+1005899522
2441+1006103368+1006037935+1005794715+1005484709+1005223334+1005047256
2432+1004857436+1004601685+1004468042+1004697378+1005235082+1005822910
2424+1006394648+1007075606+1007775860+1008098610+1007796508+1007148871
2415+1006708498+1006730997+1007021352+1007332710+1007667778+1008124883
2407+1008666503+1009127168+1009303317+1009048492+1008429833+1007764753
2398+1007412241+1007522316+1007952080+1008380064+1008553722+1008473550
2390+1008303524+1008152580+1008025274+1007903308+1007761264+1007556207
2381+1007323169+1007257380+1007589031+1008332645+1009200148+1009778507
2373+1009845720+1009622721+1009625284+1009990114+1010018594+1008953226
2364+1007294547+1006621491+1007802133+1010033190+1011918642+1012833066
2356+1012980948+1012787782+1012530038+1012227793+1011796178+1011302048
2347+1010979654+1011056479+1011540783+1012103406+1012281976+1011959653
2339+1011531526+1011328891+1011085742+1010422299+1009566473+1009161771
2330+1009559424+1010477052+1011241386+1011371397+1011006283+1010706744
2322+1010794391+1011024795+1011013332+1010780507+1010728673+1011139641
2313+1011746409+1011905612+1011276701+1010235826+1009545611+1009670496
2305+1010387340+1010996244+1010921270+1010188478+1009376012+1009089218
2296+1009436960+1010014108+1010356083+1010316709+1010029986+1009684950
2288+1009433756+1009442229+1009922260+1011005072+1012496075+1013799466
2279+1014298080+1013918655+1013230861+1012912881+1013154606+1013638340
2271+1014028018+1014327415+1014725210+1015231515+1015667687+1016008095
2262+1016476877+1017147867+1017683649+1017716757+1017307641+1016823123
2254+1016544731+1016588732+1016984321+1017609956+1018220925+1018728867
2245+1019249625+1019757282+1020018160+1020017804+1020109937+1020604636
2237+1021437251+1022105607+1021809414+1020234110+1018374646+1017765386
2228+1018671622+1019879248+1020390323+1020469569+1020795523+1021277833
2220+1021242945+1020612183+1020272985+1020925036+1022087308+1022758512
2211+1022529105+1021601296+1020356290+1019381346+1019278817+1019970669
2203+1020711507+1021124041+1021586700+1022316003+1022947335+1023342994
2194+1023784222+1024178884+1024228511+1024295653+1024862264+1025603030
2186+1026148637+1026839920+1027678800+1027718957+1026323362+1024034063
2177+1021923121+1020750240+1020495842+1020390822+1019865364+1019509719
2169+1020569819+1023362432+1026400543+1027470397+1026014923+1024135523
2160+1024585295+1027761962+1031222860+1032476481+1031219371+1028874749
2152+1027069042+1026580680+1027163738+1027813012+1027469899+1026287406
2143+1025838347+1027147860+1029114480+1029803484+1028674250+1026791860
2135+1025457995+1025153401+1025423819+1025575262+1025431295+1025143077
2126+1024524490+1023337014+1022112798+1021800158+1022518781+1023443031
2118+1023996541+1024426376+1024980100+1025189286+1024490456+1023261969
2109+1022682898+1023547980+1025446675+1027092039+1027441205+1026637142
2101+1025756253+1025538736+1025760311+1025997266+1026286053+1026686768
2092+1026919094+1026795704+1026460992+1026109050+1025891818+1025990074
2084+1026412149+1026886627+1027189655+1027359111+1027500586+1027699377
2075+1028180690+1029231605+1030821789+1032424790+1033301335+1033018884
2067+1031849564+1030728731+1030582201+1031506877+1032697344+1033229566
2058+1032923191+1032475627+1032604001+1033018884+1032710445+1031409120
2050+1030088641+1029748803+1030414097+1031711364+1033421664+1035037765
2041+1035873086+1035921359+1035942150+1036688968+1038205318+1039552710
2033+1039648546+1038841492+1038654449+1039603903+1040637231+1041026412
2024+1041215591+1041488074+1041434602+1041092841+1041203415+1041975581
2016+1042644222+1042650274+1042452907+1042770246+1043530664+1043945049
2007+1043471710+1042516560+1041982701+1042235035+1042797516+1043022793
1999+1042758142+1042306448+1041995161+1041959134+1042255398+1043122474
1990+1044787703+1046604518+1046921572+1044741067+1041104447+1037844120
1982+1035690528+1034746129+1035632856+1038446046+1041333854+1042037596
1973+1040423417+1038385170+1037770357+1038749288+1039965956+1040192515
1965+1039565099+1038975775+1038983607+1039664780+1040869842+1042299542
1956+1043502255+1043983141+1043486947+1042201001+1040645847+1039434945
1948+1038967231+1039056303+1039059008+1038588162+1037749993+1036601321
1939+1035079346+1033535157+1032606778+1032537286+1033017460+1033567766
1931+1033752246+1033269651+1032142268+1030748311+1029564608+1028795432
1922+1028135478+1027034795+1025311964+1023366063+1021731307+1020490573
1914+1019403560+1018545242+1018457666+1019574654+1021684244+1024218970
1905+1026819485+1029311278+1031442228+1033001298+1034063320+1034895650
1897+1035647239+1036196690+1036383235+1036349343+1036393488+1036538309
1888+1036626383+1036829375+1037511758+1038584958+1039440357+1039572504
1880+1039024761+1038234866+1037705564+1037775198+1038478941+1039565455
1871+1040688140+1041550445+1041940551+1041855395+1041602350+1041598149
1863+1042004488+1042491640+1042461665+1041685939+1040639083+1040060795
1854+1040232031+1040804054+1041324669+1041693557+1042021363+1042358424
1846+1042680107+1042851272+1042669427+1042261806+1042048704+1042208833
1837+1042472914+1042439023+1042008618+1041465361+1041239941+1041542684
1829+1042116842+1042672132+1043243656+1043708309+1043673064+1043182638
1820+1042763696+1042666223+1042599579+1042235960+1041555073+1040677246
1812+1039758194+1039017499+1038537111+1038093605+1037429450+1036579605
1803+1035819899+1035359732+1035170411+1035127691+1035188282+1035343712
1795+1035599178+1036034354+1036612855+1036975335+1036920084+1036744504
1786+1036822611+1037174411+1037566083+1037962739+1038517531+1039146513
1778+1039530069+1039582116+1039637581+1040124092+1040921320+1041315484
1769+1041122745+1040894620+1040965179+1041206477+1041539551+1042026560
1761+1042515990+1042817666+1043023790+1043112506+1042778505+1042028625
1752+1041419793+1041522890+1042181207+1042615172+1042457322+1041992954
1744+1041618156+1041443431+1041296118+1040947451+1040384684+1039961684
1735+1040305723+1041637523+1042884024+1043138778+1042784202+1042381921
1727+1042175582+1042202496+1042283237+1042095696+1041573229+1041068206
1718+1041103237+1041870062+1042779716+1043126888+1042760278+1041863441
1710+1040715694+1039619995+1038810021+1038215856+1037513039+1036741016
1701+1036487258+1037067967+1037873098+1038625969+1039547442+1040109069
1693+1039830605+1039201053+1038857156+1038816002+1038838929+1039238504
1684+1040511278+1041902103+1042315135+1041912783+1041253327+1040809892
1676+1040879454+1041225986+1041363544+1041425061+1041933146+1042738705
1667+1043052626+1042779787+1042469497+1042451269+1042503388+1042296623
1659+1041840728+1041286079+1040914983+1041474546+1043414109+1044822164
1650+1044634765+1044224581+1044862819+1046408504+1047423605+1047499006
1642+1047227519+1046946991+1046762938+1047108900+1048571067+1050444058
1633+1051218004+1050946447+1050551998+1050633095+1051144099+1051672333
1625+1052106583+1052614311+1053039305+1053062374+1052844786+1052821219
1616+1052832183+1051944460+1049788234+1046870308+1044028709+1042211254
1608+1041990889+1043137568+1044948260+1046855356+1048596984+1050039784
1599+1051132635+1052025486+1052962195+1053963839+1054806991+1055392186
1591+1055874211+1056360508+1056731319+1056861330+1056845808+1056871013
1582+1056926549+1056806791+1056470726+1056286317+1056693155+1057246025
1574+1056889454+1055519848+1053872916+1052862586+1052885512+1053612181
1565+1054645082+1055561215+1055960505+1056081902+1057107754+1059551771
1557+1061453955+1062111702+1062210314+1062083720+1061836513+1061588452
1548+1061397991+1061261002+1061219065+1061340747+1061763391+1062980486
1540+1065168824+1066897066+1067269371+1067004435+1067067163+1067725836
1531+1068321140+1068478564+1068617262+1069153826+1069890677+1070396768
1523+1070757397+1071350850+1072074315+1072591228+1073017005+1073494616
1514+1073741823+1073488778+1072846410+1072158260+1071950427+1072666202
1506+1073204404+1071878016+1068719363+1063920898+1057097786+1047425598
1497+1033657194+1015560531+994772359+971835223+945535303+917594647+896513699
1487+889652993+894792507+906387739+921132370+936877789+951157696+962216008
1477+969946781+974733640+976094916+972502511+962944173+949230663+934719783
1468+922640389+916694036+918888283+925412141+930716981+933961715+938249461
1458+947441901+959906488+968843178+972818355+973931000+973491339+972205749
1448+971026959+970840913+971833301+973821067+976556435+979612916+982780754
1438+986333928+989975959+992225172+992429446+991358595+989813551+988060105
1428+986066286+983938540+981961952+980305979+978941997+977979442+977759149
1418+978166271+978381865+977950535+977020091+975776651+974233886+972394429
1408+970473377+968925557+968203587+968321210+968840188+969375969+969572624
1398+968638549+965504531+959566223+951282439+941831897+931503600+919057739
1388+903588006+887814818+877842878+877610552+886421502+900955095+917255378
1378+932240736+944528177+953739201+959185444+959976265+956333664+949693251
1368+942178785+936467748+935081338+939367303+948377970+958414489+965725536
1358+969086896+968771978+965443583+960674952+957124769+957268308+961843988
1349+969453648+977720416+984885645+990349689+994245121+996877534+998352944
1339+998522543+997336277+995075102+992110469+988727179+985368026+982925789
1329+982494530+984626690+988862602+994021410+998926034+1002959880+1006088914
1319+1008401496+1009729949+1009864944+1009044077+1007973298+1007303233
1310+1007230609+1007695688+1008676115+1009929309+1010545689+1009198083
1302+1005148716+999034401+992556324+987288651+983659792+980998899+978604793
1292+976718985+976321047+978016751+981275725+984735911+987092494+987716137
1282+986723108+984741465+982583530+980891956+979851081+979163002+978375600
1272+977302471+976153300+975254611+974613240+973774716+972193573+969787292
1262+967028855+964488504+962470051+961116251+960540384+960592929+960652880
1252+959920301+957974329+955071783+952073259+950146440+950324939+953081596
1242+958157599+964728876+971818776+978733737+985236520+991338161+997002348
1232+1002089814+1006512626+1010319913+1013608934+1016444694+1018936487
1224+1021261671+1023446021+1025224245+1026298371+1026597412+1026095807
1215+1024506975+1021370322+1016447329+1009955795+1002421607+994366945+986347313
1205+979374823+974989035+974452114+977736293+983427679+989727969+995535482
1196+1000612909+1005022336+1008751373+1011800592+1014267251+1016214148
1187+1017544452+1017955562+1016963886+1014130760+1009338490+1002757956
1179+994661714+985603200+976817099+970020046+966407349+965854836+967258405
1169+969600250+972592722+976476335+981480354+987536570+994297881+1001252500
1159+1007886576+1013865967+1019050906+1023378808+1026912045+1029948946
1150+1032799516+1035430505+1037563520+1039052387+1039912627+1040055312
1142+1039192936+1036892174+1032517208+1025233359+1014335176+999802010+982802684
1132+965875555+952405479+945326046+945717148+952283015+962104082+972081932
1122+980020822+984822277+986294696+985136626+982626820+979775110+977130949
1112+975787972+977653915+983604896+991811642+999031055+1003430584+1005191507
1102+1004581250+1001050932+995121097+990022524+989830924+995876389+1005805965
1092+1016081502+1024631646+1031195946+1036175615+1039893474+1042709228
1084+1045167271+1047706981+1050326151+1052671200+1054445081+1055705609
1075+1056795327+1058004662+1059317451+1060511336+1061494040+1062428828
1067+1063433248+1064275048+1064546819+1064091921+1063076322+1061692262
1058+1059968719+1057798894+1054932873+1050966739+1045594330+1038917320
1050+1031284377+1022825084+1013467246+1003407160+993200116+983390085+974274256
1040+965776729+957189205+947153897+934133236+917001193+895398990+869820043
1030+841980775+815965443+798289786+794190721+802431144+814815204+821566902
1020+817353988+804290252+791351116+788957223+800522837+819094476+833358648
1010+835263680+820965546+789398095+745818748+704907128+683578832+688556293
1000+713278560+746400738+780196683+811604005+839647688+863974153+884642423
990+902097146+917042133+930155211+941845354+952291132+961609383+969957888
980+977542273+984493261+990725412+995961829+999919206+1002553470+1004166794
970+1005197274+1005876738+1005987169+1004728920+1001023876+994583963+986948812
960+981170420+980042752+984111842+990917937+996070195+995412235+987212396
950+973769803+961043555+954886663+956333735+961153987+964237168+963280024
941+958048093+947908120+931988830+912121845+894505499+886759703+892361377
931+908113062+927048606+943265086+954378080+961083071+965610334+970248598
921+976359567+984113764+992820691+1001467524+1009189824+1015554123+1020571456
911+1024505978+1027695888+1030503952+1033211125+1035784014+1037935755
902+1039643277+1041333854+1043313219+1045375176+1047227092+1048876871
894+1050402762+1051789599+1053134571+1054623651+1056219888+1057660196
885+1058788078+1059656435+1060265268+1060396347+1059761527+1057933747
877+1053929805+1046694871+1036913178+1027752848+1022619814+1022273141
868+1024792986+1027837149+1030073760+1031060951+1031102176+1031357855
860+1033115147+1036382167+1039409313+1039801270+1035859486+1026545222
851+1010571036+987046784+958415842+931867504+915040910+909350806+909635963
841+911110518+913736309+918369162+922224723+921414821+915945223+908748737
832+900275561+886901249+865422862+837530195+808904806+784725797+766768758
822+753975012+744214180+735273290+725698718+716062771+708993733+706759970
812+708989675+714160018+723269297+739997706+766324682+799126388+831389394
802+855246222+863112559+848321435+809443151+756739074+711579510+694177974
792+709815170+747981524+793590931+836659702+873448190+903441547+927352844
782+946467100+962099739+975062584+985487999+993149351+998005701+1000229069
772+999594106+995481655+988330381+980869742+976841877+978147261+983811875
762+991604449+999717211+1006877954+1011959155+1014305200+1014168354+1011972754
752+1007179060+999267226+990207288+984008317+982775770+984918682+987950456
742+991057846+994139816+996231321+996028045+993406882+990114515+988692077
732+990013125+992266896+993286340+993231872+993918526+996242500+999417885
722+1002249658+1004154975+1005097452+1005181824+1004403962+1002616482+999722408
713+995879450+991406157+986526951+981224319+975141403+967587919+957986077
703+946649088+935200954+926079073+921266440+921212683+924905979+930785333
693+937432652+943694209+948656220+951787960+953151942+953314776+952764186
683+951475178+949386521+947088606+945511309+945027219+945186138+945173606
673+944423441+943061097+941912140+941980635+943024358+943666868+943770109
663+943916354+944290226+944899628+945962362+947417124+948602749+949141806
653+949405602+949362028+947933254+944632556+941131715+939825548+941164182
643+943571674+945655062+947313955+948781105+949796990+950117533+950200766
633+950996285+953116413+956312589+959873594+963402631+966776949+969542079
623+971125001+971649177+971819345+972081647+972520453+973374428+974857172
613+976482031+977351812+977238747+976732798+976268359+975812678+975597867
603+976219801+977757369+979461616+980413562+980182304+979067665+977863172
594+977050707+976209406+974469131+971221620+966243802+959953196+953828984
584+949652453+947874229+947096367+945095357+940207608+932352520+923440323
574+916308060+912296001+909689078+904436997+892778894+874635666+855505604
564+844281039+847168633+862689132+883077657+900264881+909956577+911657976
554+907114978+898922971+889547546+880524134+871515960+860412862+845892655
544+830258592+818781908+816104069+823407925+838087621+855278760+870153544
534+880014199+884833169+885778422+883652599+878841176+871732123+862545592
524+851509281+839747867+829371082+822393038+819911142+822378869+830071763
514+842731866+858908759+875956786+891210711+903482203+913102557+920768679
504+927074594+932881893+939023051+945295216+950605539+954316990+956736942
494+958342505+959259421+959569569+959375549+958777752+958561944+960177904
484+964130012+969168919+973802341+977532518+980267602+981785091+982151914
475+982102430+982757899+984786748+987824717+990862401+992481208+991229011
465+987430695+983890623+983105000+984631745+986278819+986386474+984125797
455+979385076+973370797+968253427+965544617+965558572+968666175+975220293
445+983881723+991783874+996871767+999083672+999300334+998631123+998607342
435+1000338788+1003332898+1006249684+1008271698+1009541410+1011094998
426+1013923923+1017305006+1019150515+1018961692+1018178419+1016433302
418+1010787769+1001884829+993646043+987207767+980529120+972627183+966866733
408+967450716+974084009+983198984+992222823+999433692+1002960592+1003819337
398+1007172225+1013946779+1016429814+1010776449+1001959660+996219573+995439148
388+997593238+1000041243+1001785860+1003729554+1007364252+1012606436+1017543171
378+1020452481+1020728310+1017900524+1013065107
##END=
