##TITLE=X7895
##JCAMP-DX=4.24
##DATA TYPE=INFRARED SPECTRUM
##DATE=30/10/2018
##SAMPLING PROCEDURE=Diamant-ATR
##ORIGIN=ComPlat
##XUNITS=1/CM
##YUNITS=TRANSMITTANCE
##RESOLUTION=4
##FIRSTX=3997.453
##LASTX=373.96442
##DELTAX=-1.4165319
##MAXY=0.93210161
##MINY=0.60694546
##XFACTOR=1
##YFACTOR=8.6808727e-010
##NPOINTS=2559
##FIRSTY=0.88084251
##XYDATA=(X++(Y..Y))
3997+1014693497+1014793949+1014703247+1014476319+1014380054+1014429560
3989+1014461144+1014532141+1014880189+1015526230+1016218343+1016785080
3980+1017283909+1017692655+1017675352+1016905719+1015589742+1014449746
3972+1014071281+1014401202+1014938208+1015235652+1015148589+1014764493
3963+1014314001+1014090575+1014246781+1014647081+1014993962+1014994030
3955+1014462380+1013516904+1012627662+1012285793+1012617294+1013229759
3946+1013501730+1013347583+1013578494+1014932921+1016748208+1017659216
3938+1017269834+1016017163+1014284339+1012617843+1012095943+1013202706
3929+1014759069+1015313172+1014768544+1014046769+1013843049+1013901686
3921+1013610284+1012955248+1012565729+1012941035+1013775691+1014420840
3912+1014799167+1015294701+1015757346+1015229198+1013156497+1010492204
3904+1009074470+1009657754+1011495081+1013879714+1016132928+1017110469
3895+1016249310+1014307685+1013014984+1013658142+1015208119+1015735237
3887+1015065576+1014204623+1013386583+1012157876+1011303240+1012217749
3878+1014119413+1014924750+1014131566+1012403206+1010386189+1009186526
3870+1010544524+1014075813+1016686550+1016836851+1015704682+1014848124
3861+1014404292+1013776927+1012672017+1010927727+1008681174+1007438253
3853+1009760472+1014320250+1017352846+1018364650+1018137516+1017015372
3844+1015062967+1012525218+1010122252+1008968799+1009969754+1012644759
3836+1015105263+1016250202+1016414854+1016110681+1015450702+1014639597
3827+1014258935+1014450845+1014324575+1013281324+1012385216+1012918995
3819+1013822656+1014024316+1014557958+1016001714+1017000198+1016503840
3810+1014683472+1012331934+1010848628+1010957183+1010982313+1009482185
3802+1008060743+1009155697+1011958962+1014526922+1016694514+1018415117
3793+1019120962+1018974026+1018723615+1018666763+1018574001+1018286581
3785+1017823593+1017087055+1016002058+1015010166+1014941985+1015906068
3776+1016894115+1017068242+1016406683+1015377988+1014733595+1015004192
3768+1015802045+1016511118+1017096943+1017380105+1016823530+1015569144
3759+1014623667+1014495613+1014379299+1013370722+1011307085+1008840263
3751+1007657697+1008482122+1009066436+1007975465+1006664363+1007194778
3742+1008625901+1008559161+1006538712+1003306858+1000300834+999594439
3734+1002004683+1005798466+1009007387+1010914956+1011551522+1011407606
3725+1011217755+1011378562+1011811064+1012419890+1013145923+1013802126
3717+1014059746+1013448997+1011760117+1009880974+1009795147+1012125742
3708+1014875108+1016273822+1015991278+1014589611+1013329525+1013413155
3700+1014562352+1015553695+1015937172+1015985922+1015918839+1015816739
3691+1015994162+1016960992+1018450615+1019217913+1018811365+1017698079
3683+1016169113+1014246987+1012032499+1009749486+1008059645+1008590883
3674+1011505106+1013469802+1012893384+1011893939+1013138988+1015917260
3666+1017790635+1018007676+1017074490+1015626957+1013879302+1011871075
3657+1010336547+1010356115+1011131584+1010227717+1006671848+1002366943
3649+1001356925+1004730497+1008806619+1011436307+1012850745+1013663978
3640+1014350667+1015024722+1015211002+1014332266+1012422843+1009868546
3632+1006738312+1003484144+1002438215+1005488801+1009589641+1011534768
3623+1011400259+1010359892+1009544255+1009788280+1010804204+1011370528
3615+1011152252+1010892091+1011087778+1011532708+1012365785+1014149007
3606+1016249447+1017046270+1016166160+1014686218+1013565448+1012735804
3598+1011783531+1010834896+1010407681+1010733963+1011171752+1010635982
3589+1008936390+1007625563+1008738712+1011762726+1014385410+1015442943
3581+1015214985+1014691162+1014587894+1014645021+1014383144+1014068054
3572+1014002001+1013592020+1012209304+1010634746+1010713295+1012583306
3564+1014268204+1014858491+1015054453+1015665270+1016700145+1017493397
3555+1017377427+1016350106+1015234759+1014789623+1014729201+1014419535
3547+1014028573+1014209704+1015090501+1016370498+1017891363+1019359288
3538+1020173002+1019973745+1019001559+1017736461+1016518396+1015571341
3530+1015005978+1014707710+1014470826+1014344899+1014686562+1015713952
3521+1016976853+1017556360+1017057050+1016197127+1016034054+1016611502
3513+1016920893+1016314539+1015364874+1014995198+1015205578+1015278291
3504+1014928801+1014637537+1014861856+1015340980+1015539756+1015375791
3496+1015186490+1015233249+1015470408+1015682985+1015697542+1015544700
3488+1015449740+1015504121+1015461619+1015121948+1014725836+1014603000
3479+1014604648+1014413218+1014243280+1014631220+1015562964+1016403662
3471+1016777115+1016845571+1016671032+1016036869+1015035983+1014184917
3462+1013789012+1013741154+1013984698+1014638292+1015577589+1016342622
3454+1016599486+1016456189+1016246563+1016170074+1016186484+1016157783
3445+1016030827+1015886980+1015851482+1015953445+1016007757+1015732147
3437+1015110413+1014541891+1014448373+1014803356+1015212856+1015422756
3428+1015600042+1015999655+1016403937+1016205023+1015256594+1014305419
3420+1014160405+1014768750+1015507966+1015929276+1015924195+1015626408
3411+1015324844+1015203175+1015244990+1015506593+1016148651+1017036657
3403+1017624199+1017446707+1016603537+1015639728+1014980435+1014622157
3394+1014452218+1014531729+1014796764+1014878403+1014592083+1014232156
3386+1014111929+1014184574+1014408068+1015069971+1016293391+1017518528
3377+1018000467+1017746898+1017465658+1017623649+1017943546+1017857032
3369+1017244154+1016627363+1016495807+1016592277+1016432431+1016388762
3360+1017240996+1018641358+1019227801+1018478629+1017382439+1016986054
3352+1017257406+1017639853+1017914021+1018183520+1018464210+1018542897
3343+1018184481+1017508640+1017031439+1017041052+1017127017+1016797576
3335+1016352646+1016548951+1017527110+1018629891+1019243730+1019398014
3326+1019486794+1019740019+1020097337+1020313485+1020046321+1019175137
3318+1018132847+1017547228+1017562952+1017894933+1018295851+1018530057
3309+1018300314+1017697255+1017358339+1017821945+1018944844+1020010479
3301+1020330238+1019848162+1019110869+1018561092+1018176447+1017887311
3292+1017836502+1018040428+1018274153+1018452194+1018731580+1019134969
3284+1019428980+1019516730+1019660097+1020083192+1020522629+1020491182
3275+1019975668+1019548933+1019665590+1020142585+1020526131+1020630978
3267+1020480128+1020111275+1019786504+1019954039+1020621915+1021230054
3258+1021435079+1021486026+1021565606+1021349801+1020547004+1019491600
3250+1018930700+1019318640+1020329002+1021022695+1020741730+1019985898
3241+1019981160+1021110514+1022262320+1022248381+1021395187+1020954788
3233+1021350900+1021848013+1021688717+1020871776+1019961798+1019577016
3224+1019925819+1020567328+1020847263+1020692431+1020664760+1021105570
3216+1021646627+1021769601+1021488430+1021245709+1021349732+1021678349
3207+1021871770+1021767609+1021523104+1021224836+1020695452+1019990430
3199+1019758970+1020661464+1022488630+1024161443+1024692269+1024083374
3190+1023127461+1022349383+1021622458+1020949501+1020824811+1021406996
3182+1022094647+1022366823+1022423813+1022651565+1022962604+1023023850
3173+1022782846+1022463019+1022272275+1022357142+1022811822+1023482444
3165+1023996860+1024186848+1024204837+1024146269+1023924147+1023519865
3156+1023030304+1022603913+1022516644+1022978465+1023758328+1024358434
3148+1024482163+1024075890+1023263137+1022453955+1022061277+1022063337
3139+1022264723+1022709309+1023342923+1023732237+1023643388+1023455391
3131+1023622103+1024132811+1024718841+1025206205+1025526582+1025612821
3122+1025436840+1025109116+1024811947+1024569707+1024223513+1023724066
3114+1023251122+1022931431+1022672301+1022416397+1022390855+1022871214
3105+1023705252+1024349440+1024513061+1024438632+1024314353+1023910483
3097+1023163852+1022573359+1022510464+1022552348+1021963365+1020629467
3088+1019235216+1018534451+1018546879+1018586772+1018078947+1017141436
3080+1016304445+1015844890+1015492036+1014801983+1013802675+1013011208
3071+1012642012+1012202163+1011170035+1009673409+1008282316+1007489544
3063+1007444707+1007853590+1008177263+1008092397+1007570977+1006582930
3054+1005188541+1003844551+1003103687+1003017310+1003182374+1003321415
3046+1003526783+1003913007+1004318113+1004573330+1004917395+1005766333
3037+1007077434+1008354411+1009286979+1009955060+1010408642+1010467554
3029+1009997150+1009144505+1008266798+1007673077+1007423972+1007444913
3020+1007709812+1008060812+1008080312+1007619384+1007254720+1007702327
3012+1008933301+1010311828+1011404653+1012237867+1012959849+1013645508
3003+1014345792+1015060701+1015658404+1015978987+1016086512+1016310007
2995+1016878735+1017615684+1018189218+1018531705+1018778751+1019008837
2986+1019251283+1019490845+1019533072+1019147260+1018385935+1017551348
2978+1017000473+1017085408+1017895963+1018927953+1019450540+1019314795
2969+1019005885+1018903578+1018890739+1018731374+1018504309+1018458717
2961+1018610529+1018770168+1018882293+1019022776+1019148977+1019169163
2952+1019114851+1019000667+1018777240+1018597346+1018744900+1019128172
2944+1019228487+1018731923+1017918553+1017298740+1017150499+1017545718
2935+1018472587+1019646708+1020491457+1020658237+1020415448+1020339439
2927+1020796042+1021733416+1022771174+1023546162+1024073350+1024591542
2918+1025051646+1025061053+1024379788+1023282019+1022382478+1022097393
2910+1022242613+1022288342+1022040129+1021840735+1022052763+1022609406
2901+1023137898+1023341275+1023219743+1023027833+1023036690+1023293074
2893+1023633638+1023927031+1024189457+1024435816+1024619556+1024781049
2884+1025021298+1025275210+1025381224+1025350258+1025263537+1025027958
2876+1024563322+1024087151+1023943647+1024269448+1024901345+1025461078
2867+1025561668+1025135002+1024548766+1024299591+1024591405+1025200643
2859+1025718423+1025944184+1026042714+1026313037+1026849768+1027432571
2850+1027706945+1027486059+1026898449+1026251035+1025771568+1025448719
2842+1025076433+1024537093+1024026934+1023839349+1023987179+1024262101
2833+1024552748+1024834949+1024983328+1024901482+1024748023+1024783864
2825+1025025623+1025249942+1025311669+1025237995+1024988477+1024446253
2816+1023789707+1023510801+1023835436+1024436572+1024891046+1025148734
2808+1025420293+1025837346+1026320727+1026640555+1026566468+1026050816
2799+1025305627+1024691377+1024482163+1024695428+1025140152+1025596960
2791+1025929147+1026109248+1026222746+1026402091+1026690266+1026983933
2782+1027116726+1027004326+1026721850+1026458120+1026371743+1026443907
2774+1026463681+1026247808+1025906008+1025731812+1025848813+1026200362
2765+1026794083+1027565089+1028109373+1028028764+1027492788+1027058363
2757+1027019363+1027217728+1027368098+1027354640+1027273619+1027275885
2748+1027355532+1027358760+1027237914+1027150645+1027207016+1027283094
2740+1027257689+1027298062+1027645080+1028195475+1028592754+1028688949
2731+1028605044+1028415125+1028123655+1027849419+1027693556+1027561450
2723+1027396867+1027391511+1027722188+1028283294+1028815493+1029095703
2714+1028996761+1028624613+1028372211+1028591312+1029225955+1029895204
2706+1030267215+1030255748+1029960982+1029545165+1029142737+1028808559
2697+1028553891+1028434762+1028497176+1028625162+1028640955+1028592822
2689+1028647271+1028681328+1028398578+1027887251+1027576624+1027583834
2680+1027612191+1027533642+1027534809+1027617615+1027483107+1027054861
2672+1026672482+1026620093+1026832534+1027145152+1027496908+1027841042
2663+1028114248+1028272308+1028237771+1027958248+1027564471+1027298680
2655+1027313923+1027648445+1028194926+1028628733+1028672058+1028463601
2646+1028368778+1028509261+1028767293+1029074212+1029399670+1029599614
2638+1029508568+1029104973+1028534940+1028120840+1028262764+1029052927
2629+1030045505+1030744966+1031215438+1031768442+1032227585+1032111546
2621+1031451086+1030789321+1030428571+1030268451+1030315347+1030728761
2612+1031341845+1031707058+1031732738+1031778879+1032006905+1032151233
2604+1032076734+1032031555+1032133793+1032082021+1031652060+1031161607
2595+1031108188+1031491391+1031840606+1031913662+1031955340+1032123631
2587+1032125279+1031754504+1031415313+1031677602+1032465018+1033078308
2578+1033061142+1032708357+1032535809+1032624589+1032802218+1033009714
2570+1033089088+1032770152+1032325634+1032583186+1033801937+1035088870
2561+1035337014+1034354941+1032789172+1031345552+1030404470+1030081484
2553+1030269893+1030667995+1030933100+1030811774+1030218740+1029434619
2544+1029090279+1029572424+1030556351+1031413528+1031819595+1031762056
2536+1031368280+1030947175+1030848096+1031206168+1031943736+1032782031
2527+1033225176+1033025026+1032608453+1032481841+1032457466+1032142787
2519+1031850012+1032236923+1033272827+1034240687+1034650119+1034697702
2510+1034870799+1035348069+1035833441+1035989372+1035929842+1035959024
2502+1035881985+1035145378+1033748999+1032449775+1031940166+1032277777
2493+1033047959+1033621493+1033417979+1032455062+1031589303+1031809845
2485+1033286766+1035263065+1036730098+1037100667+1036499463+1035649358
2476+1035250225+1035262653+1035044445+1034368536+1033901085+1034372999
2468+1035575134+1036513607+1036484082+1035793136+1035287852+1035295886
2459+1035403616+1035311197+1035268146+1035450650+1035645787+1035851980
2451+1036445426+1037432717+1038177838+1038138975+1037418367+1036496510
2442+1035820464+1035627592+1035828017+1036029814+1035931078+1035707240
2434+1035801444+1036329181+1036952220+1037369136+1037623666+1037875656
2425+1038158887+1038398929+1038457086+1038271699+1038071480+1038133482
2417+1038263596+1037975147+1037236344+1036563936+1036386926+1036696179
2408+1037239159+1037807612+1038424472+1039216557+1039981864+1040188537
2400+1039638829+1038720199+1037821276+1037024315+1036525486+1036719250
2391+1037609797+1038557676+1038713402+1037459976+1034670374+1030858327
2383+1026816329+1022829949+1018526006+1013619966+1008390527+1003236892
2374+998188790+993070790+987880351+982839459+978037922+973161887+968053500
2364+963553115+960909970+960238867+960549837+961444984+963775649+968359389
2354+974890797+982184629+988705944+992933328+993817558+991231402+986453760
2344+982041331+979947894+979917065+980588099+981192188+981977063+983456250
2334+985402613+987019466+988028592+988800903+989462325+989749469+989708547
2325+989877730+990851083+992930032+996019481+999618745+1002951669+1005402630
2315+1006975265+1008179391+1009440370+1010866686+1012568681+1014783787
2306+1017554163+1020508966+1023111326+1025149215+1026914379+1028767773
2298+1030609907+1031980333+1032598223+1032639077+1032600077+1032917433
2289+1033580365+1034293145+1035081935+1036231406+1037480781+1038036531
2281+1037650650+1036975634+1036620857+1036524456+1036421257+1036323413
2272+1036304943+1036234770+1036001663+1035788399+1035864682+1036232642
2264+1036629577+1036740672+1036375940+1035688015+1035130204+1034902040
2255+1034724000+1034480387+1034479563+1034742950+1034928406+1035222692
2247+1036157320+1037272323+1037288115+1036007842+1034716309+1034184316
2238+1033540335+1031875211+1029934959+1029205494+1029970526+1031207542
2230+1031978136+1032244751+1032688101+1034063127+1036380197+1038718277
2221+1040093097+1040160248+1039086648+1037498427+1036503170+1036910062
2213+1038466493+1040280613+1041820634+1043266038+1044901774+1046239723
2204+1046182390+1044385504+1041777857+1039452068+1038000415+1037819010
2196+1038715255+1039424603+1038769224+1036966982+1034990958+1033345334
2187+1032138874+1031644026+1032253265+1034158980+1037056243+1040107653
2179+1042417238+1043434604+1042734937+1040184005+1036873121+1034773093
2170+1034539505+1034689806+1033796993+1032474425+1032389284+1034627392
2162+1039259402+1044549675+1047103834+1045755587+1043556959+1043419635
2153+1045160493+1047016771+1047560849+1046539982+1044896556+1043575155
2145+1042408243+1040787819+1038498833+1035452504+1032150615+1030662640
2136+1033127676+1038736815+1043953551+1046270346+1046253661+1045778932
2128+1045805298+1046075071+1045951617+1045194343+1044252712+1043776541
2119+1043735275+1043474977+1042830240+1042441682+1042654946+1042886680
2111+1042522428+1041840408+1041649047+1042340611+1043459047+1044170523
2102+1044224904+1044203962+1044636807+1045344095+1045884603+1046050284
2094+1045756754+1045120119+1044654179+1044764587+1045182602+1045416671
2085+1045396484+1045176354+1044538758+1043544188+1043000522+1043596097
2077+1044829061+1045600822+1045724277+1045917492+1046473860+1046985530
2068+1047252076+1047510382+1047870446+1048137061+1047949407+1046820192
2060+1044532304+1041820084+1040308901+1041211052+1043653429+1044756417
2051+1042503615+1038466630+1036500836+1038419322+1042265426+1045385086
2043+1047559338+1050000137+1052136556+1051366717+1046892699+1041994074
2034+1040590278+1042743520+1045530238+1046995074+1047145993+1046764095
2026+1047257088+1050089191+1054499629+1056916945+1054510684+1048836178
2017+1044440365+1044140861+1046909589+1049783989+1050447745+1048831646
2009+1047141393+1047299933+1048295258+1047475502+1044270907+1041128520
2000+1040855314+1043681512+1046928472+1047738890+1045867437+1043422038
1992+1042514944+1043483766+1044858586+1044744744+1042569462+1039632718
1983+1037564205+1036864264+1037752545+1041160860+1046900732+1051867401
1975+1053154883+1051742230+1050157373+1048631153+1046246108+1044087580
1966+1044255802+1046479147+1048593251+1049690814+1050654486+1052097625
1958+1053127693+1052173428+1048521431+1043373357+1039519288+1039341247
1949+1042696075+1046895651+1049090845+1048607602+1046820809+1045338877
1941+1044846089+1045369019+1046627938+1047849710+1048206959+1047696388
1932+1046899565+1046133434+1045518085+1045261357+1045237325+1045039991
1924+1044802832+1045036008+1045520419+1045593475+1045476887+1046040259
1915+1047142903+1047640222+1047071907+1046270415+1046138515+1046391191
1907+1046255034+1045827682+1045767602+1046178682+1046556529+1046480589
1898+1045916668+1045173607+1044718515+1044636601+1044444691+1043772833
1890+1042911330+1042628511+1043643542+1046050215+1048887606+1050670416
1881+1050920689+1050505558+1050253019+1050163209+1049971985+1049650372
1873+1049261470+1048771704+1048087967+1047334882+1047006609+1047389537
1864+1048162672+1048828144+1049158821+1049208944+1049150650+1049240391
1856+1049701251+1050446165+1051068724+1051224930+1050923572+1050417053
1847+1049989975+1049976517+1050700764+1051932630+1052951575+1053494554
1839+1053798658+1053974158+1053758148+1052862108+1051303892+1049468830
1830+1048218357+1048397908+1049780212+1051432976+1052716201+1053385587
1822+1053354964+1052780125+1052247445+1052369389+1053003140+1053423832
1813+1053283350+1052832927+1052394725+1052124952+1052154340+1052418482
1805+1052501495+1052102362+1051537548+1051402353+1051787410+1052255891
1796+1052376187+1051911207+1050985574+1050334040+1050562959+1051193758
1788+1051452064+1051048881+1050111232+1049002134+1048135413+1047739576
1779+1047690208+1047644891+1047380817+1046886176+1046299871+1045910694
1771+1045989449+1046583582+1047539632+1048377653+1048506875+1047872369
1762+1047109739+1046852463+1047010523+1047249604+1047467606+1047466576
1754+1046878142+1045464048+1043418743+1041654746+1041006576+1041093503
1745+1040976571+1040275326+1039279657+1038388287+1037705580+1036970759
1737+1035764435+1033969953+1032304486+1031666135+1031663595+1031663046
1728+1031484593+1030989746+1030284106+1029839313+1029783010+1029591443
1720+1029025256+1029046335+1031185982+1034911378+1038261468+1040704189
1711+1042508490+1043614841+1043836414+1043602963+1043831333+1044583663
1703+1044968033+1044664203+1044511911+1045274334+1046808588+1048965674
1694+1051109441+1052297363+1052487762+1052272644+1051971973+1051279585
1686+1050029661+1049342354+1050619194+1052833476+1054534578+1055344515
1677+1055379121+1055111064+1055001137+1054812728+1054320490+1054498805
1669+1056478744+1059107333+1060542713+1060638016+1060473501+1061056991
1660+1062098045+1062598523+1062009883+1060348948+1058403272+1058251666
1652+1059883214+1060336040+1059289218+1058570601+1060182786+1063166221
1643+1065224159+1065886542+1065567882+1064534655+1062934555+1061389865
1635+1060523556+1059221792+1055937961+1050198295+1042715094+1035548356
1626+1030824957+1029262621+1030450199+1032915579+1034834957+1035785927
1618+1036891180+1039357520+1042190104+1043426501+1042676094+1040563569
1609+1037789279+1034595396+1030701708+1025805556+1019959189+1013545124
1601+1007179878+1001755096+998471883+998509510+1002215063+1008408311+1014915893
1591+1019995717+1022956767+1023673393+1022095402+1018415735+1013404229
1582+1008214546+1003647834+999656647+995908042+992958252+991778982+991379781
1572+990299933+989052618+989624024+992864117+997492968+1002510790+1007177818
1562+1010304070+1011765953+1014721854+1023048019+1031437010+1035600745
1554+1037151203+1037334942+1036441924+1034750503+1032492689+1029483644
1545+1025663837+1021810798+1019266183+1019934539+1025694048+1032985614
1537+1036839958+1037053016+1035476055+1034360915+1034562918+1035141465
1528+1035686298+1036856849+1038912453+1041102566+1043346991+1046537304
1520+1050210517+1053064180+1055528461+1058418172+1060939373+1061787143
1511+1060514287+1057202030+1052372548+1048654017+1049342560+1051415261
1503+1051209069+1048262506+1042925200+1035512102+1026186081+1015498902
1494+1004368305+992762016+980526097+970835823+970820374+982059389+996252589
1485+1004271354+1001116814+987244266+969379707+956375048+952892715+958174199
1475+968811460+981308089+991714577+996320495+994471221+986654734+972348654
1465+952193186+930564574+911258799+893714137+875071362+853465340+832711345
1455+817460201+805867370+795591753+786450157+779267283+774869480+773398258
1445+774314828+777162929+781587648+787008517+793664821+803630704+817946397
1435+832290516+842547595+850068080+857765575+866433952+874595672+881298117
1425+887151419+892676310+897534287+901935386+907473323+914938741+922368935
1415+928082304+932336261+936040921+939932754+944080834+948032610+951814858
1405+956066137+960709270+964743509+967831790+970583971+973340546+975721539
1395+977574179+979250562+980756802+981790371+982623173+984274770+987458972
1385+991362959+994560756+996503686+997356331+997331063+996445048+994688055
1375+992403875+990452019+989615166+989996515+991467462+993918011+996785475
1366+999330159+1001534279+1004032410+1007009459+1009743719+1011501604
1357+1012102740+1011725648+1010558874+1008539524+1005450556+1001294854
1349+996422802+991245272+985956303+980453453+974174446+965932667+954298158
1339+938882568+921430875+905199168+893772293+890120365+895220170+907293223
1329+922983941+939308891+954392912+966983883+976029695+980809740+981147695
1319+977296715+969440885+957215196+940235279+919753392+899570940+884543016
1309+878090364+880860671+890615281+903232824+914657913+922665555+927434546
1299+930679789+934025896+937843986+941177460+942525502+940875828+936361985
1289+930286767+924659638+921475436+921973167+926270656+933506949+942280378
1279+951189416+959225758+965788270+970567423+973684543+975830575+977862285
1269+980150516+982586027+985198824+988328371+992039966+995700134+998367105
1259+999549259+999548985+999187342+999269736+1000155408+1001625599+1003195145
1249+1004642472+1006184828+1008120617+1010478334+1013059821+1015571684
1241+1017552035+1018344601+1017279240+1013773906+1007189765+996682138+981332876
1231+960646445+935251033+907432469+881004449+860112718+847280813+842167825
1221+842345110+845316392+849811283+855623731+862793696+871045569+879796547
1211+888530770+897056056+905370823+913411766+921011075+927993249+934221583
1201+939591161+944075273+947784946+950924998+953691460+956288946+959010640
1191+962145612+965737872+969485584+972887926+975480398+976951757+977040400
1181+975459250+972218471+968034343+964088816+961294065+960040228+960550386
1171+962972440+967000979+971789745+976436792+980378405+983234403+984529300
1162+983866711+981320860+977215007+971315015+962867181+952166957+941786286
1152+935331711+934790173+939451434+947159915+955896267+964283130+971540227
1142+977473039+982241000+985913458+988378082+989736629+990622232+991936081
1132+994150912+996884691+999173884+999879249+997625555+991069154+980329243
1122+968146468+958726173+954991096+956912809+962119657+967855959+972747855
1112+977042940+981265862+985135655+988169899+990709708+993577309+996958297
1102+1000208072+1002679218+1004342900+1005595570+1006728631+1007734461
1094+1008519337+1009119031+1009658166+1010235957+1010910630+1011680606
1085+1012431220+1012994317+1013288946+1013377795+1013468360+1013906698
1077+1014946242+1016331155+1017276700+1017095844+1015805066+1014024934
1068+1012425315+1011445988+1011410352+1012496449+1014388637+1016245739
1060+1017369462+1017753970+1017729732+1017357515+1016491618+1015144469
1051+1013470145+1011567176+1009497840+1007447729+1005859919+1005354292
1043+1006304094+1008505605+1011431157+1014639185+1017697736+1019848299
1034+1019777578+1015646388+1006182493+992948502+981030008+975675810+977809483
1024+983687572+988743502+990784275+990089209+988164887+986638461+986298103
1014+986835590+987670383+988672780+989777140+990404436+989963558+988937472
1004+988933902+991287018+995788708+1001020000+1005637385+1009050163+1011216863
994+1012357820+1012888303+1013282080+1013813799+1014443635+1014936766
986+1014980710+1014145093+1011978737+1008468870+1004381968+1000950171+999155070
976+999269805+1000936644+1003565165+1006620626+1009637842+1012228049+1014233873
966+1015741211+1016860196+1017584718+1017836090+1017564875+1016868847
958+1016005560+1015216564+1014620303+1014303908+1014379848+1014947546
949+1016109171+1017888753+1019963446+1021629530+1022233069+1021624518
941+1020172178+1018409898+1016713122+1015198781+1013721585+1011912753
932+1009456986+1006473346+1003490598+1000983060+999080229+997799819+997442090
922+998565469+1001332344+1004843103+1007470044+1008153231+1007338899+1006608335
912+1007426031+1010086342+1013695562+1017128115+1019882630+1022044180
904+1023831247+1025400449+1026799645+1027905721+1028620699+1029180776
895+1029983229+1031005126+1031718319+1031823097+1031784234+1032281416
887+1033360234+1034511697+1035328088+1035708270+1035719668+1035575203
878+1035467541+1035345597+1035181701+1035275905+1035804740+1036317852
870+1036176476+1035304125+1034167906+1033187892+1032336483+1031223609
861+1029631336+1027956257+1026813995+1026225973+1025705240+1025130676
853+1024870859+1024971518+1024961562+1024704422+1024835292+1025994445
844+1027934148+1029717575+1030777786+1031581818+1033167019+1036138438
836+1040153245+1044201353+1047341680+1049376411+1050849211+1052264405
827+1053440929+1053862239+1053524353+1053116089+1053333816+1054242078
819+1055347537+1056073569+1056024682+1055052976+1053487344+1052307044
810+1052695259+1055140520+1058985595+1062875780+1065600084+1066695106
802+1066670388+1066669015+1067473871+1068849927+1070218705+1071588101
793+1073073261+1073741823+1071773694+1066237954+1058798491+1053233364
785+1052481720+1056102201+1061097571+1064656050+1065451362+1063420545
776+1059526995+1055090535+1050670622+1046203881+1042339856+1040792900
768+1042903571+1047753858+1051853531+1051508298+1046023918+1037960042
759+1029594121+1019488854+1003142001+977156370+942469199+903042012+861951625
749+820161022+778908661+741797446+714087437+699870343+699175620+707841937
739+721097076+737157951+756614440+779098581+801891838+821460658+835579427
730+844095855+847365885+843669670+829873612+806401287+780520366+762873740
720+760260119+771847045+791840814+814313351+835477052+853701743+868741134
710+880497517+888517107+893129479+896226549+899727009+903753900+907317392
700+910227495+913397004+917666547+922762575+926907290+927478215+923134998
690+915810406+909794650+908141680+910510039+914822771+919779072+925151121
680+930907747+936896588+942873756+948473901+952954442+954876224+952919356
670+947966145+945166313+949805464+957891655+963673960+967027277+969712718
660+972404613+974539934+975541508+975687483+975912695+976863664+978423185
650+980327389+982700006+985576396+988403556+990391665+990954351+989671950
640+986614223+983213323+981940810+984185029+988843817+993583146+997090952
630+999658569+1002112139+1004879288+1007820220+1009496810+1005723144+991411983
620+967382122+943991574+933706274+939532935+953501473+965678205+971011049
611+969725009+965874510+964686039+968615155+975805994+982182432+984364099
601+981455232+975233352+968467532+963012676+959845090+959952065+963868411
591+970536525+977781813+984100437+989222145+993228026+995902344+996444430
581+993156068+984610665+972380307+961463386+956401895+957289489+960956591
571+964950387+968953041+973628034+979055082+983616850+984093708+977903070
561+966291975+954732171+949086572+951358050+958911286+966445435+968212384
551+960820228+946992311+935641239+934871332+944730927+958480501+970190125
541+978825956+985564380+990659516+993851614+995009806+992875377+985158382
531+971526426+955703670+943801655+940814993+947451935+959323945+970768878
521+978707995+982705568+984328120+986499557+990955175+996382840+1000350820
511+1002238271+1003368997+1004782886+1006163199+1007061985+1007473752
503+1006741951+1004143780+1001218227+1000711982+1002852178+1004829714
494+1004133755+1000952711+996321045+989838249+981324774+973353042+970014762
484+973250255+981429690+991505158+1000745764+1006617399+1007686741+1005291603
475+1002613097+1001889330+1003034819+1004623933+1005433184+1004333424+999831872
465+990940550+978536477+965945506+958082398+959204816+969177223+981381489
455+989468161+993202827+994254043+991787153+983994629+971458176+956966640
445+942645660+929288215+919065536+915400837+918800569+926182974+934101013
435+940600836+943786000+940872738+931435003+920015201+911936631+907451145
425+902287142+893097689+881279235+873084420+878984824+902745873+930274546
415+948526564+954740479+950784241+941335177+931471600+924424059+922248365
405+925417942+931463223+936676938+939360250+941106395+946015250+955332758
395+963142035+964617102+962291244+961049422+960990648+958270601+952451630
385+949353187+953979360+962658037+967855959+966252632+959101892+949991263
375+942942692+938447114
##END=
