##TITLE=X9353
##JCAMP-DX=4.24
##DATA TYPE=INFRARED SPECTRUM
##DATE=5/11/2018
##SAMPLING PROCEDURE=ATR platinum Diamond 1 Refl
##ORIGIN=ComPlat
##XUNITS=1/CM
##YUNITS=TRANSMITTANCE
##RESOLUTION=4
##FIRSTX=3997.453
##LASTX=373.96442
##DELTAX=-1.4165319
##MAXY=0.99909806
##MINY=0.30860889
##XFACTOR=1
##YFACTOR=9.3048258e-010
##NPOINTS=2559
##FIRSTY=0.99749279
##XYDATA=(X++(Y..Y))
3997+1072016619+1071819257+1071467324+1071076059+1070843657+1070985225
3989+1071484299+1071958775+1072016811+1071673910+1071228708+1070844298
3980+1070457453+1069981824+1069433361+1068912635+1068534438+1068377369
3972+1068483320+1068823531+1069295893+1069854093+1070495823+1071031090
3963+1071210516+1071134992+1071049090+1070856533+1070453481+1070170730
3955+1070157086+1069767486+1068262321+1065929913+1064174090+1064154232
3946+1065253015+1065816595+1065451658+1065458640+1066700720+1068337653
3938+1069272832+1069183151+1067967207+1065560364+1062773915+1061352152
3929+1062021684+1063422115+1063916705+1063468877+1063314754+1063890570
3921+1064147698+1063255117+1061999008+1062237303+1064727292+1068140547
3912+1070745969+1071930782+1071773584+1069909695+1065583681+1058969780
3904+1052197463+1048077652+1047544755+1049906437+1054107730+1058400690
3895+1060783447+1060429464+1058632259+1058321002+1060493970+1062436971
3887+1061501279+1058089113+1055024910+1053685846+1053595781+1055328543
3878+1058853130+1061330116+1060187005+1055874059+1051149862+1048234017
3870+1048086107+1050482957+1052941558+1053020478+1051415254+1051443375
3861+1054464404+1058072010+1059712017+1058531368+1054222394+1046863949
3853+1041079019+1043545628+1051304242+1058590301+1062874293+1063468942
3844+1060681275+1055628590+1049834500+1044836969+1042380033+1043647031
3836+1047351685+1051143457+1054275369+1057035107+1059204103+1060011615
3827+1059277897+1057779458+1055840621+1052373366+1047203455+1043846956
3819+1044874763+1047776516+1050856414+1055212727+1060554121+1064484962
3810+1065342888+1063035463+1059139340+1056243417+1054692129+1052247428
3802+1048646228+1047281285+1049688576+1053444156+1057297167+1061550539
3793+1065563695+1068137857+1069088602+1069016089+1068229844+1066787775
3785+1065329628+1064507062+1063705058+1062142561+1060992660+1062309816
3776+1065607831+1068339767+1068755309+1066675674+1063266199+1060552135
3768+1059676017+1060149147+1061403270+1062820549+1062870770+1060476290
3759+1057013263+1055403747+1055956053+1055738129+1052040009+1044580417
3751+1037241830+1035685162+1038779281+1041577132+1042613139+1043891412
3742+1046948505+1050034104+1050823488+1047896624+1041395208+1035071104
3734+1034948242+1041982170+1050968515+1057043050+1058572557+1056465761
3725+1053266652+1051621456+1052427110+1055062447+1058512343+1061602746
3717+1063127642+1062124753+1058072971+1051806134+1047259378+1048920844
3708+1055406822+1062019378+1065934910+1066457301+1064591042+1063013875
3700+1063724340+1065668621+1066865733+1066632499+1064901658+1061140826
3691+1055117153+1049042746+1047550328+1051906705+1058272703+1063347296
3683+1065761377+1064907935+1060850260+1054117147+1045446478+1038135821
3674+1037704456+1042316231+1045395745+1046094231+1049227296+1056513420
3666+1063849829+1068073030+1069048950+1068168028+1066538718+1064176332
3657+1061071387+1058412797+1056930564+1054611032+1048580249+1038663657
3649+1031089978+1033637299+1043197666+1052494627+1058738403+1062257353
3640+1064137961+1064947651+1064551070+1062779552+1059971963+1056757865
3632+1053112913+1048358289+1043894743+1044369603+1049955761+1055484460
3623+1057600673+1055462168+1049939811+1044071030+1041330190+1041441074
3615+1041950077+1042410332+1043674192+1045045285+1045069626+1044627564
3606+1046048557+1048992204+1050764107+1049966715+1047771968+1046054899
3598+1045134197+1044459412+1044368706+1045469539+1046732310+1045839793
3589+1041514420+1035720714+1033360377+1036121972+1040384569+1043054689
3581+1043719737+1043227133+1042432880+1041790445+1041462277+1041365486
3572+1040806646+1038276748+1032284847+1023484142+1016672430+1016693889
3564+1021486436+1026109934+1028737776+1030235383+1031431854+1031749709
3555+1030261711+1027215315+1024130805+1022315151+1021320206+1019665337
3547+1016991502+1014862414+1014894891+1016558343+1017956212+1017854616
3538+1016427665+1014733017+1013627187+1013027799+1012208948+1010563368
3530+1008121358+1005637453+1003913594+1002935240+1002280377+1002095507
3521+1002755302+1003907765+1004764474+1004984897+1004699391+1003980022
3513+1002779323+1001336230+1000307526+1000181140+1000479777+1000063466
3504+998516791+996950130+996906570+998379259+999839584+1000141680+999675340
3495+999582072+1000123104+1000409954+999728316+998422882+997332106+996799722
3485+996487825+995978309+995411078+995377768+996011299+996633044+996663727
3475+996338570+996141913+996032630+995709587+995247794+995041016+995273930
3465+995682042+995863838+995738669+995588326+995713558+996194568+996855516
3455+997376370+997612103+997661171+997430051+996648802+995602803+995143700
3445+995608440+996536124+997519475+998462021+999287406+1000055907+1000943940
3435+1001782392+1002193195+1002287552+1002587983+1003281600+1004080977
3427+1004707591+1005051773+1005017502+1004629632+1004276033+1004494086
3418+1005421386+1006663403+1007732399+1008460736+1009009711+1009588152
3410+1010235072+1010901401+1011587524+1012259810+1012778550+1013103835
3401+1013393441+1013775801+1014238491+1014761779+1015337530+1015910527
3393+1016451110+1016978370+1017464889+1017838538+1018079843+1018312565
3384+1018782621+1019597692+1020491683+1021092801+1021380036+1021633577
3376+1022079547+1022777136+1023655304+1024499137+1025054262+1025233047
3367+1025173025+1025145416+1025432971+1026175978+1027249138+1028344269
3359+1029278296+1030188172+1031277219+1032428401+1033300483+1033749016
3350+1033903459+1033960919+1034148608+1034706872+1035607076+1036377371
3342+1036469550+1035843833+1035039652+1034637305+1034779257+1035278844
3333+1035997060+1036949599+1038112952+1039259522+1040114053+1040717477
3325+1041417565+1042332502+1043127779+1043552802+1043861305+1044421426
3316+1045173400+1045711806+1045750240+1045363972+1044903204+1044779124
3308+1045211835+1046013902+1046730773+1047098272+1047196217+1047135362
3299+1046932683+1046749029+1046863372+1047334069+1047974070+1048664805
3291+1049463413+1050381425+1051182852+1051531134+1051377588+1051071712
3282+1051012394+1051315324+1051835024+1052336341+1052660921+1052839066
3274+1053021054+1053295862+1053604877+1053764701+1053636009+1053382532
3265+1053381187+1053796730+1054469593+1055170833+1055673495+1055755873
3257+1055436032+1055043935+1054943492+1055310543+1056058097+1056816734
3248+1057210817+1057240284+1057149898+1057008587+1056771125+1056593492
3240+1056683109+1056940237+1057126261+1057304085+1057754988+1058465773
3231+1059047866+1059227100+1059190715+1059351372+1059885742+1060563921
3223+1060984268+1060946282+1060577053+1060140628+1059853264+1059853264
3214+1060150492+1060548483+1060785433+1060841804+1060981130+1061372074
3206+1061788514+1061862308+1061578020+1061311668+1061410381+1061915925
3197+1062644710+1063333844+1063760789+1063890698+1063900755+1063967888
3189+1064102793+1064261016+1064501104+1064866362+1065192480+1065209455
3180+1064846696+1064370363+1064190680+1064466898+1064921259+1065164871
3172+1065097290+1064796091+1064220211+1063382015+1062621841+1062314684
3163+1062422750+1062614475+1062693522+1062679686+1062565150+1062257161
3155+1061837070+1061658989+1061968452+1062552467+1063029954+1063333395
3146+1063598274+1063725301+1063411161+1062596859+1061655786+1061085928
3138+1061076576+1061390267+1061658989+1061727275+1061649444+1061507492
3129+1061394238+1061416146+1061507044+1061392573+1060907784+1060173233
3121+1059363671+1058575312+1057966186+1057690802+1057625271+1057458657
3112+1057109414+1056829865+1056845175+1057009996+1056928899+1056444558
3104+1055894045+1055704627+1055834664+1055873163+1055615586+1055224065
3095+1054866495+1054535188+1054260508+1054201767+1054382538+1054539031
3087+1054389905+1053933365+1053382404+1052954434+1052826703+1053133604
3078+1053857905+1054760287+1055500539+1055881426+1055964765+1055877519
3070+1055594383+1055135217+1054866367+1055179993+1055881042+1056338670
3061+1056288129+1056056368+1056010054+1056187750+1056453142+1056633977
3053+1056519121+1056049962+1055498425+1055213368+1055232072+1055308750
3044+1055225538+1054960403+1054665609+1054545437+1054621538+1054621538
3036+1054188891+1053187989+1051826505+1050579556+1049890102+1049752955
3027+1049708050+1049335618+1048568142+1047473459+1046034401+1044258783
3019+1042237056+1039977674+1037389868+1034447182+1031198940+1027667627
3010+1023916404+1020109514+1016335806+1012486703+1008464323+1004414782
3002+1000670862+997556757+995235367+993651667+992676771+992304147+992520599
2992+993017687+993251306+992731605+991129968+988318793+984461938+979885266
2982+974797926+969265512+963316146+956880389+949791307+942011362+933730550
2972+925178901+916480623+907656344+898583521+888935075+878393920+867129808
2962+855965627+845861730+837294450+830288452+824898182+821405688+820081421
2952+820809054+822806695+824698450+825065437+823051780+818457557+811408191
2942+802179579+791337672+779750774+768289364+757654428+748517163+741476957
2932+736756732+734265333+734010191+736081499+740200286+745638663+751687126
2922+758008988+764555436+771327048+778254128+785216439+792142751+799068037
2912+806036498+812981514+819824358+826687636+833821302+841256744+848734401
2902+856012261+863016466+869695322+876045754+882300099+888779415+895495552
2893+902094080+908210444+913746958+918795992+923438195+927646470+931225891
2883+933768792+934834137+934217325+931833927+927468902+921148385+913826710
2873+907227670+902773028+900715941+900112580+899390521+897113139+892637422
2863+886364757+879448375+873162001+868324934+865137035+863472686+863261679
2853+864556287+867388281+871769128+877705939+884891620+892382857+898882863
2843+903403869+905580296+905706490+904904102+905033114+907909501+914417963
2833+924275686+936385360+949352256+961946847+973349259+983106027+991040031
2823+997251970+1002075072+1005941407+1009234233+1012118306+1014486971
2815+1016231841+1017564819+1018893762+1020410714+1021981731+1023421749
2806+1024687339+1025803161+1026757622+1027532273+1028159142+1028723619
2798+1029330311+1030056406+1030893769+1031728313+1032393618+1032782769
2789+1032920621+1032950023+1033065968+1033432058+1034081668+1034880469
2781+1035617069+1036145097+1036463400+1036707588+1037025892+1037409598
2772+1037724378+1037948452+1038229345+1038635471+1039021932+1039226532
2764+1039261508+1039261060+1039357466+1039629007+1040040899+1040403274
2755+1040502884+1040340689+1040149925+1040116935+1040207193+1040324931
2747+1040474122+1040670523+1040877814+1041090550+1041305720+1041434412
2738+1041454590+1041535879+1041767448+1041926952+1041771548+1041396105
2730+1041077738+1040943089+1040962434+1041100479+1041334482+1041646443
2721+1042059552+1042559587+1042984290+1043150327+1043093444+1043025671
2713+1043075188+1043238535+1043543514+1044047713+1044664333+1045165841
2704+1045408108+1045440521+1045391645+1045337388+1045306320+1045337965
2696+1045484208+1045748767+1046047661+1046244190+1046250596+1046113704
2687+1045979952+1045943246+1045927104+1045773045+1045442122+1045061491
2679+1044748505+1044481768+1044206448+1043970523+1043867839+1043903903
2670+1044003321+1044113308+1044244242+1044432124+1044690981+1044960664
2662+1045105499+1045050217+1044955924+1045129713+1045653897+1046219335
2653+1046462435+1046347643+1046079241+1045802896+1045570046+1045429119
2645+1045368776+1045283067+1045123051+1045001341+1045068666+1045330406
2636+1045661072+1045948307+1046151434+1046238297+1046185513+1046073796
2628+1046096601+1046417210+1047018200+1047662685+1048034092+1048015772
2619+1047829364+1047806943+1048037295+1048320110+1048452454+1048439962
2611+1048372638+1048223447+1047930639+1047597923+1047442262+1047614962
2602+1048158428+1048979393+1049773261+1050159401+1049971904+1049363675
2594+1048714514+1048439001+1048675887+1049148057+1049490061+1049634127
2585+1049735531+1049898686+1050118020+1050327297+1050434721+1050435234
2577+1050488722+1050774292+1051274711+1051740795+1051847964+1051460991
2568+1050841745+1050485968+1050620105+1050978956+1051184966+1051137756
2560+1050905290+1050492502+1049892472+1049184826+1048557316+1048311398
2551+1048667880+1049424466+1050077407+1050386166+1050518317+1050642397
2543+1050717985+1050671223+1050533306+1050410508+1050375148+1050334215
2534+1050117764+1049757567+1049457648+1049260927+1049056262+1048887598
2526+1048904766+1049055429+1049171310+1049240364+1049306023+1049270087
2517+1049056198+1048752500+1048453799+1048233056+1048283918+1048696706
2509+1049135822+1049162214+1048850893+1048690300+1048861078+1048916552
2500+1048354317+1047396525+1046847358+1047098785+1047704323+1048087645
2492+1048132677+1047930319+1047557310+1047202686+1046998086+1046834226
2483+1046743328+1047103012+1048043381+1049057736+1049548802+1049436573
2475+1049027180+1048574356+1048151510+1047794836+1047631938+1047861392
2466+1048533999+1049265091+1049355924+1048511131+1047321257+1046696053
2458+1046940754+1047634628+1048173034+1048200578+1047793107+1047362254
2449+1047157526+1046966249+1046560892+1046155790+1046077768+1046297486
2441+1046610536+1047004107+1047529189+1048010071+1048197888+1048103915
2432+1047900852+1047615667+1047227797+1046916156+1046853828+1046930313
2424+1047008655+1047234395+1047799000+1048587359+1049287383+1049732264
2415+1050017513+1050309745+1050581158+1050624845+1050383539+1050115393
2407+1050103158+1050325567+1050535677+1050542787+1050315062+1049923284
2398+1049514596+1049251254+1049142740+1049021159+1048782351+1048546106
2390+1048475514+1048567245+1048719575+1048913734+1049219417+1049641238
2381+1050085863+1050590062+1051453689+1052914398+1054850224+1057107748
2373+1059782993+1062714085+1065208879+1066908011+1068394536+1070334910
2364+1072439336+1073741823+1073734969+1072881207+1071810801+1070363416
2356+1068028190+1064914982+1061659502+1058912384+1057256875+1057114666
2347+1058499403+1060825213+1063049491+1064418854+1064970071+1065036756
2339+1064788980+1064374078+1064049433+1063940791+1063845537+1063506928
2330+1062953148+1062335503+1061631572+1060824765+1060164393+1059973373
2322+1060195653+1060267910+1059628165+1058380320+1057233301+1056676319
2313+1056447056+1055997947+1055228037+1054443713+1053865592+1053503281
2305+1053344354+1053425707+1053708714+1053910945+1053642415+1052938740
2296+1052471374+1052842525+1053827478+1054659396+1054862459+1054501622
2288+1053864247+1053221683+1052771357+1052586742+1052630686+1052825806
2279+1053060065+1053203811+1053235584+1053282474+1053424682+1053524100
2271+1053390796+1053067240+1052738623+1052387074+1051790953+1050907788
2262+1050024047+1049473278+1049445798+1050045891+1051149862+1052226674
2254+1052768282+1052885124+1052978328+1052969231+1052463495+1051502629
2245+1050569883+1049949804+1049565073+1049384558+1049653153+1050609535
2237+1052064800+1053411294+1054161475+1054380040+1054433977+1054482789
2228+1054491372+1054574455+1054899484+1055263525+1055252315+1054846637
2220+1054304644+1053532427+1052386242+1051449781+1051534529+1052495396
2211+1053482719+1054188571+1054867968+1055310799+1054862779+1053583481
2203+1052459396+1052130075+1052143655+1051882619+1051534209+1051618829
2194+1052233784+1053253392+1054565423+1055659594+1055821660+1055137587
2186+1054449671+1054072563+1053559844+1052983196+1053268189+1054785333
2177+1056612838+1057681642+1057971823+1058198332+1058754802+1059385450
2169+1059740459+1060004185+1060816181+1062433704+1064148915+1064877956
2160+1064348519+1063461062+1063148589+1063199899+1062895496+1062213153
2152+1061624974+1061100085+1060089061+1058377181+1056366472+1054684058
2143+1053935223+1054418987+1055677979+1056599322+1056250783+1054582847
2135+1052421089+1050878898+1050475783+1050642076+1050265161+1048873121
2126+1047163227+1046233492+1046460065+1047315236+1048096741+1048486596
2118+1048437400+1047919493+1046997189+1045967524+1045230860+1044965661
2109+1044979113+1044981803+1044950735+1045004928+1045057648+1044945931
2101+1044826591+1045054509+1045721286+1046545966+1047120756+1047215626
2092+1047042542+1047156629+1047858382+1048751091+1049078490+1048457258
2084+1047190323+1046034080+1045747614+1046616750+1048176172+1049524012
2075+1050118276+1050218719+1050504352+1051337039+1052312831+1052462855
2067+1051187016+1049173680+1047895920+1047946333+1048521380+1048744109
2058+1048708236+1048921677+1049443363+1050052937+1050758854+1051576231
2050+1052142950+1052159029+1052042892+1052511346+1053647219+1054961877
2041+1056130739+1057125812+1057774910+1057761458+1057200055+1056863560
2033+1057422208+1058589148+1059461679+1059623938+1059487943+1059445985
2024+1059052991+1057479475+1054839911+1052492065+1051527355+1051414998
2016+1050758534+1049276621+1048241832+1048848138+1050818620+1052877180
2007+1054107666+1054278508+1053416291+1051930086+1050652838+1050182590
1999+1050564438+1051554195+1052634017+1053157305+1053114643+1053135269
1990+1053341984+1053370746+1053678223+1055151231+1057300882+1058271870
1982+1056963554+1054166856+1051416023+1049606006+1049044604+1049898558
1973+1051652588+1052828625+1052251208+1050243957+1048283982+1047810531
1965+1049088932+1050860578+1051502565+1050729515+1049601266+1048889007
1956+1048515615+1048379428+1048530668+1048772614+1048844103+1048666983
1948+1048060997+1046707584+1044792513+1043385227+1043573301+1045081221
1939+1046595162+1047283784+1047152401+1046542187+1045933766+1045804625
1931+1046256937+1046974449+1047379166+1046666395+1044511363+1042078321
1922+1041124564+1041619539+1041967501+1041574955+1041529217+1042588028
1914+1044000182+1044544161+1043829852+1042757909+1042597637+1043531984
1905+1044672853+1045264170+1045211835+1044697387+1043810507+1042668677
1897+1041724658+1041570855+1042060000+1042155190+1041320197+1040494684
1888+1040924576+1042422375+1043912359+1044822107+1045116132+1044884435
1880+1044449419+1044365503+1044806862+1045155784+1044465690+1042190101
1871+1038472188+1034512072+1032786292+1034859458+1039074523+1042676812
1863+1044405411+1044601300+1044235466+1044064560+1044289082+1044637108
1854+1044775729+1044577342+1043911078+1042560612+1040469638+1037750065
1846+1034846005+1033247508+1034388313+1037050874+1038850001+1039036217
1837+1038589862+1038667820+1039010978+1038186939+1035531296+1032653180
1829+1031931184+1033124901+1034433025+1035510285+1037002382+1038733608
1820+1039973382+1040499617+1040579881+1040309813+1039350933+1037496012
1812+1035411700+1034418484+1035082186+1036544561+1037446239+1036792593
1803+1034399651+1031325903+1029389628+1029291492+1029877108+1029631574
1795+1027831359+1025084433+1023833193+1025935120+1029548235+1031883333
1786+1032203238+1031401106+1030342744+1029242616+1028467132+1028341066
1778+1028071383+1026261046+1022312141+1017282388+1014076425+1014764918
1769+1017918802+1021215408+1023292673+1023166223+1020540367+1016886191
1761+1014614894+1013995392+1013607970+1013013194+1012090890+1009564003
1752+1004193783+997111043+992153419+991478955+993125688+994657310+995354963
1742+995473406+995376422+995384430+995214997+993722066+990460308+988040718
1732+989969498+994924110+1000338978+1005156187+1008364777+1009443254+1009132702
1723+1008155244+1005675888+1000176848+992390561+987966539+991564472+999578612
1713+1007069273+1012037530+1013945298+1012874509+1009957702+1007544261
1704+1006820792+1006038391+1003138752+999189333+997752325+1000250066+1006218009
1694+1013260969+1017717853+1018250045+1016046009+1012910317+1008892229
1686+1002729999+996808114+997459773+1003471211+1009371445+1012949969+1013941455
1676+1013159822+1012214778+1011389265+1009674823+1008360357+1010965202
1667+1016625732+1020652724+1021126495+1019971534+1020483099+1022787129
1659+1023953621+1021791351+1015510102+1005807463+999226487+1001866500
1650+1005470839+1004562436+1001939846+1004002891+1010885130+1016693889
1642+1018755333+1017038712+1011867841+1004232410+998086066+998648494+1003289287
1632+1005833086+1004063810+998605767+991322142+983203587+973384811+961667491
1622+950028129+938768438+923721714+898976452+864200510+827796796+792752260
1612+754335595+710769709+666763939+629667760+603424314+586799272+575569687
1602+564659815+549825059+529612525+506064694+483695174+467877932+462444135
1592+467747126+481908955+503415425+531774187+566572965+606514462+649135175
1582+690875990+727664243+757431123+782942452+810338682+839418478+861628398
1572+874727701+883382611+892648056+903592007+913542998+921020398+925831585
1562+927011914+923045328+915587146+915293184+925104401+935293880+942858527
1553+948029911+951315434+953806065+955591547+954915353+950383073+942838797
1543+934779240+930283665+935746640+948403304+957930360+961707335+962764673
1533+965300079+969544740+971985982+971077963+968379657+965984473+963768586
1523+961256817+960438799+962420939+965107714+968201640+973245358+978926065
1513+981632442+979164873+971530851+961168417+956727612+966699934+980548969
1503+988552860+990741138+988986211+985569497+983762491+985402242+987762067
1493+986671547+980421814+971395305+965629144+965358564+966099392+963683197
1483+956895571+946493741+933946937+919570706+902330773+881567598+857242362
1473+829760231+802715871+780306859+760927332+740556639+717608389+694471617
1463+674758221+658053106+640858141+620301681+598744638+587228779+590030090
1453+601065259+617298268+638784976+666185817+698524361+730919403+758193923
1443+779172460+794468624+804181769+808674974+809250148+807983021+805867129
1434+800673773+788587224+766352770+734072070+696283492+657645955+622270112
1424+596949483+588302836+599506797+632190292+680099551+726996569+764765290
1414+795264798+820794961+842156564+859487779+872669525+882467866+890760978
1404+898486346+904504189+907642188+908479487+908863001+910126412+912582580
1394+916101978+919463794+920686337+918775557+914560107+910110718+906303252
1384+901457730+893557036+882466841+869944635+858028800+847863919+840250204
1374+836183945+835576293+836554583+837414687+837827603+837829205+836976596
1364+835310645+834260738+834931551+835914646+834865892+830786693+824178621
1354+816251791+807934402+799520541+791268746+783695323+777097373+771309304
1344+765823268+759939049+753547044+748219551+746453542+748858655+753603286
1334+758781333+763648250+768087646+771844122+774437245+775644991+775754914
1324+775295235+774701804+774242958+774167754+774687071+775516555+775792067
1315+774968348+773452549+771975697+770731951+769484618+768081112+766526815
1305+764775283+762632550+759900998+756582229+752789624+748481291+743533596
1295+738156138+733127026+729619607+728813439+731551013+738115653+748105912
1285+760591477+774604116+789465456+804680523+819793546+834425879+848271263
1275+861043935+872537053+882672146+891414687+898651359+904170064+907789585
1265+909553800+909781077+908963507+907655768+906278462+904904294+903451208
1255+902103688+901345308+901710053+903688221+907633604+913491623+920715867
1245+928524574+936140147+942870954+948165265+951679987+953347731+953420116
1235+952382893+950791506+949219720+948251807+948325345+949540265+951703240
1225+954480593+957292665+959123757+958868294+956142188+951495244+945353449
1215+936485611+921369705+894944847+852513233+792476812+719088829+643335960
1205+579932022+540975734+530409884+543141335+568593796+595730527+617232160
1196+631958659+644658625+662004958+687119002+717359653+747209680+772623129
1186+792640031+808189864+820501192+830428097+838398871+844539193+848860851
1176+851398435+852160082+850960088+847340696+840623085+829936646+814131223
1166+791710553+761052885+721063730+671966071+615633342+555273814+494898687
1156+438885223+391500405+356363721+336027588+331665413+342810089+367232084
1146+401143662+439996145+479726539+517584044+552009942+582156428+607695367
1136+628788567+645921780+659687797+670670887+679458268+686681743+692897462
1126+698342821+702932689+706567775+709379271+711711358+714011609+716766478
1116+720455117+725436057+731756446+739102079+747047742+755301394+763594762
1106+771473100+778378656+783910686+787975216+790836164+793083759+795374017
1096+798076614+801257724+804985822+809392677+814341717+819327013+823839243
1086+827602765+830419578+832048759+832215438+830458012+825989919+817887955
1077+805352873+787770039+764869960+737236012+706708702+676006195+647644807
1067+623057126+602492338+585468920+571408046+560108703+551620150+545602947
1057+541009941+536465874+530834939+523564766+514893842+505938436+498470068
1047+494389524+495186499+501676865+514032008+531915978+554607100+581052969
1037+609854242+639345801+667915698+694328064+717764626+737706709+753922935
1027+766516950+775900837+782734265+787846524+792101946+796245715+800795547
1017+806036946+812107253+818977642+826288620+833373538+839636723+844876585
1007+849217909+852869202+855977157+858508720+860021829+859537168+856103095
997+850166156+844403903+842379036+845704660+852692595+860024584+865424334
987+868591094+870350121+871707697+873436488+875796377+878473992+880979035
977+883012357+884452632+885358473+886145487+887471035+889771221+892991790
967+896724437+900468165+903782386+906327082+907868504+908347015+907921031
958+906792846+904940167+902151283+898349775+893708276+888357658+882084096
948+874348479+864464556+851768241+835966725+817709490+798816418+781639005
938+767949089+758298529+752180755+748465917+745598499+741749331+735464366
928+726735085+717463619+710512966+708111568+711075073+719082807+731149819
918+745882339+761778724+777632960+792818432+807282165+821217102+834627085
908+847179911+858371316+867727980+874990210+880276962+884020755+886723608
898+888842063+890730743+892489065+893955667+894961951+895535845+895904305
888+896319848+896711817+896530213+895256104+893111834+890972369+889482000
878+888441830+887097642+884806359+881273060+876385644+870253265+863446678
868+856862243+851163600+846378676+841976369+837283112+831822827+825188107
858+816670217+805329044+790551940+772416799+751538832+728759439+705112895
849+682146837+662136533+647628023+640492692+641201939+648589787+659959081
839+671577240+679729873+682075413+678497658+670800924+661628811+653631134
829+649155545+649948452+656745943+669161749+685984859+705606396+726372966
819+746723930+765071806+779825593+789938074+795588867+798272887+800127104
809+802994522+807909163+815189201+824630292+835408205+846081960+855191681
799+862099735+867197517+871232516+874603685+877410505+879842074+882176403
789+884567488+887067278+889769620+892814606+896177896+899441831+902034442
779+903829084+905156426+906205948+906974834+907756467+908942176+910330180
769+911230000+911241722+910510311+909308459+907778374+906131385+904780599
759+904081985+904076476+904599828+905475241+906508109+907483004+908254196
749+908800224+909221276+909588071+909691396+909221724+908321713+907500043
739+906838327+905768690+903708656+900438570+895885408+889987929+882858747
730+874979704+867360416+861500283+858827344+859900376+864167712+870386826
720+877119298+883075582+887389681+889603902+889194509+884980212+874938259
710+856617543+828001525+788621623+740869497+691058043+648842367+624346289
700+624134578+647850560+687927155+733243227+774166281+805789811+827979297
690+843103017+853622457+861039323+866125766+869462920+871676757+873327142
680+874590297+875161884+874704704+873322978+871528848+869964301+869030082
670+868344023+866486027+862968615+860087040+859267421+859865144+860807242
660+861665167+862788292+864266618+865296218+864963694+863176931+860531281
650+857611847+854747696+852227407+850244627+848485344+846135513+842675240
640+838531214+834584807+831266101+828593803+826788783+826204576+826796150
630+828035475+829189092+829611489+829064884+827768034+825982232+823785370
620+821385574+819223368+817532883+816188823+815255245+815252618+816478236
611+818433663+820433995+822494606+824962176+827509369+829297606+830036640
601+830104221+829645119+828239179+825582319+822120509+818986994+817399130
591+817853876+819836977+822421708+824865769+826676874+827766817+828744979
581+830542248+833454891+836792942+839448521+840576643+840044387+838523911
571+836965194+835862375+835122059+834536187+833990478+833379624+832804000
561+832506708+832175081+830846267+827888783+823457394+817791356+810872411
551+803036544+795250834+788466667+783091066+779330491+777629308+778374813
541+781380404+785867459+790885424+795758684+800162656+803705820+805593474
531+805186195+803071391+801150683+801404288+804280162+808009669+810100451
521+809547953+807532887+806420012+807676633+810745129+814293673+817584706
511+820302485+822251635+823592492+824565210+824909840+824524597+824651047
501+826970771+831106597+834750460+836324039+835998946+834710360+833347402
492+832696896+833036082+833687741+833795807+833434585+833448422+834174260
482+834907081+834972869+834753150+835152487+836166009+836586868+835449458
472+833525035+832605293+833364058+834986449+836292459+836792494+836762194
462+836277277+834887287+832913219+832079635+833018210+833995987+834318262
452+835650600+838763039+841370767+840839664+837447805+833864925+832302876
442+833124033+835529531+838614745+841442320+842839163+842256622+840579141
432+839277615+839431354+841589012+845513896+850015940+853611055+855597102
422+855952559+853959145+849372224+846578920+849745937+856271374+862295752
412+866920723+871612059+876961460+881557733+884026712+883636664+879510126
402+871641013+862101273+854863513+854584989+861290750+868989790+875187379
392+882054950+889948789+895270517+894239828+886905853+877603959+872605979
382+874926857+882425139+891779432+900233906+904473121+901463239+894306448
##END=
