##TITLE=X7492
##JCAMP-DX=4.24
##DATA TYPE=INFRARED SPECTRUM
##DATE=29/10/2018
##SAMPLING PROCEDURE=Diamant-ATR
##ORIGIN=ComPlat
##XUNITS=1/CM
##YUNITS=TRANSMITTANCE
##RESOLUTION=4
##FIRSTX=3997.453
##LASTX=373.96442
##DELTAX=-1.4165319
##MAXY=0.89251029
##MINY=0.37413672
##XFACTOR=1
##YFACTOR=8.3121499e-010
##NPOINTS=2559
##FIRSTY=0.86379749
##XYDATA=(X++(Y..Y))
3997+1039198643+1038960142+1038923213+1038605404+1037962184+1037279669
3989+1036762512+1036597369+1037032492+1037968925+1038863193+1039369236
3980+1039658864+1039899587+1039947990+1039742690+1039513727+1039443597
3972+1039459659+1039480311+1039573818+1039758753+1039866315+1039717736
3963+1039341843+1038998578+1039044471+1039654418+1040550336+1041125505
3955+1040988686+1040353928+1039791738+1039671915+1039895356+1040068101
3946+1039951647+1039751869+1039908264+1040572422+1041387597+1042025797
3938+1042547615+1042922862+1042791278+1042071403+1041340772+1041083914
3929+1040979794+1040596157+1040149346+1040159958+1040752480+1041462603
3921+1041749291+1041489063+1040991769+1040724012+1040938634+1041609102
3912+1042687660+1044098297+1045393269+1045800857+1044896190+1043100339
3904+1041427108+1040605766+1040668080+1041472284+1042752484+1043910638
3895+1044500937+1044593942+1044587130+1044755069+1044893035+1044664502
3887+1044004216+1043056239+1042068319+1041279103+1040918986+1041268060
3878+1042216755+1043154407+1043511153+1043021891+1041946058+1041146300
3870+1041518607+1042882921+1043957965+1043965279+1043231564+1042596304
3861+1042458339+1042500574+1042336650+1041922537+1041512584+1041426247
3853+1041757824+1042416103+1043430840+1044773498+1046123327+1046944956
3844+1046767550+1045581359+1044077932+1043212131+1043407751+1044230383
3836+1044998016+1045596418+1046150791+1046503809+1046457557+1046202134
3827+1046133868+1046331280+1046440491+1046177753+1045679312+1045215147
3819+1044766830+1044492188+1045041040+1046518652+1047797060+1047925704
3810+1046974212+1045670133+1045100414+1045816059+1046715849+1046312492
3802+1044649946+1043559628+1044550702+1047114832+1049953746+1051853574
3793+1052357034+1051999571+1051461977+1051030726+1050754722+1050620127
3785+1050501522+1050205368+1049638231+1048937717+1048558669+1048877411
3776+1049549959+1049947507+1049970669+1049987233+1050205512+1050308198
3768+1049960773+1049478036+1049382951+1049635865+1049803087+1049777631
3759+1049808179+1049880317+1049630917+1048939940+1048048253+1047346878
3751+1047179655+1047304786+1047024838+1046173809+1045106366+1044339666
3742+1044090553+1043908343+1043235150+1041991449+1040811137+1040615447
3734+1041586586+1043403233+1045913295+1048566270+1050445948+1051008927
3725+1050476783+1049624893+1049162163+1049319131+1049847546+1050352728
3717+1050674768+1050826502+1050783119+1050633464+1050816893+1051640458
3708+1052662080+1053276759+1053281707+1052799544+1052162850+1051786527
3700+1051800008+1051943495+1051994695+1052083971+1052605000+1053768245
3691+1055179671+1055869357+1055115564+1053553337+1052346350+1051830627
3683+1051677316+1051463483+1051089311+1050736509+1050560824+1050871104
3674+1051868202+1052676421+1052407875+1051578072+1051956187+1054055292
3666+1056267049+1057171500+1056502466+1054909834+1053272313+1052139473
3657+1051955184+1053013376+1054550434+1055210433+1054467899+1052655339
3649+1050523680+1049002971+1048756368+1049790682+1051609193+1053485429
3640+1054862220+1055677754+1056057733+1055842753+1054865447+1053454165
3632+1052126852+1051106951+1050681222+1051224337+1052164284+1052722744
3623+1052914635+1053127822+1053571120+1054117606+1054529926+1054678720
3615+1054522110+1054161132+1053898753+1054036791+1054823068+1056359982
3606+1058043683+1058869900+1058614334+1057839961+1057066018+1056417062
3598+1055883268+1055426131+1054973582+1054697435+1054828087+1055073687
3589+1054860714+1054184222+1053971322+1054859065+1056143424+1056831103
3581+1056749929+1056572739+1056800483+1057070894+1057045796+1057213234
3572+1057974771+1058728277+1058664099+1057940423+1057530398+1057681630
3564+1057679263+1057416741+1057502790+1058336753+1059705297+1060999480
3555+1061544245+1061044800+1060072011+1059604476+1059789482+1059972337
3547+1059802031+1059479919+1059254470+1059423987+1060438080+1062245476
3538+1063940721+1064590753+1064181803+1063362541+1062612477+1062117836
3530+1061947745+1061882778+1061460203+1060628034+1060068712+1060502832
3521+1061735418+1062763996+1062950508+1062754602+1063038923+1063803401
3513+1064130174+1063462932+1062432203+1062075457+1062512301+1062960045
3504+1062904615+1062703546+1062952014+1063555220+1063911895+1063793003
3496+1063615885+1063899418+1064657657+1065428731+1065781319+1065678418
3488+1065379468+1065103823+1064902682+1064773680+1064716242+1064696092
3479+1064725564+1064949077+1065524318+1066402882+1067280085+1067823128
3471+1067917639+1067589002+1066830835+1065748333+1064743276+1064239600
3462+1064265988+1064561281+1065041867+1065874180+1067025092+1068003402
3454+1068346094+1068261478+1068386752+1068902045+1069284248+1069026243
3445+1068296042+1067705384+1067704093+1068256100+1068833349+1068838798
3437+1068234803+1067619119+1067525326+1067861062+1068215514+1068477319
3428+1068860884+1069441933+1069900577+1069770068+1068954607+1067980670
3420+1067552933+1067855325+1068509444+1069078876+1069361477+1069381197
3411+1069322611+1069375245+1069584345+1069903086+1070310315+1070762290
3403+1071101611+1071149656+1070912805+1070577642+1070245706+1069836039
3394+1069364775+1069075434+1069141405+1069488256+1070018823+1070696390
3386+1071334088+1071626800+1071568501+1071593886+1072034244+1072623539
3377+1072892443+1072876237+1072933389+1073082900+1072989392+1072423259
3369+1071480157+1070595999+1070244774+1070337851+1070377936+1070452942
3360+1071225379+1072665201+1073741823+1073673414+1072724647+1071623501
3352+1070866912+1070634937+1070816358+1071058658+1071069415+1070803522
3343+1070284931+1069583484+1069000213+1068768023+1068562580+1067951198
3335+1067260078+1067262086+1068075612+1068996914+1069330714+1068984509
3326+1068387326+1068078265+1068260546+1068571973+1068323649+1067161623
3318+1065529624+1064266992+1063765683+1063803616+1063963955+1063775650
3309+1062810821+1061197537+1059704652+1058958316+1058870689+1058860722
3301+1058356472+1057194805+1055719344+1054394757+1053426700+1052845580
3292+1052624863+1052548996+1052262810+1051559141+1050442435+1048989992
3284+1047405822+1046169363+1045751594+1045967291+1045878158+1044722586
3275+1042797875+1041020596+1039798479+1038800808+1037638997+1036223771
3267+1034567893+1032828762+1031513138+1031006522+1030837363+1030068225
3258+1028475450+1026673145+1025073414+1023434531+1021494547+1019502933
3250+1018010836+1017303223+1017017754+1016364136+1014895058+1013027713
3241+1011535186+1010528623+1009291447+1007314462+1005064484+1003236221
3233+1001724476+999942177+997719520+995351655+993162773+991395676+990111819
3223+988947642+987364260+985322451+983358373+981787110+980234563+978295368
3213+976233982+974515001+972980095+971060762+968565687+965782705+962975845
3203+960138150+957219927+954466058+952393486+951298722+950843019+950247700
3193+948872917+946673924+944197780+942050990+940463952+939565811+939658386
3183+940655412+941627986+941540574+940202649+938080024+935495673+932528187
3173+929482037+926927015+925279168+924637598+924880831+925591599+926061573
3163+925723757+924487011+922548748+920083073+917134805+913671387+909884997
3153+906402290+903779719+901832994+899870565+897420881+894424210+891092878
3143+887854766+885038368+882562583+880284353+878355125+876776189+875027737
3133+872637642+869768467+866919514+864371376+862132943+860183924+858656761
3123+857785869+857590466+857695374+857622806+857142076+856287032+855249921
3114+854342817+853884532+854046376+854845345+856250317+858178470+860370292
3104+862404142+863977054+865096127+865885343+866442514+867039983+868056371
3094+869361812+870091511+869337073+866929912+863505933+859962777+856794508
3084+853833189+850657320+847158622+843579037+840154987+836960832+834032355
3074+831382893+828814318+825901688+822427156+818796157+815862660+814407994
3064+814743300+816443279+818419547+819688346+820145914+820360177+820881493
3054+822140109+824545478+828114091+832250343+836271146+839979375+843551717
3044+847078094+850445925+853641801+856947246+860625787+864502386+868114024
3034+871155226+873439408+874595625+874216506+872268849+869150991+865469366
3024+861795629+858470034+855631837+853379637+851673062+850201329+848732896
3014+847508413+846951458+847109215+847654553+848244709+848654950+848761221
3004+848613933+848440902+848443913+848569545+848546814+848249944+847941026
2995+847910837+847998034+847784846+847118322+846138577+845025098+843933848
2985+842907493+841790500+840504348+839271690+838303849+837569847+837096862
2975+837081517+837520082+838133758+838762994+839503163+840453220+841623636
2965+843106124+845138396+847883516+851175552+854609570+857943914+861290806
2955+864871538+868714935+872611038+876235225+879332288+881859488+883890469
2945+885339828+885905460+885386654+883995880+882242049+880519339+878911506
2935+877312636+875508323+873187498+870161785+866615258+862971566+859505065
2925+856113571+852488953+848605328+844977986+842177435+840106871+838078543
2915+835628357+832976744+830627738+828717297+826946400+825154492+823702623
2905+823097409+823441822+824501664+826106916+828249619+830919445+834017727
2895+837396099+840925847+844527302+848092760+851427247+854375300+856973348
2885+859347308+861472083+863168763+864330502+864992724+865141231+864633253
2876+863409128+861661249+859729941+857876078+856121745+854256982+852032390
2866+849385079+846538277+843968052+842172990+841273916+840883826+840487281
2856+839854173+839057857+838264768+837556940+836901387+836336902+836155697
2846+836745279+838223536+840251147+842204541+843660067+844688931+845469400
2836+845758239+845157327+843722310+841826210+839615170+837060650+834368522
2826+831946732+830048338+828690550+827874228+827696392+828219860+829387264
2816+831122092+833331052+835768904+838143940+840376421+842524788+844571689
2806+846552332+848694030+851138910+853719819+856218264+858627433+861004620
2796+863251442+865197163+866777819+867992694+868803925+869267445+869623617
2786+869994992+870121915+869656603+868548000+866896281+864702164+862061594
2776+859359068+856972129+854927666+853015146+851111230+849292146+847771222
2766+846797573+846456745+846456315+846205983+845214909+843400341+841035201
2757+838515244+836187320+834287348+832970290+832358192+832500675+833314344
2747+834672204+836550592+838957609+841695415+844376213+846813277+849255933
2737+852022494+854987685+857653999+859655508+860950696+861648485+861993973
2727+862423360+863267075+864431825+865634438+866854332+868308782+870048415
2717+871799879+873225288+874244830+875073415+875991275+877144194+878528084
2707+880012723+881331718+882158438+882245061+881472910+879845716+877529624
2697+874883747+872392903+870471778+869241486+868525412+868114956+867916253
2687+867812564+867643046+867427708+867397806+867684637+868139265+868523117
2677+868745985+868867171+868989720+869225997+869664276+870277952+870935369
2667+871547468+872152108+872871266+873855313+875155377+876584944+877892896
2657+879119172+880568818+882440536+884655233+886913314+888771910+889944477
2647+890674319+891522336+892716415+894012033+895144587+896070120+896774291
2638+897177648+897278039+897212283+897155634+897196507+897252941+897109526
2628+896633099+895897950+894960369+893661453+891927199+890152286+888915182
2618+888368768+888272680+888537855+889288995+890417605+891604227+892838391
2608+894432886+896424500+898394961+899952168+901036463+901759852+902267759
2598+902765841+903442548+904315018+905232018+906039305+906678867+907129408
2588+907397523+907636454+908099400+908877932+909861262+910947277+912095033
2578+913277209+914546223+915937140+917270189+918378793+919361979+920191281
2568+920488223+920211431+919962174+919986555+919515434+917778240+915190088
2558+912908272+911614949+911197825+911198183+911106397+910549299+909561021
2548+908469699+907462849+906622863+906278020+906808730+908149811+909830714
2538+911367414+912526500+913510833+914835851+916693300+918702626+920571117
2529+922509667+924687005+926814290+928515917+929635492+930150785+930325250
2519+930837316+932155736+933845532+935034950+935558920+936179049+937603741
2509+939595785+941143312+941422973+940540464+939279195+938216843+937377431
2499+936722236+936534577+937113904+938366641+939819800+940882583+941180600
2489+940845940+940409311+940306984+940682231+941620170+943068238+944444455
2479+945000191+944829526+944857851+945569767+946444029+946924041+947231238
2469+947797945+948427898+948524991+947997579+947514699+947685148+948205030
2459+948200800+947353356+946228188+945510679+945430868+945930242+946842294
2449+947834874+948602005+949159820+949671026+950124076+950491364+950932295
2439+951499361+951954634+952251289+952872853+954257245+956138716+957848159
2429+959079455+960000256+960814713+961592098+962355715+962985310+963248908
2419+963226033+963339690+963699879+963880511+963605081+963143354+962851432
2410+962768394+962752331+962692886+962603251+962579802+962588694+962427280
2400+962061139+961730423+961600847+961649321+961955657+962727951+963992447
2390+965488273+966779158+967337332+966806335+965407458+963831176+962531399
2380+961341766+959924102+958354202+957062313+956301564+955815170+955082316
2370+953972278+952941693+952309158+951780527+951215900+951136089+951753780
2360+952382371+952635428+953304534+955133587+957467964+959024455+959518450
2350+959646019+959886814+960072179+959851749+959353522+959238073+959843072
2340+960702993+961253781+961642939+962384900+963416991+964164976+964428287
2330+964453385+964262499+963738601+963181575+963038015+963297383+963710205
2320+964389995+965582425+967053871+968299651+969157492+969816631+970429661
2310+971045488+971807169+972908530+974285966+975488005+976070632+976172026
2300+976454986+977331112+978488764+979291462+979396585+978987851+978695067
2291+979165829+980419641+981826334+982909625+983776573+984588234+985205208
2281+985538865+985647216+985401186+984733299+984154473+984297387+985028377
2271+985640977+985760801+985654387+985938565+987195102+989359675+991328557
2261+991779743+990579425+988804513+987317507+986098402+985128338+984885176
2251+985540730+986626028+987885290+989497784+991116374+991668596+990619295
2241+988755321+987239991+986352247+985735416+985579380+986604372+988767153
2231+990913154+991948615+991757084+991129425+991207586+992541783+994495033
2221+995994301+996547384+996168049+995128930+994228567+994498833+996295689
2211+998993339+1001611679+1003644023+1005118050+1005790239+1004948102
2203+1002637030+1000206420+998879753+998624258+998765236+998785027+998287231
2193+996885128+994537197+991999313+990439954+990109309+990042477+989806630
2183+990481114+992842812+995756159+997435270+997343126+996116276+994610554
2173+993707322+994125738+995507835+996350976+995729627+994406259+993534363
2163+993660138+995341401+998355856+1000217248+998984232+996735975+996739059
2153+999849745+1004767112+1009334185+1011649560+1011411633+1009922691
2145+1008293489+1006450812+1003878149+1000542945+997340042+995926035+997446600
2135+1001167449+1005032789+1007612193+1008811722+1009102569+1008984753
2126+1008865574+1008836461+1008811435+1008939505+1009230639+1008984968
2118+1007684618+1006227155+1005945272+1006595303+1006654319+1005562065
2109+1004442275+1004455039+1005310586+1005752234+1005222815+1004592431
2101+1004970475+1006278140+1007599213+1008461787+1008952197+1009055959
2092+1008823410+1008693619+1008894974+1009035020+1008841122+1008593013
2084+1008333287+1007593764+1006552494+1006434176+1007906768+1009935455
2075+1011092892+1011334189+1011622741+1012430602+1013438528+1014288839
2067+1014974797+1015568753+1015845115+1015308382+1013733749+1011625251
2058+1010088552+1010331498+1012822342+1016157403+1017363242+1014758024
2050+1010269614+1007675941+1008656331+1011929221+1015915532+1020215494
2041+1024398285+1027004794+1026589246+1023441774+1019596296+1016717513
2033+1014677424+1013070810+1012730126+1014006669+1015230435+1015076407
2024+1014814816+1016015851+1017686716+1017784454+1016178055+1014489621
2016+1014216271+1015853505+1018479877+1019957991+1019066304+1017260054
2007+1016782122+1017618952+1017888861+1016661079+1015091752+1015004914
1999+1016734723+1018380346+1017910516+1015960206+1015259692+1017120869
1990+1019876244+1021362748+1021004710+1019007145+1015714678+1012182063
1982+1009993037+1010413675+1014214335+1020930636+1027497713+1030196367
1973+1028748370+1025933622+1023709100+1022117760+1021180108+1021396666
1965+1022452492+1023251604+1023348267+1023457836+1024444178+1026018667
1956+1026650772+1024995683+1021554064+1018661656+1018391174+1020489848
1948+1022721540+1023304381+1022502186+1021700133+1021721717+1022503763
1939+1023827347+1025447371+1026666763+1026670348+1025433674+1023758077
1931+1022384585+1021486731+1020821138+1019954477+1018609094+1016991652
1922+1015327026+1013154923+1010087835+1007140140+1005890917+1006044515
1914+1005786080+1004563533+1003972875+1005696302+1009312458+1013088020
1905+1016082898+1018191468+1019181538+1018999113+1018365288+1018115673
1897+1018294799+1018279740+1017539500+1016094013+1014250189+1012195974
1888+1010187795+1008872745+1008694838+1009024264+1008540164+1006819391
1880+1004917125+1004083736+1004634022+1006238629+1008557517+1011265206
1871+1013851206+1015583525+1015971823+1015642253+1015826399+1016822350
1863+1017762081+1017414155+1015045716+1010854392+1005856784+1001316601
1854+998018398+995985552+994710157+993514141+991854104+989552139+986980050
1844+985266447+985625847+987890237+991050690+994545013+998107746+1001238942
1834+1003417570+1004661701+1005500396+1006547546+1008107335+1010031687
1826+1011964644+1013560574+1014608011+1015094334+1015143382+1015020403
1817+1014999321+1015060129+1015029008+1014963610+1015026355+1015169268
1809+1015332691+1015675024+1016168231+1016373387+1015989535+1015344092
1800+1015006635+1015050664+1015120077+1014945253+1014409811+1013535548
1792+1012672759+1012253412+1012201352+1012115303+1011670355+1010795950
1783+1009818500+1009204537+1009087367+1009250000+1009495886+1009785801
1775+1010020214+1009947216+1009473800+1009014798+1009018886+1009395424
1766+1009697600+1009557627+1008904010+1007910139+1006891385+1006078648
1758+1005508212+1005138128+1004833943+1004327256+1003263183+1001414339
1749+999239655+997629670+996643042+995640781+994330105+992939116+991652318
1740+990411916+989129206+987523093+984969218+981334132+977929012+975546232
1730+973614135+971732736+969824447+967831327+965924615+964459839+963495296
1720+962903348+962988035+964303085+966340377+968112063+969638007+971298689
1710+972994795+974299734+975130972+975934530+976990070+978037865+978802127
1700+979308385+979741644+980260020+980979966+981729672+982130017+982140558
1690+982130519+982433700+982934221+983485726+984603651+986760408+989224864
1680+991317443+992883255+993938723+994694811+995425944+996096556+996626621
1670+997446600+999013130+1000732828+1001803641+1002328327+1002999513+1004234968
1660+1005631478+1006653100+1007182017+1007369246+1007701254+1009027634
1652+1010850734+1011861313+1012280015+1013085868+1015107098+1017729454
1643+1019900983+1021496841+1022790164+1024037594+1025550271+1027758802
1635+1030521705+1032928364+1034650142+1035943465+1037126644+1038375939
1626+1039605083+1040744377+1042024721+1043541916+1044908022+1045871489
1618+1046784904+1048282092+1050130075+1051319709+1051381449+1050101966
1609+1045853204+1034162241+1008975000+965890697+905596581+838017734+782258781
1599+756379129+765735713+801440991+847093224+887318391+912625241+917672399
1589+898373520+854551917+795226430+738063938+700915182+691957221+706311987
1579+732935895+764763785+799395309+830323912+850352633+862293784+872857713
1570+885751216+899277254+910402011+919045246+925781410+930496775+933494737
1560+936478501+941541004+946993813+951186213+954786090+958235884+961631322
1550+965148951+968653386+971616283+973845824+975713885+977766451+981027867
1540+986749150+993053203+997421072+1000248226+1003009696+1006654606+1010649164
1530+1014161773+1017292968+1020445532+1023524740+1026183667+1028727145
1521+1031807427+1034899470+1036567323+1035872259+1031862284+1023115503
1513+1008678632+989263658+966648649+940704890+910959611+886733614+873945808
1503+864725325+853600927+840750449+830334453+828043889+835190365+846624183
1493+858156599+869862046+883125418+897445907+910412552+920787101+928847494
1483+935136417+940058157+943778935+946291506+947711967+948636496+950367237
1473+954528946+961136610+967740832+972686594+976394392+980033638+984348084
1463+988794402+992276392+994423038+995881146+998557570+1003423808+1007652994
1453+1009114759+1007721762+1003703899+997577180+990547515+984043756+978350511
1443+972466666+965669407+958332474+950714805+941973976+931671565+921208528
1434+911239774+900389443+886626411+867792916+841312710+803129137+750417123
1424+689773502+636338313+600680972+586277373+593151324+614169686+640526841
1414+668731907+697462663+724916160+749515827+771112799+791075979+810494251
1404+828189241+842492305+853890985+863859166+873042003+881572871+889911563
1394+898247816+905953757+912553964+918540853+924991548+932442496+940248829
1384+947628858+954430276+960760431+966761446+972496640+977945075+983373360
1374+989189369+995058800+1000085593+1003743841+1005783857+1005852338+1003190041
1364+996015670+982140200+961746557+937907854+913482437+890224424+869557646
1354+852113635+836920891+821295821+801358169+774326817+742798091+715874373
1344+702336503+701876282+705170971+702321659+691108630+677167189+666382112
1334+660490451+658412142+658416588+659976163+664498992+673650492+687095285
1324+702615016+718241807+733765124+750336953+768865833+788752071+808403896
1315+826729269+843523750+858892608+872995464+886114488+898555730+910516385
1305+922061780+933112391+943528961+953281301+962452449+971033513+978733359
1295+984844375+987848145+984602002+970106474+939411639+891100049+829155934
1285+761444859+696791621+642524693+602706109+578448632+570233996+578318232
1275+600312645+630528973+662902632+693779461+721925942+747143444+769466386
1265+789143596+806566597+821704699+833857029+842226986+845894412+843121685
1255+833048021+819297036+809444520+808922272+816891309+828896495+841397613
1245+852836163+862598757+870605011+877209090+882821233+887717661+892021997
1235+895672428+898622346+901103080+903504862+906055941+908722756+911400041
1225+914123864+917000568+919936789+922640678+924892233+926572132+927353103
1215+926475399+922929015+916230641+907542445+899891360+896509976+898479074
1205+904037939+910190186+914799495+917309342+918260977+918673871+919534006
1196+921356246+924142097+927704471+931869335+936441572+941130118+945494258
1186+949024364+951391943+952609972+953010245+953218557+953968191+955609440
1176+957814672+959945399+961669041+963125069+964610497+966275769+968108693
1166+970063019+972104972+974168366+976142626+977930088+979493176+980855410
1156+982121125+983520863+985296349+987420408+989594805+991717286+994151409
1146+997248543+1000776498+1004122745+1006923869+1009196004+1010931764
1137+1011827324+1011375995+1008941585+1003500536+993401918+977028433+954598431
1128+929762200+909080005+898733493+899982357+907051605+910806300+906074657
1118+894942729+882139794+868623078+851115605+826887886+797729966+769990642
1108+751515902+747530236+757986891+778267593+802388826+825854720+846468936
1098+863691728+877786338+889305918+898853891+906974734+914103068+920547669
1088+926513404+932118448+937399517+942391244+947189647+951800247+955901578
1078+958613928+958167761+952352541+940601846+925259664+908947274+891385518
1068+871905863+854936988+848836299+857369605+875028310+892554427+905201112
1058+914278753+922622320+930961299+938357247+944151313+948528863+951830078
1048+954150185+955659420+956860384+958346601+960470085+963248335+966378383
1038+969333248+971650344+973198660+974092212+974389728+974052844+973246561
1028+972463870+972138173+972307905+972875688+973916241+975410919+977002619
1018+978383640+979672876+981122809+982681809+984067492+985140528+986046485
1009+987004645+988065133+989132002+990130032+991076648+992098987+993422283
999+995192750+997236998+999067413+1000221551+1000687795+1000966165+1001557755
989+1002456183+1003317752+1003965705+1004513696+1005141140+1005889411
980+1006579671+1007011568+1007310446+1007843235+1008743241+1009780423
972+1010656478+1011170193+1010925454+1008738149+1002680700+991697494+977292964
962+962586184+949763242+939811411+934477350+936356096+946208540+961259947
952+976826145+989332354+997842499+1003374402+1007261254+1010165136+1012217630
942+1013537628+1014374817+1014908324+1015150696+1015062567+1014369009
933+1011911796+1005840076+995543330+983218471+972574443+966325606+965656930
924+970794654+980252777+990275312+996941992+998809623+996729737+991876477
914+984765281+975384889+963276229+947121381+923662801+887178274+832866529
904+764735245+700768898+665846168+673996841+716170096+767186507+804628047
894+819982922+815336539+796110301+768381662+738449512+711291308+689573508
884+674745615+668542024+672865650+688013432+711132547+737009905+760874925
874+780382115+795130700+805283457+811064114+812836445+811168951+807084113
864+802162802+797973127+795455106+794953008+796361780+798954736+801518436
854+803064959+803381764+802883897+802103357+801419909+801186715+801803833
844+803456986+806033234+809501241+814066952+819816058+826540892+833888007
834+841324040+848206847+854324029+860070984+865694314+870670552+874275951
824+876636144+878786089+881614964+885070709+888520789+891528216+893992815
815+895824449+896901071+897274239+897002394+895511444+891184162+881857193
805+865862612+842170552+809020153+763650951+706699066+648550161+608278384
795+602180347+632901642+689794225+757345321+822505461+877431169+919159405
785+947757143+964154005+968694833+960489447+937893512+900715785+852565394
775+800175491+749390553+701652625+654708360+606916723+560864468+523028570
765+500209983+495509641+506170555+525031909+545109248+563176472+579291128
755+594315107+608678227+622619596+636544903+650896442+665862302+681357294
745+697183505+712946971+727686879+739842580+748065607+751631710+748649165
735+734664986+706788485+670071696+635365883+608499889+585396873+559847650
725+531597587+504439133+481016802+462864962+452212545+450108242+454300426
715+461424745+470285542+481690712+495972838+511867135+527461729+541461182
705+553539295+563905921+572910169+581002077+588611930+595926777+603005777
696+609948029+616679102+622894883+628497418+633764001+638955865+644146940
686+649489821+655138177+660787107+665860222+670415894+675281918+680934218
676+686759334+691717287+695378188+698238614+701529861+706765324+713670647
666+719750182+724167530+727821834+731698575+736300284+741350310+746137813
656+750424939+754681732+759232456+763725312+767891395+772296122+777685039
646+783953238+790400634+796625091+802563434+808069450+813126001+818328980
636+824641494+832489130+841252548+849371024+853132316+844377432+813197566
626+758203520+693346346+639723426+611242428+610159783+631158424+664998868
616+701381856+733263743+758891055+779334893+795886070+809944826+823326157
606+836913147+847633041+846599229+824198627+781772817+735355676+700474322
596+676566636+655117955+638009536+636833814+655842348+686216218+716925610
586+741544638+756773450+763073703+765545329+768679823+770328028+764166315
577+749257607+734987671+733419492+747554688+768514608+780689526+771492850
567+742259493+707847825+682537605+669310446+663844730+663991301+671465052
557+686946276+707363511+728025842+745670636+758902959+767301024+771758169
547+774631718+777838709+781520334+785197799+788846582+792416773+795610354
537+798359203+800865034+803387357+806182099+809265466+812356433+815250275
527+817962338+820541598+822978661+825020757+826014054+825548168+824512348
517+824756585+827085011+830424948+833289534+835212667+836755389+838668268
507+841198050+843967264+846170631+846739561+845128501+842575988+841366635
497+842462976+844870209+847301105+849521037+851642227+853484330+855186460
487+857088869+858916415+860129139+861026132+862617903+865267509+867937551
477+869181395+868992588+868832465+869738207+871521438+873875965+876969370
467+880852709+885171817+889100977+891516385+892133933+892576298+895405532
458+901391775+908265475+914133544+919715356+925401000+929600786+931698455
448+933878231+937803949+939889787+930288249+900110428+853219370+803453974
438+759150279+720657645+692137136+682032639+686126512+685381682+668334359
428+644239300+629808596+634756509+658318492+691507326+725307183+756203660
418+782707314+802598858+815974166+824135380+827714033+827506367+824888098
408+821191988+818257487+818523380+823007918+830148873+836799203+839623560
398+838890347+841224151+849190536+856920284+860576166+861295467+859630124
388+853732439+844545587+839122322+843965758+855545214+865539066+870858498
378+872674213+871437755+866087846+858842987
##END=
