##TITLE=LSH-R261A
##JCAMP-DX=4.24
##DATA TYPE=INFRARED SPECTRUM
##DATE=11/9/2020
##SAMPLING PROCEDURE=Diamant-ATR
##ORIGIN=Angelika Moesle
##XUNITS=1/CM
##YUNITS=TRANSMITTANCE
##RESOLUTION=4
##FIRSTX=3997.453
##LASTX=373.96442
##DELTAX=-1.4165319
##MAXY=0.95800036
##MINY=0.5696907
##XFACTOR=1
##YFACTOR=8.9220736e-010
##NPOINTS=2559
##FIRSTY=0.93733478
##XYDATA=(X++(Y..Y))
3997+1050579510+1050569423+1050588462+1050826091+1051119969+1050982884
3989+1050253565+1049379344+1048791118+1048446935+1048287069+1048569991
3980+1049343669+1050103519+1050439552+1050557331+1050790216+1051048621
3972+1051149097+1051221982+1051366349+1051348245+1051059109+1050896237
3963+1051254449+1051858909+1052002608+1051452930+1050755610+1050602224
3955+1051167736+1052085848+1052891125+1053315342+1053223818+1052565180
3946+1051575919+1050787410+1050616320+1050953155+1051286917+1051328671
3938+1051218441+1051155644+1051151101+1051115827+1051024504+1050900512
3929+1050693815+1050377356+1050179143+1050477631+1051284312+1052062132
3921+1052394090+1052418207+1052459092+1052525564+1052360286+1051959117
3912+1051680671+1051793973+1052125998+1052294416+1052163743+1051799385
3904+1051135736+1050149682+1049363978+1049488571+1050521857+1051715009
3895+1052414800+1052516812+1052327618+1052187393+1052007618+1051518466
3887+1050822884+1050205732+1049638216+1048938626+1048416338+1048613281
3878+1049373532+1050098776+1050646917+1051065055+1051173280+1050919552
3870+1050669631+1050676312+1050794358+1050966984+1051207151+1051257189
3861+1051021431+1050909731+1051165598+1051512454+1051593355+1051448520
3853+1051457205+1051635042+1051804128+1052107894+1052590766+1052955793
3844+1052775752+1052007151+1051250174+1051162859+1051767919+1052579008
3836+1053197029+1053357898+1052764395+1051552403+1050470750+1050083878
3827+1050261648+1050563610+1050707310+1050754876+1051113022+1052116645
3819+1053268645+1053895952+1053980327+1053859676+1053745639+1053580094
3810+1053305856+1052954190+1052477864+1051691360+1050687535+1050144270
3802+1050952821+1052899409+1054199784+1053983066+1052991134+1052222199
3793+1051972078+1051991785+1052091326+1052155794+1052030265+1051793773
3785+1051852028+1052354741+1052894065+1053127017+1053186808+1053298374
3776+1053424503+1053459643+1053328236+1052961873+1052503451+1052302766
3768+1052395693+1052439919+1052328887+1052285664+1052499777+1052999217
3759+1053581563+1053790666+1053555175+1053453096+1053908244+1054682791
3751+1055142815+1055065588+1054744118+1054202123+1053429246+1052814633
3742+1052604061+1052484879+1052252328+1051947359+1051517130+1050834107
3734+1050280955+1050523260+1051458608+1052572862+1053667008+1054674707
3725+1055207417+1054855216+1053982532+1053381680+1053244996+1053191952
3717+1053073572+1053137171+1053634474+1054642707+1055944018+1056789245
3708+1056563441+1055541245+1054461129+1053898958+1053977054+1054389513
3700+1054763759+1054961237+1054926832+1054623734+1054186022+1053885062
3691+1053906507+1054167116+1054330256+1054300194+1054354841+1054621062
3683+1054976001+1055223918+1055176285+1054738239+1054239066+1054619592
3674+1056193003+1057583967+1057735549+1056790982+1055649003+1055066523
3666+1054911534+1054850006+1054816469+1054783801+1054625738+1054455584
3657+1054773446+1055744936+1056582147+1056557161+1055782080+1054746924
3649+1054102181+1054262983+1054717797+1054897304+1054856419+1054928770
3640+1055199868+1055256252+1054662014+1053624987+1052874290+1052870415
3632+1053436394+1054222699+1054977404+1055278164+1054991433+1054486782
3623+1053970641+1053526716+1053507543+1054459860+1056196143+1057642689
3615+1058089887+1057530121+1056438581+1055435625+1054765897+1054372077
3606+1054307943+1054605563+1055015150+1055226055+1055167667+1054999183
3598+1054890490+1055008536+1055568569+1056465303+1057075508+1056911099
3589+1056165412+1055551600+1055587809+1055855901+1055765379+1055375500
3581+1055082557+1055165596+1055555074+1055907341+1055944686+1055740728
3572+1055639316+1055831650+1056060059+1055803792+1055015484+1054562740
3564+1055021830+1055874740+1056308109+1055957312+1055175884+1054661413
3555+1054731024+1055110081+1055379976+1055430548+1055372227+1055273554
3547+1055228527+1055420661+1055853963+1056252126+1056439182+1056520218
3538+1056635725+1056723040+1056628176+1056379992+1056150581+1055947224
3530+1055544185+1054777722+1053847317+1053232169+1053313739+1054046465
3521+1054951818+1055607851+1056091792+1056633654+1057014715+1056800067
3513+1056064001+1055306022+1054784068+1054463935+1054376686+1054437880
3504+1054268728+1053744837+1053382950+1053654048+1054362256+1055045212
3496+1055500961+1055769588+1055888502+1055850222+1055731776+1055649471
3488+1055560352+1055322389+1055014815+1054927033+1055167868+1055531826
3479+1055814080+1055994924+1056057654+1055899926+1055517062+1055099525
3471+1054861964+1054876327+1055107609+1055452794+1055712869+1055725229
3462+1055608853+1055660828+1055944418+1056206631+1056253262+1056204627
3454+1056291942+1056493028+1056544134+1056356410+1056241838+1056501245
3445+1056937086+1057143717+1057062414+1056851174+1056506790+1056021846
3437+1055649137+1055632502+1055877546+1056125462+1056228410+1056157329
3428+1056007216+1055984368+1056134615+1056197011+1055920368+1055378840
3420+1054883141+1054737772+1055046815+1055591216+1055952702+1055884694
3411+1055515659+1055195258+1055213763+1055568034+1055972276+1056189262
3403+1056280318+1056388610+1056452143+1056337972+1056099942+1055871199
3394+1055615600+1055246298+1054913939+1054894498+1055251843+1055857705
3386+1056582080+1057197495+1057369186+1057059808+1056661512+1056493228
3377+1056500510+1056584218+1056775683+1056962406+1056889387+1056560702
3369+1056258873+1056147308+1056174631+1056277646+1056356544+1056202757
3360+1055778339+1055414982+1055497554+1056063400+1056778690+1057189946
3352+1057089938+1056782097+1056812761+1057336585+1057932025+1058121286
3343+1057854931+1057426305+1057124811+1057112785+1057491641+1058204727
3335+1058882872+1059120701+1058931106+1058558998+1057962555+1056966815
3326+1055818155+1055022899+1054723809+1054692678+1054789212+1054988761
3318+1055094114+1054822147+1054149680+1053287685+1052374716+1051477447
3309+1050813731+1050623602+1050854483+1051313706+1052019710+1053038232
3301+1054099375+1054791484+1055059175+1055189446+1055396544+1055687283
3292+1056021112+1056345053+1056547608+1056580944+1056579809+1056713019
3284+1056953454+1057112518+1057050723+1056756911+1056291007+1055786155
3275+1055441037+1055375099+1055549262+1055923441+1056535316+1057256151
3267+1057657721+1057372126+1056507859+1055536435+1054864636+1054628210
3258+1054763024+1055108611+1055488202+1055776402+1055914155+1055907274
3250+1055906406+1056208502+1056952786+1057839633+1058377954+1058389044
3241+1058037512+1057524109+1057024869+1056757913+1056881170+1057399583
3233+1058176000+1058920685+1059286914+1059100659+1058421244+1057447750
3224+1056496903+1055868460+1055559884+1055273020+1054775584+1054140394
3216+1053656987+1053574081+1053878515+1054327517+1054694281+1054875191
3207+1054874189+1054872653+1055124778+1055571442+1055782815+1055427408
3199+1054629145+1053805029+1053270582+1053068227+1053149931+1053525246
3190+1054063300+1054427258+1054478498+1054390114+1054130306+1053353355
3182+1052046700+1050710516+1049729072+1049041239+1048438517+1047783419
3173+1047020965+1046272472+1045779846+1045570276+1045334986+1044749700
3165+1043816223+1042835112+1042112207+1041729944+1041588649+1041613702
3156+1041848123+1042317501+1042906394+1043489008+1044119855+1044900481
3148+1045707495+1046322243+1046766167+1047183370+1047497157+1047538309
3139+1047376572+1047213165+1047131528+1047159654+1047328739+1047550468
3131+1047668647+1047644463+1047509115+1047229532+1046727420+1045902435
3122+1044662452+1043113893+1041609560+1040451815+1039697711+1039298813
3114+1039193995+1039204617+1039077218+1038730028+1038333001+1038098179
3105+1038039189+1037939715+1037549369+1036867682+1036228284+1035989052
3097+1036116384+1036204033+1035919441+1035270689+1034443967+1033660602
3088+1033194698+1033207124+1033527525+1033799892+1033819400+1033672828
3080+1033695341+1034237270+1035251249+1036212785+1036610346+1036295090
3071+1035309036+1033812986+1032314799+1031512394+1031715684+1032677421
3063+1033997237+1035375909+1036497111+1037075449+1037152409+1037070171
3054+1037052267+1037049194+1037016192+1037028484+1037060484+1036942639
3046+1036636334+1036363232+1036382939+1036656710+1036767340+1036294288
3037+1035272694+1034077203+1032910039+1031691033+1030382107+1029082533
3029+1027819769+1026470759+1024913917+1023198276+1021548239+1020150194
3020+1018961785+1017842521+1016782379+1015836809+1014951566+1014075407
3012+1013382096+1013192301+1013696752+1014864250+1016542880+1018559681
3003+1020782244+1023135145+1025494392+1027585281+1029057548+1029646975
2995+1029324036+1028394567+1027278108+1025991428+1023990126+1020603071
2986+1015452409+1008666541+1001161374+994535974+990115901+988040043+987342056
2976+986530900+983841698+977426135+966182047+950941034+934628523+920707927
2966+911405350+907519656+909090729+915243545+923845663+932501760+940034249
2956+946620234+952785343+958707411+964297388+969515057+974431431+979015846
2946+982977766+985952963+987858131+988929162+989350707+988990623+987671810
2936+985626349+983470392+981718409+980460255+979527111+978857851+978571187
2927+978653492+978715220+978272097+977281968+976202386+975478812+975156875
2917+975053259+975064282+975124541+975039430+974585952+973717544+972542763
2907+971191749+969802255+968519516+967380945+966250590+964971593+963592253
2897+962360153+961492479+961067861+961134066+961692162+962540997+963385823
2887+964126366+964823017+965442841+965916027+966368502+967022064+967890139
2877+968729353+969202005+968928568+967512753+964777589+961053699+957127187
2867+953808941+951522379+950232692+949679741+949651214+950011832+950513811
2857+950771615+950557502+949986513+949289461+948537227+947658063+946567525
2847+945229738+943717722+942188136+940729230+939325774+938016847+936930384
2837+936119562+935510159+935048999+934813308+934959212+935572690+936532155
2827+937514401+938231428+938715503+939320296+940400011+942015042+943944528
2817+945884235+947621988+949142021+950581619+952026629+953441710+954844164
2808+956301533+957672255+958641474+959132697+959400722+959642559+959735753
2798+959413482+958562977+957366685+956205667+955395246+955017125+954986728
2788+955146394+955249609+955016390+954351271+953435764+952511372+951661335
2778+950941836+950586830+950799607+951394112+951946729+952339614+952899447
2768+953950236+955449692+957118769+958733666+960198517+961480053+962614082
2758+963740562+964998916+966310448+967335717+967787859+967792535+967775233
2748+967994690+968385838+968848067+969428744+970166213+970952384+971619039
2738+972058154+972241135+972185018+971943649+971608283+971247732+970804609
2728+970143165+969232936+968195976+967164961+966236494+965575317+965379776
2718+965670248+966207968+966699793+967057872+967415617+967898757+968448969
2708+968931641+969378840+969993253+970889987+971974179+973106137+974195005
2698+975096349+975680967+976086344+976661142+977564557+978603120+979498852
2689+980153082+980630009+981033917+981447311+981897849+982347185+982747887
2679+983101423+983435385+983758458+984077790+984425247+984861556+985469355
2669+986286391+987206574+988042983+988720327+989311559+989874531+990340235
2659+990620151+990843282+991353412+992287958+993284300+993897110+994168542
2649+994455406+994875414+995250930+995449677+995533519+995666663+996001093
2639+996612833+997471889+998409042+999163146+999620231+999981584+1000534335
2629+1001317700+1002128589+1002761173+1003153457+1003373516+1003546743
2621+1003823052+1004332513+1005031302+1005674642+1006106408+1006433289
2612+1006808871+1007284195+1007904554+1008659660+1009363259+1009818073
2604+1010006265+1010009672+1009900912+1009766098+1009708845+1009822749
2595+1010150031+1010600703+1010982966+1011169888+1011137354+1010898122
2587+1010558214+1010338156+1010352586+1010488202+1010628761+1010800586
2578+1010977554+1011044962+1011085312+1011328819+1011704068+1011899141
2570+1011931408+1012132293+1012536602+1012819591+1012802823+1012617237
2561+1012478147+1012582431+1013090623+1014034121+1015250188+1016411406
2553+1017197110+1017549844+1017692542+1017868308+1018188107+1018665769
2544+1019230211+1019744415+1020097751+1020297768+1020520632+1020967764
2536+1021517843+1021730820+1021425651+1020978185+1020854595+1021150544
2527+1021691070+1022294661+1022873801+1023475521+1024210518+1024993750
2519+1025423645+1025164038+1024514752+1024282201+1024837290+1025624998
2510+1025932906+1025795687+1025756271+1026085691+1026609515+1027065264
2502+1027361481+1027597774+1027923385+1028310659+1028530984+1028467853
2493+1028349072+1028486425+1028857598+1029145731+1029150942+1028940838
2485+1028634600+1028300237+1028059201+1028016446+1028038291+1027874016
2476+1027586216+1027600245+1028169164+1029038241+1029820470+1030478040
2468+1031172887+1031824645+1032110574+1031910423+1031529363+1031376378
2459+1031580135+1032087860+1032898014+1033867366+1034557136+1034716802
2451+1034646189+1034697896+1034785679+1034747733+1034755149+1034991241
2442+1035272293+1035309838+1035116034+1034907533+1034765571+1034663625
2434+1034742923+1035229537+1036055257+1036847908+1037287223+1037261169
2425+1036829202+1036294756+1036102756+1036403649+1036887390+1037204183
2417+1037331515+1037426780+1037573486+1037812116+1038186830+1038613719
2408+1038886688+1038940333+1038911406+1038866913+1038685202+1038298930
2400+1037900500+1037780250+1037974922+1038182822+1038112542+1037816860
2391+1037566939+1037552242+1037808642+1038238605+1038591673+1038647790
2383+1038521527+1038603832+1039103807+1039745610+1040069819+1040014571
2374+1039972349+1040195080+1040498846+1040675414+1040771614+1040865009
2366+1040977911+1041139313+1041243865+1041131163+1040925401+1040911172
2357+1041122144+1041389702+1041654186+1041937242+1042102052+1041933969
2349+1041475748+1041124015+1041333652+1042062971+1042683396+1042772649
2340+1042514645+1042228582+1042025493+1041930962+1042071789+1042561476
2332+1043186711+1043405634+1042878403+1041920875+1041251146+1041289760
2323+1041750453+1042033108+1042020282+1042086486+1042384774+1042728824
2315+1043054904+1043470102+1043935003+1044213717+1044089792+1043565100
2306+1042939263+1042656340+1042971196+1043767655+1044666059+1045281341
2298+1045453566+1045298043+1045028481+1044747496+1044367103+1043710536
2289+1042762027+1041831956+1041351890+1041529326+1042273743+1043360941
2281+1044549751+1045613566+1046355980+1046654201+1046580313+1046473424
2272+1046701366+1047289925+1047905741+1048268163+1048468313+1048823586
2264+1049472538+1050144270+1050320170+1049696204+1048564179+1047604380
2255+1047159052+1046885883+1046371345+1045850994+1045912255+1046575904
2247+1047182969+1047295804+1047223319+1047422601+1047803662+1047966133
2238+1047821098+1047689223+1047931929+1048689908+1049808838+1050783335
2230+1050978875+1050252496+1049225156+1048624238+1048609540+1048965615
2221+1049404195+1049424304+1048622100+1047399086+1046602560+1046461934
2213+1046616522+1046903052+1047382518+1048035678+1048962876+1050246082
2204+1051301147+1051268211+1050362458+1049903235+1050617122+1051666307
2196+1051771192+1050853147+1050036780+1050192705+1051034191+1051721088
2187+1051807735+1051263335+1050191702+1049085665+1048768805+1049482692
2179+1050517715+1051111886+1051279502+1051522608+1052081105+1052726516
2170+1053103033+1052960202+1052059259+1050330592+1048499377+1048148647
2162+1050341080+1054078198+1056905287+1057642222+1057452760+1057686113
2153+1058233654+1058198714+1057284677+1056244310+1056028527+1056557295
2145+1056788109+1056270030+1055814548+1056115041+1056716159+1056966213
2136+1056968886+1057013044+1057139775+1057591650+1058497871+1059077611
2128+1058432067+1057036293+1056135550+1055852360+1055344569+1054668962
2119+1054912469+1056369905+1057927683+1058424651+1057675224+1056169153
2111+1054703166+1054202390+1054893095+1055707592+1055455133+1054443826
2102+1053909647+1054146941+1054392853+1054288302+1054207200+1054294849
2094+1054290707+1054152486+1054032703+1053845647+1053418824+1052885180
2085+1052605330+1052777355+1053230031+1053581363+1053607484+1053460444
2077+1053478348+1053809973+1054329989+1054944402+1055724761+1056517078
2068+1056772944+1056220661+1055408302+1055107676+1055549396+1056630915
2060+1058149545+1059340893+1059132793+1057633336+1056537187+1057243324
2051+1059189444+1060646546+1060646546+1059755757+1059235073+1059842738
2043+1061297435+1062612307+1063115689+1063097852+1063096917+1062850804
2034+1061592984+1059433753+1057679766+1057391633+1058233587+1058989962
2026+1058632017+1056901946+1054480102+1052512537+1051663502+1051854165
2017+1052764261+1054125764+1055735583+1057486364+1059152100+1060380525
2009+1061135698+1061535798+1061236508+1059884292+1057937837+1056296084
2000+1055716210+1056638598+1058615916+1060135615+1060050839+1058968651
1992+1058469278+1059091574+1059933528+1060146104+1059830379+1059504835
1983+1059403624+1059560217+1060133878+1061187272+1062315690+1062914938
1975+1062826086+1062416366+1062133109+1062163305+1062396725+1062430863
1966+1061662529+1060028459+1058602756+1058630146+1059913820+1060931473
1958+1060781694+1060103148+1059911949+1060306104+1060410922+1059246363
1949+1056643475+1053489906+1051096454+1050281423+1050957364+1052423485
1941+1054124962+1055973279+1057691057+1058492192+1058001436+1057070097
1932+1056945570+1057871366+1059074338+1059906070+1060403907+1060709744
1924+1060430229+1059041603+1056755976+1054355442+1052414065+1051109080
1915+1050533281+1050765164+1051568570+1052401171+1053068161+1054042190
1907+1055609320+1057190614+1058040718+1058168785+1058169921+1058408752
1898+1058731624+1058790079+1058352568+1057489036+1056619825+1056241304
1890+1056460694+1056795725+1056726648+1056329621+1056087717+1056344719
1881+1057003959+1057654046+1057996359+1058181011+1058593336+1059319181
1873+1060074287+1060621628+1060917043+1060871615+1060345586+1059466355
1864+1058568017+1057900025+1057585771+1057721721+1058297386+1058988292
1856+1059370822+1059431081+1059529219+1059836526+1060128200+1060136350
1847+1059869528+1059546187+1059300676+1059066321+1058865703+1058871582
1839+1059012342+1058857419+1058105720+1057023666+1056103350+1055626222
1830+1055654481+1056060661+1056586289+1057092543+1057653378+1058360117
1822+1059067524+1059495816+1059598630+1059572977+1059431682+1058919482
1813+1057949595+1056768669+1055692226+1054757947+1053684044+1052256270
1805+1050706508+1049622183+1049470534+1050141932+1051026775+1051710800
1796+1052312988+1053098090+1054027893+1054645379+1054526866+1053816519
1788+1052956127+1052315994+1052033405+1051939877+1051797714+1051525882
1779+1051150967+1050716329+1050232320+1049737356+1049462116+1049699010
1771+1050368604+1051295735+1052517881+1053838098+1054915141+1055739859
1762+1056487683+1057197428+1057924343+1058780326+1059633903+1060223398
1754+1060538989+1060795657+1061262095+1062081602+1063071731+1063986570
1745+1064732056+1065282736+1065764740+1066414961+1067203137+1067837525
1737+1068223195+1068479729+1068790109+1069244656+1069580355+1069597324
1728+1069513883+1069623912+1069888062+1070046726+1069918058+1069590108
1720+1069526576+1070364321+1071962984+1073183994+1073680629+1073741823
1711+1073469522+1072923652+1071979352+1070198242+1067470427+1064433968
1703+1061615965+1059169269+1057497119+1056906623+1057028142+1057179458
1694+1056631984+1055145888+1052654833+1048982985+1044602060+1040196750
1686+1034822756+1026342359+1015318864+1003553624+990061988+973035256+949174956
1676+914309399+871218376+829118149+788952887+745336970+703077279+673677707
1666+656658591+646067062+639840760+638518272+641590204+647399504+654518934
1656+663110563+678292787+706967448+735224573+750551833+761405307+775949134
1646+794250321+809700637+821102253+831302032+841341677+851035736+861523849
1636+875184103+890128698+901325755+909205902+916561022+924812476+933534310
1626+941362884+947522247+951511823+952591739+951082730+948333870+945533705
1616+943172252+940520796+936747670+932369751+929170755+929181444+932790294
1606+938301306+943398056+945425546+941210900+929830796+915928104+907617994
1596+910298378+922626991+938408864+952422854+963327034+971826471+978616214
1587+984128496+988751659+992699081+995926671+998365417+1000139446+1001471888
1577+1002426343+1002834526+1002762977+1002497825+1001863637+999570260+992471207
1567+975496382+944566690+902943591+861031223+828116864+815037220+832992486
1557+860478004+880284193+896376178+910657058+922803091+933271229+942284537
1547+949941953+957139412+964380695+970933277+976884073+983417615+988996502
1537+992453503+995029335+998001927+1001493466+1004447887+1006487936+1008255685
1527+1010207885+1012098423+1013713787+1015469912+1017532408+1019129134
1519+1019692975+1019335497+1018277894+1016846179+1015427023+1014225386
1510+1012537871+1006339093+987691918+962534650+949381586+948546847+954965885
1500+966039283+979272982+991442865+999791321+1003866142+1004463252+1000291563
1490+987090399+964555526+943862423+935491988+939600346+951112124+964354641
1480+975413610+983517957+989959441+995930880+1001732030+1006836796+1009790816
1470+1009387108+1005662283+998670653+988490448+977547120+970459156+968698021
1460+970289537+973699907+978694110+983647160+985821622+985526074+984468203
1451+984156220+985317372+986871944+986572052+983845306+980192230+976877592
1441+973278629+966178173+950032609+923254498+897039092+882934714+882072518
1431+892146301+908706194+925062865+937885774+948106129+956904723+964424720
1421+971313135+978730519+986139551+991736075+995528375+998537309+1001248623
1411+1003720305+1005966116+1008061547+1010123442+1012176452+1014060710
1402+1015682822+1017171055+1018640316+1020032148+1021252557+1022329868
1394+1023324139+1024192347+1024847512+1025203720+1024939102+1023200681
1385+1019045493+1012438063+1004607085+997890628+994745744+996024475+1000650043
1375+1006857306+1012889604+1017358780+1020052791+1021664281+1022768715
1367+1023516406+1023767128+1022942811+1019783965+1012870230+1001734902
1358+987540069+973527882+963878716+959684513+957259061+953343439+950131415
1349+952514846+961751018+974231748+985634967+994214638+1000536940+1005691143
1339+1010045346+1013264585+1015088985+1015589160+1015030062+1013922155
1330+1012954806+1012567934+1012575015+1012299040+1011200486+1009450173
1322+1007821514+1007047969+1007385606+1008695000+1010738256+1013296117
1313+1016072701+1018736783+1021181342+1023546602+1025864029+1027852170
1305+1029123218+1029369197+1028241915+1025295044+1020374862+1014174013
1296+1008164695+1003675077+1001046936+999752573+999030870+998367622+997768040
1286+997614787+998016758+998564231+999051914+1000094953+1002628965+1006880821
1276+1012024936+1016787723+1020141977+1021291104+1019570320+1015427824
1268+1011377521+1010588143+1013991566+1019530236+1024486092+1027768997
1259+1029869372+1031557822+1033104577+1034376560+1035287992+1036015040
1251+1036767073+1037450697+1037612233+1036678555+1034413504+1031412119
1242+1029038241+1028418951+1029402399+1030803117+1031689229+1032110574
1234+1032587166+1033320895+1034023558+1034230924+1033659400+1032351208
1225+1030573706+1028732871+1027448062+1027459753+1029152078+1032124469
1217+1035386931+1038079874+1039977961+1041323831+1042380165+1043263471
1208+1044010494+1044611613+1045060815+1045439537+1045875245+1046403946
1200+1046915345+1047226860+1047206217+1046742852+1045480690+1042668565
1191+1037480826+1029730683+1020623513+1012854397+1009298591+1011048369
1183+1016781511+1023973157+1030503493+1035446723+1038944141+1041595196
1174+1043902068+1046028364+1047816488+1049088204+1050000972+1050940997
1166+1052075025+1053211526+1054034841+1054380494+1054205463+1053013647
1157+1049735218+1044323880+1039257928+1037833294+1040748566+1045624857
1149+1049794943+1052284929+1053138507+1052046900+1047585407+1036535257
1140+1014682672+981772054+947019199+925811758+927197845+946145646+969963190
1130+989630556+1003274843+1012449287+1018784082+1023342377+1026787887
1122+1029398591+1030991042+1030911342+1028550558+1024417549+1020652507
1113+1019856382+1022989976+1028645957+1034546781+1039340099+1042851480
1105+1045337525+1046929574+1047301816+1045486702+1040547013+1033234248
1096+1026762100+1024778368+1028157606+1034489462+1040712023+1045315813
1088+1048089724+1048968956+1047622484+1043660431+1036680292+1025495795
1079+1006974483+976775380+933524891+883455933+839757644+815182055+814014155
1069+830728838+855533638+880579007+902189420+919782332+934126410+946220201
1060+956799838+966214916+974505385+981570969+987317739+991746230+995010563
1050+997425259+999372515+1001156097+1002924313+1004727202+1006602375+1008534466
1040+1010416786+1012159283+1013705904+1014868726+1015370572+1015151849
1031+1014412710+1013274940+1011522623+1008748511+1004961891+1001258777
1023+999590502+1001311287+1005890291+1011362824+1016003624+1019270963
1014+1021380022+1022698168+1023694978+1024829608+1026175411+1027467235
1006+1028554700+1029527994+1030513514+1031539718+1032492436+1033184344
997+1033585780+1033877922+1034207207+1034560076+1034894172+1035260000
989+1035790238+1036560977+1037441411+1038190905+1038703506+1039034062
980+1039210963+1039023239+1037989753+1035874681+1033423842+1032107701
972+1032744828+1034686606+1036614956+1037820868+1038408291+1038497010
963+1037667749+1035271090+1031134073+1026079545+1021732623+1019254128
955+1017773377+1013582447+1000539212+973621009+936573307+905656242+899202198
945+920439301+954489025+983339719+999588365+1005694951+1006199936+1003742551
935+999355079+993321043+985634900+976578436+967329571+959886935+955920273
925+955478753+956774986+957028381+953762845+945949304+934040966+918859076
915+900903676+880860460+860129278+840537001+823829133+811432177+804280013
905+802615813+805961782+813352243+823689709+835948510+849152747+862346496
895+874701564+885696733+895325991+904191925+913167020+922705154+932471163
885+941667050+949667448+956415304+962332763+967846848+972988826+977469425
875+981078276+983927343+986357405+988714849+991163416+993186697+992846856
866+987667935+978140289+969767983+968941996+976420774+987043501+995730462
856+1001377558+1005199118+1008022466+1009892895+1010812611+1011125997
847+1011385337+1011888185+1012329704+1011669329+1007828996+998156983+982123119
837+964223568+952438888+952124232+961731377+975120265+987007760+995477602
827+1000943387+1004578893+1007396896+1009829430+1012003091+1014109077
819+1016132893+1017758145+1018947622+1020113985+1021571688+1023296949
810+1025175194+1027018166+1028306183+1028328830+1027109958+1026157908
802+1027462358+1031380319+1036204501+1039953310+1041956816+1042841593
793+1043700715+1045256823+1047440973+1049704822+1051616938+1053086399
785+1054285162+1055461212+1056733262+1058112802+1059660759+1061401385
776+1063169668+1064685693+1065698870+1066057484+1065667872+1064282453
768+1061286746+1055528686+1044642477+1023649617+984914333+923555859+846996322
758+775694003+726466063+696816438+674780538+660828476+666934261+695641924
748+734610494+772839056+809878741+847555687+882850204+911599955+933141826
738+949417260+962376387+973001652+981487662+987763400+991776961+993042730
728+990475049+984180805+977660223+976160298+981727361+991355082+1000570744
718+1007283393+1011714556+1014672985+1016947456+1019084240+1021021810
710+1022335078+1022867454+1022907871+1022911947+1023259938+1024169700
701+1025507687+1026695494+1027259335+1027480930+1027982842+1028810767
693+1029477957+1029686925+1029593330+1029601547+1030026098+1030776261
684+1031536177+1032305313+1033355701+1034664827+1035875549+1036671607
676+1036609612+1034938464+1031294741+1025415161+1014317511+991607741+958680021
666+929109427+909529977+900849897+905637001+923616719+948330129+972207598
656+991418013+1005700696+1016163289+1023863462+1029566875+1033975592+1037760676
646+1041141184+1043755029+1045221216+1045082393+1041452766+1029817998
637+1004154342+962122792+912212164+873402258+862076333+878823550+910248474
628+941832595+966703266+984702224+997763965+1007407852+1014722422+1020734411
618+1026048747+1030503092+1033760277+1036102889+1038252500+1040583756
609+1042757350+1044173968+1044729859+1044978310+1045435663+1045676297
601+1044124732+1038880675+1027968346+1006666709+964880403+892812422+796140792
591+703922305+650930593+650941616+692131412+751668024+810755634+860543474
581+898947735+926543749+945699450+959538943+970175365+978685358+985449514
571+989032845+986871476+979701541+973566295+974519547+982793114+993842129
561+1003481808+1010451793+1015165879+1018178554+1019976900+1021021208
552+1021741041+1022694093+1024289883+1026160647+1027387937+1027565840
544+1027153047+1026696162+1026330601+1026197524+1026563686+1026975077
535+1025971186+1022026235+1013401737+997062437+971254413+941284854+920509981
526+920857839+940501222+966975968+990511658+1007789380+1018544583+1023980907
516+1026620004+1028766074+1031137881+1033421905+1035548334+1037923749
507+1040480074+1042298394+1042644649+1041859347+1041126888+1041486637
499+1042803914+1043851496+1043624690+1042551522+1041979998+1042539029
490+1043569442+1043622285+1040355080+1030707852+1013495332+991431040+966781563
480+936099387+895702375+853219151+827360288+832880386+867558152+912173751
470+947143190+967827876+978670126+983212187+981678994+972050538+953583605
460+930897752+913778894+911674110+925215115+946784510+969585670+989207742
450+1002899127+1011182047+1016286880+1019632115+1022128782+1024727462
442+1027654225+1030051084+1030649798+1028801281+1025566877+1023476656
433+1024133758+1026984162+1030606841+1033957287+1036451349+1037240125
425+1034837921+1028314266+1017645443+1000909717+974740474+944247492+920950632
415+907847940+904804735+913233892+931460724+952924766+970901277+983062676
405+991813904+1000180999+1007854115+1012202506+1011705270+1008237647+1006609122
395+1009579977+1015708275+1021809116+1025026952+1024742894+1023089450
387+1022524606+1023224665+1024641750+1027585682+1031384996+1033156619
378+1031563100+1026549991+1012202439+980447161
##END=
