##TITLE=VLL-088,X17414
##JCAMP-DX=4.24
##DATA TYPE=INFRARED SPECTRUM
##DATE=12/4/2021
##SAMPLING PROCEDURE=Diamant-ATR
##ORIGIN=Angelika Moesle
##XUNITS=1/CM
##YUNITS=TRANSMITTANCE
##RESOLUTION=4
##FIRSTX=3997.453
##LASTX=373.96442
##DELTAX=-1.4165319
##MAXY=0.82684755
##MINY=0.41564572
##XFACTOR=1
##YFACTOR=7.7006179e-010
##NPOINTS=2559
##FIRSTY=0.74805397
##XYDATA=(X++(Y..Y))
3997+971420703+970851563+970467492+970191088+970111905+970422831+970949012
3988+971184780+970937944+970568425+970455882+970596677+970836469+971086324
3978+971189192+970978271+970594664+970439395+970716805+971189347+971394309
3968+971063336+970407892+969959035+970038760+970436221+970682593+970558904
3958+970204633+969880085+969812126+970149987+970823233+971424960+971395392
3948+970526705+969309861+968570514+968752874+969546171+970193100+970277159
3938+969977999+969618542+969311564+969042436+968852491+968769206+968672220
3928+968488544+968432350+968790646+969424804+969785577+969600507+969197473
3918+969103120+969554530+970400539+971284087+971815920+971788519+971366831
3908+970864953+970337301+969679458+969110395+969158153+969977457+971153742
3898+972170810+972673074+972465016+971619240+970716418+970609912+971316674
3888+971927147+972008110+972032259+972552094+973408010+973972119+973696411
3878+972706976+971798814+971405919+971140119+970471285+969593154+969147162
3869+969372480+970086827+971113493+972108501+972515250+972301697+972113996
3859+972424070+973085242+973571329+973380687+972568813+971816694+971285481
3849+970808295+970486997+970448993+970543966+970401623+969889296+969482701
3839+969913136+971120923+971959965+971731938+971030130+970756126+971044295
3829+971368688+971421322+971322402+971158850+970923315+970883530+971361180
3819+972009271+972300149+972297517+972294189+972295195+972237530+972260983
3809+972554803+973133309+973729617+974029164+973999132+973851680+973890459
3799+974210828+974589171+974751019+974565795+974125221+973632786+973280373
3789+973209937+973411880+973674893+973744865+973541684+973174874+972815649
3779+972671526+972859923+973134392+973074483+972619821+972215548+972331961
3769+972802181+972964417+972607127+972145809+971966080+972153471+972751947
3759+973704848+974452401+974355880+973607553+973039884+973257927+973894871
3750+973832562+972911706+972066703+972044876+972676093+972827879+972081642
3740+971176963+970945684+971630541+972494584+972487153+971702370+971110938
3730+971252198+971953541+972658987+972850480+972578875+972421129+972687471
3720+973130135+973468693+973680002+973712201+973428289+973023784+973164192
3710+974087371+975033228+975350424+975107070+974662084+974301311+974197824
3700+974390943+974702875+974858996+974755431+974512388+974215472+973703068
3690+972716342+971336721+970228706+970069953+971005361+972676944+974361066
3680+975299570+975239041+974567653+973886357+973501125+973465984+973990695
3670+975028429+975719710+975563822+975372251+975905244+976910856+977522413
3660+977275267+976596912+976304873+976774551+977566145+978123830+978411302
3650+978559915+978371130+977574814+976441101+975404296+974631742+974171275
3640+974103471+974393343+974791810+975107844+975375734+975585030+975555076
3631+975251194+974969217+974909307+974780200+974397600+973993946+973885970
3621+974154401+974584914+974929896+975157227+975339897+975475893+975499578
3611+975365672+975079902+974672843+974222515+973904314+973900057+974229404
3601+974753341+975324184+975842625+976224993+976460065+976559991+976413778
3591+975961593+975434250+975224799+975482936+975970804+976452247+976845916
3581+977079826+977079516+976838485+976417571+975883571+975252896+974522063
3571+973784960+973311025+973373179+973830395+974152466+974209434+974312225
3561+974531274+974650628+974604806+974527636+974434598+974234513+973996423
3551+973907178+973990076+974115545+974270041+974599465+975101265+975500507
3541+975613747+975618778+975813367+976205643+976447216+976222207+975612276
3531+974946460+974425155+974075141+973944796+974080172+974381577+974726870
3521+975103123+975439901+975544239+975329525+974930825+974507434+974053778
3512+973505769+973012561+972978349+973627368+974605270+975243221+975179829
3502+974686079+974352165+974472293+974788018+974820914+974439010+973946111
3492+973613281+973471170+973503137+973687665+973947195+974294964+974724083
3482+974891272+974482046+973873431+973690142+973907720+974066317+974026223
3472+973916931+973716923+973451355+973463353+974047276+974928503+975385642
3462+974965501+974006253+973252431+973023707+973066278+973118912+973258546
3452+973676364+974342412+974946460+975138186+974871148+974448995+974160516
3442+973993327+973740066+973301736+972865574+972753572+973075025+973614055
3432+974070884+974294345+974286295+974171585+974195192+974506892+974854893
3422+974770989+974242563+973851603+973988760+974331963+974373450+974096814
3412+973910197+974127543+974644281+975083076+975239815+975226425+975073168
3403+974578567+973822113+973396399+973759494+974642424+975375579+975608638
3393+975502210+975361492+975273873+975099949+974710306+974166708+973667772
3383+973345546+973190509+973222012+973568078+974201772+974773776+974957451
3373+974840496+974776485+974961709+975286025+975492612+975408708+975067750
3363+974644126+974327241+974239776+974371515+974623847+974973474+975408940
3353+975694245+975529223+974991818+974499152+974327551+974387770+974420588
3343+974272208+974021192+973879313+973996965+974416176+975070614+975711506
3333+976072820+976173521+976175533+976020341+975599582+975158388+975094299
3323+975423569+975758257+975786818+975602291+975540988+975791462+976217331
3313+976517729+976494199+976189621+975808181+975460490+975067363+974593970
3303+974240782+974270969+974725863+975305840+975507163+975089887+974458670
3293+974260056+974620906+975180138+975703301+976166555+976448686+976477558
3284+976462309+976597299+976811317+977058617+977456389+977909889+977975759
3274+977344929+976283742+975481698+975517768+976414939+977630080+978513319
3264+978815885+978756827+978683604+978704038+978634686+978305106+977838447
3254+977528682+977506003+977639832+977717544+977655468+977575743+977674044
3244+977984350+978334209+978550626+978617115+978607285+978555425+978439786
3234+978263231+978113380+978142097+978450777+978926260+979266908+979338506
3224+979394313+979655159+979825986+979446714+978642116+978052619+978035591
3214+978333590+978532282+978550549+978596991+978797153+979004205+979015428
3204+978891042+978908922+979211953+979654927+980042171+980355573+980654502
3194+980860392+980768283+980279719+979590528+979072938+978908845+978923397
3184+978881754+978828811+978959234+979276584+979597262+979821729+979991163
3174+980074758+979927461+979550588+979216752+979170078+979326276+979442380
3165+979447334+979425351+979423881+979483171+979692390+980021195+980251080
3155+980225770+979996581+979656320+979283318+979087025+979300269+979882335
3145+980569514+981152664+981487197+981431003+981048944+980724628+980830205
3135+981329296+981800212+981855632+981539211+981234710+981153205+981040043
3125+980500626+979539520+978643974+978305106+978505036+978761161+978706283
3115+978481971+978445901+978647457+978758994+978413934+977548033+976547065
3105+976067247+976505732+977586038+978612935+979118992+979152817+979033385
3095+979048092+979337577+979866081+980423533+980687243+980370977+979453990
3085+978314781+977502675+977326662+977739759+978535765+979500509+980450469
3075+981304063+982104171+982865502+983443311+983649279+983497647+983194617
3065+982728964+981517384+978631125+973298021+965110238+954344878+942791174
3055+933828516+930494406+933090251+939054495+945120600+949349016+951543452
3046+952526773+953272467+954357185+955821484+957398713+958821911+959843546
3036+960052068+958910305+955973657+950794739+942648753+931004643+916982034
3026+904256148+897529104+899161598+907230336+917088308+924691547+928643405
3016+930017608+930866170+932592244+935317351+938560590+942025819+945505599
3006+948635830+951229818+953432458+955226801+956252073+956433505+956405872
2996+956923772+958047190+959275799+960366941+961570007+963077728+964754420
2986+966432194+967985816+969083459+969295078+968445431+966489395+962956826
2976+956660603+946173427+931135453+913590105+897776250+887851170+885333888
2966+888606230+894656081+901056719+906603531+910961287+914282857+916931877
2956+919179179+921163545+923116408+925318507+927766977+930141297+932132938
2946+933622161+934591626+935080113+935180968+934948374+934323581+933172917
2936+931360152+928876619+925985096+923105339+920430389+917772158+914905946
2927+911953199+909306423+907264161+905901801+905263153+905488317+906649044
2917+908517538+910586118+912398108+913924174+915572072+917736630+920366687
2907+923047907+925457057+927618907+929692053+931623708+933169434+934280081
2897+935303264+936642248+938291229+939856151+940994896+941710249+942225285
2887+942661370+942900002+942811221+942608349+942769191+943469838+944297502
2877+944697673+944520808+943979920+943313021+942694808+942238753+941856927
2867+941212474+939962889+938036653+935667674+933234916+931095668+929449396
2857+928232243+927231585+926451988+926232862+926806955+927950731+929318973
2847+930888230+932790627+934951779+937137933+939213634+941204115+943177799
2837+945129965+946997995+948772833+950452001+951889054+952936231+953725581
2827+954514389+955309080+955945947+956421662+956857747+957308926+957836424
2817+958582351+959550500+960459359+960990263+961134463+961191741+961414892
2808+961718387+961795789+961517992+961128116+961013328+961331994+961902140
2798+962430799+962781587+963004506+963209312+963456536+963690136+963763901
2788+963633865+963491135+963577129+963908411+964273209+964432116+964298984
2778+964028617+963906708+964075910+964446745+964893821+965377819+965855314
2768+966259123+966567416+966772378+966868047+966948159+967135163+967350342
2758+967390281+967277971+967266670+967443767+967603912+967598649+967582704
2748+967806242+968272127+968692655+968784918+968568424+968305488+968164383
2738+968088064+967984500+967874124+967817001+967839757+967915612+967925210
2728+967701671+967236947+966770752+966561843+966612232+966738398+966875091
2718+967129977+967509094+967817930+967921881+967918863+967987054+968220190
2708+968619664+969098011+969497407+969689520+969622103+969308391+968887012
2698+968603564+968579802+968670827+968646755+968446437+968219958+968204632
2689+968538469+969102346+969576203+969727525+969603449+969401506+969231066
2679+969064031+968864101+968709838+968767038+969094450+969502903+969727525
2669+969719475+969624038+969518229+969350730+969108847+968887322+968817582
2659+968993053+969374647+969746101+969879543+969756396+969565135+969528214
2649+969781474+970328400+971030517+971680852+972115544+972296589+972333355
2639+972382583+972457121+972441950+972358510+972406887+972634140+972803729
2629+972715103+972437461+972152388+971967319+971880783+971762202+971439512
2619+970948935+970597992+970724545+971452747+972592266+973678686+974271666
2609+974357892+974363233+974704191+975383939+976031565+976298603+976183428
2599+975962831+975890305+976020341+976218956+976264469+976044336+975728921
2589+975661813+975985278+976426008+976564248+976316406+975977306+975790224
2580+975728380+975680545+975517690+975071543+974402631+973919795+973882100
2570+974038453+974041858+973893168+973748271+973607863+973448182+973418924
2560+973670868+974069568+974293106+974236371+974147977+974280335+974556894
2550+974702488+974614404+974499616+974637779+975037640+975378830+975329757
2540+974869445+974299686+974037369+974369890+975225806+976142173+976644128
2530+976753729+976968289+977623733+978404800+978613322+977902536+976663556
2520+975686660+975471403+975882410+976438624+976827958+977105214+977457704
2510+977826217+977857023+977370007+976776950+976742506+977443385+978377090
2500+978873317+978636079+977831945+976766656+975608019+974531970+973900521
2490+973939919+974401160+974878811+975261256+975643546+976100995+976686931
2480+977357391+977872349+978000682+977775828+977473804+977413740+977687357
2470+977998438+977977075+977653610+977329139+977084470+976776331+976393731
2461+976105097+976044104+976242564+976664484+977166207+977461265+977269307
2451+976596912+975786586+975164116+974741731+974382042+974065389+973877765
2441+973910429+974192716+974546909+974615875+974269267+973833104+973732790
2431+974093640+974780897+975567150+976220194+976715183+977309169+978119959
2421+978814646+979038571+978895222+978677334+978476243+978344581+978445050
2411+978782524+979135247+979345936+979393384+979274339+979061560+978887172
2401+978728575+978446365+978010125+977468773+976864492+976361996+976218414
2391+976490174+976995922+977562275+978086057+978419275+978434987+978223833
2381+978089540+978276312+978724472+979126113+979212959+978985009+978766579
2371+979024871+979839919+980527794+980263387+979171316+978310679+978478797
2361+979401898+980174839+980253480+979828618+979306693+978787091+978207734
2351+977638207+977204057+976957917+976890809+976911166+976828810+976530114
2342+976103472+975629227+975039421+974359982+973932721+974157962+974999481
2332+975914919+976323527+976044259+975287960+974397987+973672416+973309477
2322+973384789+973769789+974110282+974105328+973878926+973898586+974518348
2312+975688440+977051806+978196046+978833223+978862481+978414398+977887907
2302+977734882+978038919+978470438+978794134+979210172+980032496+981160868
2292+982024602+982097437+981451050+980677103+980262381+980192254+980156340
2282+979956719+979694634+979620715+979817627+980170582+980655121+981332237
2272+982042017+982528801+982928352+983723585+985084319+986478105+987075884
2262+986568201+985498035+984695527+984502795+984656439+984739724+984631593
2252+984599084+984927425+985399425+985379145+984624781+983832335+984053784
2242+985552991+987530004+989148798+990424080+991576447+992054175+991182159
2232+989449506+988056263+987382010+986956684+986668902+986878972+987460419
2223+987808497+987764069+987593164+987220471+986486929+985952078+986411306
2213+987768635+989134478+989805015+989690769+989272874+989382476+990371601
2203+991558103+992175232+992494208+993157624+993832882+993457868+991854554
2193+990362777+990308209+991152746+991126817+989746964+988409605+988183590
2183+988406199+987847121+986233203+984619827+984774400+987548193+991522033
2173+994177323+994318583+992518357+990048833+988228328+987674437+987600904
2163+987030526+986780980+988667974+992558761+996139629+998094118+998996707
2153+999228528+998417118+996784469+995398656+994873248+994933700+995254068
2143+995732338+996207976+996688258+997229146+997162812+995564142+992922011
2133+990989427+990557677+990643516+990111916+989143147+988836634+989798127
2123+991390527+992401712+992335610+991745804+991306545+991057696+990721228
2113+990286846+989974682+989907109+990098603+990558683+991190596+991707257
2104+991801533+991365603+990582368+989960207+990136143+991228059+992441342
2094+992850259+992569675+992567198+993345712+994275470+994298381+993064354
2084+991254376+989769333+988750253+987782955+986902967+986636470+987114043
2074+988003861+989177978+990564798+991654701+991995194+991784737+991419553
2064+991065978+991000418+991540068+992384219+992827193+992779745+992824484
2054+993185798+993454772+993445019+993504387+993767787+993867559+993670879
2044+993546029+993719101+993989390+994099379+994080725+994321679+995112577
2034+995984205+996208363+996050152+996293273+996649324+996084906+994642357
2024+993627689+994002007+995400049+996770769+997613294+998352410+999497424
2014+1000591352+1000371839+998207899+995243387+993686128+994728815+997565924
2004+1000566274+1002549401+1003010332+1002183520+1000855372+999626299+998660858
1994+998057119+997719413+997188819+996400398+996024532+996420600+997059402
1985+997335729+997294938+997420175+998008511+998798789+999378766+1000090171
1975+1001637368+1003484190+1003948217+1002025774+998018031+992709464+987248259
1965+983388200+982451476+984298220+987879708+992040707+995373655+996462397
1955+995176434+993134171+992294277+993395946+995725062+997797357+998183053
1945+996081268+991590147+985995036+981437737+979395783+979798740+981705317
1935+984275309+987074955+989756562+991767244+992607680+992404730+991928551
1925+991852464+992264942+992899796+993369087+993100191+991671265+989506165
1915+987694793+986984471+987407243+988493431+989579774+990290716+990777732
1905+991335648+991965162+992422997+992546609+992430351+992333056+992500322
1895+993070391+994031497+995137191+995906803+995927005+995370636+994917445
1885+994921780+995099341+995105610+995042527+995155922+995317306+995190211
1875+994749869+994286693+994051931+994191798+994784545+995550442+995933275
1866+995872281+995767556+995687444+995199577+993872900+991726685+989329378
1856+987567776+987046393+987632484+988732682+989848593+990687248+991130300
1846+991362817+991695724+991991015+991761129+990920075+989762676+988396601
1836+986556436+984162070+981737361+980009662+979408477+979971116+981502677
1826+983653149+985818946+987457865+988629969+989736979+990892674+991828547
1816+992271444+992273146+992170046+992315408+992833075+993547345+994170357
1806+994566580+994827117+995085718+995308250+995374197+995326440+995296949
1796+995299813+995341843+995557099+995991791+996408603+996628890+996677808
1786+996429269+995548584+993916322+991915470+990245513+989535810+989912063
1776+990950494+992130881+993156772+993944110+994566580+995148878+995653155
1766+995908506+995870733+995593788+994978206+993894882+992500787+991075576
1756+989831023+988948480+988502333+988480118+988933851+989807957+990596842
1747+990718828+990153636+989442308+989170703+989489059+990015550+990274229
1737+990297217+990567894+991296947+991820574+991646342+991111336+990544131
1727+989875993+988797778+987104600+985005137+983018217+981632404+981314899
1717+982342571+984113306+985700443+986871928+987811284+988668980+989534184
1707+990506359+991514293+992280887+992749171+993172098+993673666+994052473
1697+994257590+994398849+994417116+994290950+994213083+994369281+994699635
1687+995019229+995367772+995917794+996463017+996717206+996825105+996952819
1677+997074418+997103676+997044309+997001350+997122098+997515380+998019734
1667+998327796+998534383+999034325+999981344+1000920003+1001259412+1001025193
1657+1000674173+1000662640+1001264366+1002034675+1001833738+1000802661
1649+999522270+997882577+995622349+993141447+991022323+989342768+987891550
1639+986485381+985292222+985094072+986555662+988962955+991416302+993769567
1629+996004020+997895735+999338904+1000603891+1001955183+1003189132+1003968961
1619+1004305043+1004167731+1002973644+1000243351+996511006+992796619+990159441
1609+989319393+990097751+991745184+993775992+996044811+998349004+1000378805
1599+1002007120+1003382561+1004741360+1006199854+1007678859+1009018618
1591+1010171217+1011240841+1012362557+1013610129+1014978681+1016391121
1582+1017740709+1018966531+1020172848+1021694889+1023693420+1025244100
1574+1024978687+1022325177+1016683392+1007550449+995611745+981322175+964766339
1564+948541167+936784359+932244166+937095672+949452503+959944478+966291245
1554+971160863+975320391+978586154+981130681+983283707+985271478+987283941
1544+989340059+991278525+993074029+994528034+995061723+994840120+994532136
1534+994568825+994886639+995067219+995029524+995071708+995428456+996087151
1524+996993068+998285147+999966173+1001500676+1002490033+1003201284+1004015171
1514+1005060103+1006408918+1008115641+1010084217+1012493986+1016145678
1506+1020611565+1023998308+1026351728+1028672640+1031476542+1034624266
1497+1036815529+1035480492+1028500574+1014135382+989126119+951790289+910306463
1487+879301531+864477497+862811100+870150785+882624339+896036708+907202393
1477+915411307+921900803+928635433+936723056+943799960+945364340+940195639
1468+930779170+922016055+919695453+924763609+932347033+938837768+944124430
1458+949188251+953632156+956097191+956509514+955269682+952392557+947663811
1448+941157751+933783158+927059132+922566619+921624244+924516385+930338441
1438+937673249+944051827+946525686+944749687+940262437+934571656+929397305
1428+926417776+926503925+929826733+935653355+942519724+949809638+957914213
1418+966117553+972733990+977625281+981561890+984730281+986817205+987687440
1408+987821269+988239939+989825450+992380194+994493822+994138312+988920925
1398+977012253+958901016+938509427+922964390+917872239+922599902+933226015
1388+946237826+958537302+967844943+974094801+978578724+981907337+982681284
1378+977194614+960674151+930966561+894428827+865633967+854894226+861031619
1368+876902443+895513545+913006027+927977357+937513567+936130618+921455275
1358+898279520+875814939+862524789+861346569+868932393+880009918+891272898
1349+901483129+910180142+917165787+922631017+927282129+932096636+937678899
1339+943676425+949015799+952724071+954290309+953724188+951726199+949542522
1329+948081010+946530717+941916526+931430356+916297952+902322248+895371821
1319+896725899+903259746+911286377+918951926+925715813+931482061+936436590
1309+940849457+944825077+948335509+951336091+953794624+955700194+957042971
1299+957746482+957668693+956772295+955374098+954196807+954067390+955492137
1289+958386677+962071342+965592455+968279790+970062058+971261099+972154942
1279+972660380+972319964+970765801+968433279+966690099+966944057+969508940
1269+973413660+977284787+980090083+980865191+978360526+972209201+964799390
1259+960615248+962463927+969020454+976725323+983152432+988043104+992117335
1249+995940550+999751149+1003655714+1007693256+1011798913+1015838545+1019717335
1239+1023369645+1026657236+1029308733+1030705924+1029402622+1022820398
1231+1007698597+981876454+947184148+910559723+880374870+860940748+851442775
1221+848589103+847284640+840868212+826221120+808860918+798821980+801107441
1211+812638698+827459171+841863839+854860634+866445531+876588499+885206174
1201+892358854+898209703+902931251+906801913+910206304+913393348+916294236
1191+918515840+919365409+917845226+912802536+903769751+892287102+881874310
1181+875801935+875053996+878803678+886003187+895651321+906179520+915750175
1171+923345597+929137078+933808004+937893768+941683855+945237168+948397508
1162+951099472+953566287+955993549+958346428+960658825+963152035+965906167
1152+968702407+971254752+973448104+975309555+976769442+977637665+978140626
1142+979387192+982707523+987738603+990441805+983517307+961372089+926939468
1132+892182996+868357835+855224889+843061641+826643505+813458003+815053422
1122+833360874+859436355+883396815+901406887+914214433+923296446+929446533
1112+932171252+927849643+909864727+875273199+833309788+802970672+797954608
1102+815538115+841914305+865354312+882253272+894149869+903196586+910441994
1092+916199263+920711902+924213974+926718252+928216298+929015014+929611787
1082+930357249+931423700+932961609+935034755+937396148+939613650+941529901
1072+943332371+945089871+946584589+947684864+948527080+949283456+950039059
1062+950855500+951733707+952567873+953257529+953847258+954540551+955534476
1052+956756582+957837894+958517952+958985772+959604527+960379480+960933372
1043+960986625+960627787+960076604+959372862+958379402+956939949+954896757
1033+951996798+948058486+943520150+939738190+938351758+940204385+944892882
1023+950936772+956004928+957720165+955397473+950948537+947255745+945597940
1013+945003799+943661022+940328151+934820582+928069466+921908698+918311034
1003+918367615+921764265+927180654+933250165+939183989+944648522+949430676
993+953391125+956473677+958570199+959462184+959018591+957641524+956549144
983+957115962+959559092+962691335+965211558+966757904+967628681+968132029
973+968457196+968785460+969265355+969880317+970343029+969696022+965360016
963+953587186+933788344+912979555+902385331+907425854+923101779+940149816
953+953061933+961408855+966712004+970264698+972765725+974548921+975946422
943+977398646+979166363+981142833+983021777+984585848+985826609+986649861
933+986296673+982933925+973595788+955215733+927880914+898228047+877519340
924+873708974+885398055+904285019+922436505+936415846+946326297+953411947
914+958784835+963127962+966735767+969666222+971914298+973530847+974515638
904+974675939+973969410+972984077+972387072+971521171+968331804+961759101
894+954112516+949892072+951734327+958185354+965632318+971536806+975542459
884+978509139+981267374+984020655+986348920+987501907+986927735+985058080
874+983516146+983918871+986416338+989792708+992780055+994861251+996164476
864+997146480+998327331+999992490+1002011996+1003962692+1005497272+1006614499
854+1007556718+1008561711+1009827783+1011589771+1013983054+1016762730
846+1019359426+1021435978+1023297042+1025510054+1028249171+1031291860
837+1034470623+1037767037+1041149290+1044726753+1048917474+1054055369
829+1059882765+1065685315+1070686363+1073741823+1072195013+1060727458
820+1032069522+981885587+915938727+851160179+805839283+787596771+791333605
810+806908597+826530729+846322605+864675105+880807550+894071847+903824939
800+910007999+913900412+917750950+923037457+929310149+935203802+940169631
790+944792878+949946331+956019634+962570201+968529413+972914802+975156608
781+974454413+968729034+953985886+925105805+878928064+817821642+749690330
771+683718547+626516805+582080812+552995654+539756319+539862167+549101693
761+563811017+581799532+601828220+622945458+644311350+665186782+684922696
751+703166910+720065948+736022921+751256646+765716501+779363476+792384266
741+805058447+817422942+828767272+836559451+836043951+823859572+804383653
731+789781919+789757615+802365385+817847958+829767621+839563052+851132237
721+862593987+864340572+848353645+820199908+797212164+793045050+806655182
711+827255835+846149069+861051434+872817143+882367673+890318991+897210438
701+903348217+908836745+913902811+918949681+924170861+929261386+933470297
691+935455592+933283216+926194934+917214319+912020230+913386769+916978706
681+911785932+884693538+830725863+764452597+715901930+706816202+731853485
671+769656439+806773066+841159322+868941991+885418876+894619237+901900715
662+909156417+916012259+921483836+924761983+925227404+922345248+916321792
652+909285215+904856481+905624700+911206343+919091327+926973835+933814274
642+939398935+943925738+947905771+951767842+955503360+958844822+961511800
632+963369458+964772764+966529257+969082066+971937209+974179015+975444854
622+976123287+976556508+976337691+974102697+966893435+950612069+924632644
612+896522408+877944899+873497665+876523790+876942228+869475990+853965010
602+832277395+807237635+782773285+763067403+751001218+747386834+751455338
592+761782523+776653385+794054920+812075905+829273562+844673547+857965090
582+869483808+879511446+888057989+895490943+902562660+909621916+916342613
572+922165906+926710976+930059869+932880878+936023958+939868381+944063592
562+947817919+950621435+952835221+955301185+958313068+961326344+963824429
552+966037210+968279945+969799741+969289659+967108769+966021187+968678180
543+974903889+982060671+987348882+989389829+987616462+978959853+955328585
533+909229408+846193188+787683694+756039264+757667191+780866631+807612495
523+826436144+834383824+833679617+830749858+833497334+845132775+862252487
513+879327074+892920486+902549347+909604036+915670528+921358599+926595569
503+931638414+936910680+941938509+945638654+947177414+944920514+935710788
493+918637362+900175183+891357886+897410755+913506279+930323425+938871902
483+930588528+900132534+853181001+808659595+787339021+795270679+821629763
473+851658573+876661102+894683017+906719015+913745220+916737675+917755129
463+919341415+922876847+928235649+934623825+940822056+945627353+949112474
453+952098505+954564778+955766993+955533779+954753253+954935536+957405679
443+962213995+967469155+970355026+969373022+965134388+959006206+950910068
433+938236428+917275080+885460596+842465333+790037270+732742916+680896455
424+648256552+641682532+659186934+695487971+738043589+772368542+797362944
414+818631271+838774631+856777040+871049659+881671515+890195379+897343647
404+901587312+901962637+901608366+906881793+921163390+937583926+946037741
394+945339571+940710597+937469448+937771085+940375986+942978565+944330321
384+944306326+943461169+943361165+945639660+949951594+953349251+952269022
374+947551500
##END=
