##TITLE=JPK-863
##JCAMP-DX=4.24
##DATA TYPE=INFRARED SPECTRUM
##DATE=14/12/2021
##SAMPLING PROCEDURE=Diamant-ATR
##ORIGIN=Angelika Moesle
##XUNITS=1/CM
##YUNITS=TRANSMITTANCE
##RESOLUTION=4
##FIRSTX=3997.453
##LASTX=373.96442
##DELTAX=-1.4165319
##MAXY=0.78074241
##MINY=0.4224205
##XFACTOR=1
##YFACTOR=7.2712303e-010
##NPOINTS=2559
##FIRSTY=0.74576908
##XYDATA=(X++(Y..Y))
3997+1025643603+1026101342+1025800746+1024764604+1023611814+1023114400
3989+1023436801+1024052502+1024453843+1024659842+1024933961+1025268002
3980+1025335220+1024895597+1024153493+1023640832+1023670179+1023981349
3972+1024104555+1023954790+1023800762+1023814698+1023863882+1023639111
3963+1022989637+1022305734+1022309341+1023180471+1024286618+1025006097
3955+1025328252+1025497937+1025585320+1025577369+1025470722+1025177995
3946+1024664023+1024163658+1024001843+1024179151+1024342442+1024326211
3938+1024386707+1024724601+1025123483+1025304972+1025407192+1025678114
3929+1025861816+1025560318+1024927731+1024471795+1024410643+1024509749
3921+1024508929+1024386379+1024254074+1024210956+1024242024+1024244975
3912+1024185955+1024201120+1024475730+1024999539+1025539415+1025882391
3904+1025976742+1025832388+1025465967+1025013966+1024611314+1024274076
3895+1024110785+1024272682+1024576557+1024582705+1024406873+1024725585
3887+1025689016+1026520389+1026339146+1025333744+1024339081+1023880276
3878+1023968643+1024315472+1024660088+1024865677+1024888957+1024694107
3870+1024335064+1024246697+1024856332+1025921902+1026760981+1026979685
3861+1026833035+1026706140+1026709174+1026818362+1026940666+1026775654
3853+1025918295+1024725339+1024086275+1024211120+1024707305+1025110285
3844+1025251771+1025194308+1024868874+1024141935+1023284249+1022970619
3836+1023513364+1024516143+1025462442+1026060191+1026222662+1026028877
3827+1025684590+1025457770+1025507855+1025739020+1025850586+1025640570
3819+1025427931+1025701066+1026387346+1026885498+1026872136+1026595313
3810+1026364066+1026388330+1026857545+1027710231+1028472910+1028572262
3802+1027477263+1025348335+1023615995+1023295807+1023991186+1024685336
3793+1024828379+1024779769+1025223080+1026417595+1027928198+1028997129
3785+1029025246+1027881801+1026141181+1024902237+1024965848+1025907475
3776+1026663924+1026995916+1027310447+1027688754+1027739577+1027254624
3768+1026695156+1026668925+1027170519+1027633914+1027612683+1027238639
3759+1027042969+1027425292+1028245598+1029135254+1029848176+1030026713
3751+1029107793+1027319055+1025920099+1025487526+1025656637+1025762956
3742+1025361615+1024625413+1023974136+1023640750+1023467049+1023049395
3734+1022546981+1022720027+1023716412+1024968389+1025907557+1026209301
3725+1025925509+1025590075+1025637373+1025850995+1025900917+1025987563
3717+1026445957+1027095268+1027379961+1026949683+1026084947+1025584009
3708+1025877391+1026655481+1027318399+1027388978+1026851397+1026290372
3700+1026329145+1026939682+1027769498+1028625462+1029346991+1029607420
3691+1029095825+1027912869+1026696468+1026040436+1026040272+1026557687
3683+1027191258+1027304709+1026751144+1026333982+1026997883+1028628577
3674+1029936707+1030218859+1029829076+1028934420+1027721461+1026871317
3666+1026721797+1026988047+1027300037+1027450704+1027402503+1027299709
3657+1027458163+1028053699+1028722191+1028963274+1028774982+1028464221
3649+1028060503+1027196750+1025905836+1024693205+1023966840+1024045534
3640+1025165289+1027019114+1028613494+1029101973+1028635463+1028148542
3632+1028362820+1029221080+1029979415+1029808419+1028819739+1027624651
3623+1026531292+1025785417+1025670080+1026116999+1026722617+1027412094
3615+1028290520+1028985161+1028988850+1028556359+1028410856+1028639972
3606+1028625216+1028106736+1027561859+1027511692+1027949511+1028434629
3598+1028618331+1028433809+1027928198+1027328727+1027052396+1027301020
3589+1027833847+1028115835+1027729085+1026875415+1026073225+1025623684
3581+1025701968+1026377510+1027322579+1027892376+1027731708+1027050264
3572+1026244139+1025598682+1025398503+1025820419+1026406364+1026352918
3564+1025795090+1025528677+1025777301+1026094948+1026070356+1025731396
3555+1025300135+1024867070+1024331621+1023602141+1022858808+1022428858
3547+1022420169+1022758308+1023441228+1024290634+1024709190+1024289241
3538+1023416226+1022834625+1022770030+1022893154+1023033493+1023381305
3530+1023977661+1024443433+1024427038+1024078078+1023819042+1023835683
3521+1023983972+1024061355+1024001105+1023817075+1023455327+1022887334
3513+1022376313+1022327293+1022715354+1023028246+1022974882+1022794704
3504+1022704862+1022576901+1022307537+1022109490+1022240729+1022670597
3496+1023027590+1022870940+1022182364+1021492723+1021306972+1021533382
3488+1021690197+1021533792+1021244180+1021129418+1021335171+1021681672
3479+1021739709+1021205325+1020232876+1019401339+1019289528+1019907360
3471+1020614052+1020782179+1020439203+1020071635+1020014335+1020261649
3462+1020644710+1021000638+1021313202+1021717904+1022232778+1022616822
3454+1022696910+1022698222+1022965701+1023389420+1023380895+1022574688
3445+1021362140+1020502158+1020398134+1020828330+1021175323+1021067528
3437+1020850463+1021062200+1021531251+1021623389+1021293938+1021077037
3428+1021074987+1020811525+1020128360+1019529546+1019521184+1020027287
3420+1020586017+1020924239+1021130401+1021301070+1021291889+1021004245
3411+1020713239+1020788901+1021214670+1021676261+1021963742+1021986858
3403+1021647817+1021085644+1020766932+1020922353+1021142206+1020920632
3394+1020390921+1020170822+1020613232+1021473705+1022258189+1022674122
3386+1022720191+1022530587+1022290733+1022184086+1022202202+1022103096
3377+1021772498+1021485510+1021525021+1021689869+1021534611+1021021295
3369+1020574131+1020532324+1020853906+1021285249+1021546989+1021424030
3360+1020913582+1020284437+1019899491+1019949413+1020280585+1020515438
3352+1020523963+1020647087+1021178028+1021852258+1022213842+1022233597
3343+1022169904+1022110884+1022083996+1022299504+1022801016+1023163502
3335+1023045871+1022785032+1022875776+1023134730+1022968242+1022251959
3326+1021454196+1021115400+1021488051+1022327867+1022870120+1022475009
3318+1021410258+1020554129+1020401577+1020827510+1021569122+1022323522
3309+1022606166+1022224335+1021747660+1021875046+1022504929+1022973324
3301+1022992342+1022803967+1022586984+1022236467+1021701099+1021241967
3292+1021263854+1021888900+1022777982+1023501396+1023945363+1024212514
3284+1024356623+1024376788+1024288011+1024154887+1024154641+1024442285
3275+1024847643+1024954126+1024591066+1024098571+1024043567+1024714108
3267+1025816321+1026706550+1026990834+1026825248+1026612035+1026521865
3258+1026360705+1025889523+1025224720+1024750750+1024609346+1024548276
3250+1024366952+1024197595+1024228499+1024425890+1024679024+1025055035
3241+1025722052+1026641546+1027424062+1027554154+1026838281+1025678770
3233+1024814526+1024679925+1025068315+1025512446+1025837634+1026165281
3224+1026513913+1026705567+1026657039+1026522766+1026465057+1026465467
3216+1026474074+1026568343+1026815493+1027143714+1027491280+1027869915
3207+1028096899+1027747365+1026728027+1025719346+1025601223+1026459401
3199+1027536858+1028159936+1028330277+1028394708+1028546850+1028762276
3190+1028961143+1029148534+1029441260+1029908672+1030402561+1030686106
3182+1030699140+1030552408+1030302799+1029933346+1029578484+1029525529
3173+1029836699+1030160985+1030124671+1029780712+1029467246+1029365271
3165+1029437244+1029672917+1030128360+1030769801+1031473869+1032108014
3156+1032477140+1032382379+1031910459+1031435588+1031196144+1031121548
3148+1031103104+1031120401+1031109498+1031005884+1030871694+1030833740
3139+1031002523+1031439277+1032016368+1032394921+1032313521+1031840290
3131+1031320907+1031159256+1031532070+1032161297+1032499519+1032281306
3122+1031809960+1031614617+1031841765+1032065716+1031793811+1031109006
3114+1030625446+1030829641+1031668474+1032773391+1033872489+1034884367
3105+1035740905+1036295126+1036446367+1036277994+1036057076+1036109621
3097+1036578836+1037176339+1037267657+1036401856+1034756324+1032972586
3088+1031584861+1030714961+1030269682+1030144919+1030098112+1029768498
3080+1029101891+1028482173+1028207973+1028134607+1027961725+1027499970
3071+1026545965+1024941912+1022931764+1021068757+1019599469+1018247976
3063+1016695730+1014908795+1012943978+1010855053+1008884088+1007418570
3054+1006730569+1006959110+1008190267+1010272797+1012645923+1014607871
3046+1015819764+1016461860+1016908287+1017369632+1017913279+1018631692
3037+1019540940+1020440023+1021164502+1021885211+1022860529+1023953888
3029+1024694599+1024862316+1024782966+1024903794+1025243820+1025516053
3020+1025689098+1026047649+1026689582+1027338400+1027748840+1028050666
3012+1028618167+1029723904+1031295659+1032919796+1034154067+1034938633
3003+1035657702+1036696959+1038014434+1039245754+1040129262+1040673236
2995+1041028590+1041437473+1042184413+1043287364+1044332113+1044907401
2986+1045075610+1045117662+1045044706+1044676400+1043973480+1042984554
2978+1041653063+1039890556+1037669326+1034945847+1031631914+1027660555
2969+1022947830+1017389880+1011065970+1004388511+997906229+991929969+986381527
2959+981027689+975846078+971082038+967001573+963831667+961929149+961629045
2949+962780524+964680336+966563999+968045994+969103613+969727675+969570615
2939+968074767+965089219+961094744+956571787+951478215+945639259+939347976
2929+933244739+927760154+922904222+918513734+914499094+910796689+907250198
2919+903737070+900405513+897726463+896330458+896700404+898846873+902311227
2910+906543015+911142534+915744595+919989826+923716085+926978375+929866948
2900+932459025+934844529+937020673+938869990+940441663+942171381+944520488
2890+947362419+950053027+952249993+954297357+956589001+958968357+961038018
2880+962639202+963686902+963909459+963099728+961445343+959450442+957671786
2870+956488912+955935511+955758858+955656228+955290135+954124639+951555433
2860+947346844+941834225+935650982+929288463+923002426+917200932+912723389
2850+910451172+910673320+913003983+916831397+921694378+927274954+933127681
2840+938609478+943331056+947539236+951695034+955791811+959417817+962323113
2830+964639841+966701305+968767277+970790131+972477386+973689771+974634513
2820+975623438+976821559+978170593+979385683+980173774+980617413+981158846
2810+982092768+983250312+984258747+984972734+985562614+986225614+986919927
2800+987484887+987928362+988379789+988848758+989275019+989733905+990343622
2791+991056216+991733479+992296389+992677975+992811509+992806919+992968406
2781+993468279+994091030+994465894+994554753+994735995+995320219+996163068
2771+996895827+997328974+997478575+997455950+997516037+997918853+998526275
2761+998824658+998551113+998056978+997882539+998175184+998627266+998852119
2751+998778343+998713010+998973275+999496101+999941625+1000091227+999972365
2741+999725134+999556925+999720789+1000321407+1001135730+1001740529+1001880621
2731+1001681590+1001419357+1001184668+1000973751+1000948339+1001264592
2723+1001763481+1002180643+1002531243+1002992096+1003555416+1004032255
2714+1004279650+1004317276+1004317194+1004485813+1004874448+1005330383
2706+1005657293+1005771809+1005722462+1005622536+1005562368+1005573762
2697+1005673769+1005881900+1006167740+1006432350+1006577197+1006595067
2689+1006601789+1006761801+1007126418+1007563089+1007879916+1007983448
2680+1007908361+1007795729+1007836142+1008083783+1008336835+1008369706
2672+1008234368+1008161986+1008268387+1008510208+1008808181+1009069840
2663+1009210506+1009240754+1009247394+1009275920+1009305677+1009314612
2655+1009299939+1009281249+1009315268+1009483313+1009838175+1010330260
2646+1010760374+1010891695+1010704386+1010486010+1010578557+1011074578
2638+1011785778+1012430579+1012794049+1012788475+1012504437+1012226876
2629+1012270158+1012709780+1013357205+1014005368+1014524586+1014755177
2621+1014623282+1014385642+1014398347+1014591640+1014547703+1014161691
2612+1013864783+1014047502+1014513520+1014702140+1014355229+1013786253
2604+1013500576+1013740102+1014442121+1015417439+1016428087+1017192160
2595+1017472427+1017265034+1016895253+1016786884+1017067561+1017547350
2587+1018061814+1018591771+1019054511+1019287888+1019311497+1019364042
2578+1019525939+1019505527+1019096317+1018686615+1018843265+1019521840
2570+1020179430+1020464697+1020307718+1019723412+1019017213+1018746865
2561+1019076643+1019599551+1019979661+1020318128+1020787425+1021309185
2553+1021718969+1022006614+1022261304+1022453860+1022391232+1021931772
2544+1021219178+1020662826+1020602084+1020978505+1021453130+1021820452
2536+1022117605+1022402626+1022652563+1022764538+1022513290+1021805615
2527+1021065069+1020922763+1021429112+1022007187+1022271551+1022455909
2519+1022878071+1023409668+1023751086+1023911262+1024075619+1024189807
2510+1024008564+1023528037+1023137271+1023243918+1023764694+1024150296
2502+1024012581+1023516315+1023065954+1022937666+1023263264+1023947822
2493+1024572540+1024770834+1024710420+1024930764+1025661801+1026423579
2485+1026455630+1025655735+1024823625+1024713862+1025181930+1025562204
2476+1025528021+1025261362+1025108318+1025305709+1025804107+1026238237
2468+1026221761+1025685737+1024824690+1023869538+1023118991+1022952011
2459+1023443605+1024131524+1024540735+1024769522+1025181520+1025744840
2451+1026102325+1026167248+1026247910+1026584328+1027052314+1027382584
2442+1027459311+1027356352+1027257493+1027328809+1027491444+1027484149
2434+1027354057+1027564319+1028328883+1029204276+1029592501+1029328793
2425+1028644644+1027901720+1027435211+1027378977+1027596370+1027915984
2417+1028322325+1028782277+1029070167+1028989916+1028666777+1028414381
2408+1028410365+1028637840+1028980571+1029236081+1029212801+1028938436
2400+1028648579+1028536439+1028623331+1028821378+1029000326+1029070413
2391+1029112548+1029336908+1029771203+1030092784+1029963676+1029447244
2383+1028893433+1028497748+1028213383+1028028533+1028069520+1028395773
2374+1028842774+1029104596+1028984915+1028649317+1028621200+1029370107
2366+1030714223+1031689623+1031382469+1030014089+1028729077+1028219285
2357+1028147148+1027955577+1027560220+1027172077+1026944929+1026901401
2349+1027022721+1027312579+1027726298+1028090997+1028293061+1028480042
2340+1028777933+1028932944+1028454712+1027149780+1025536054+1024551555
2332+1024581803+1024968143+1024900270+1024471877+1024279732+1024469172
2323+1024795836+1025263329+1026040026+1026840659+1027112072+1026867710
2315+1026775736+1027312579+1028175265+1028727355+1028803754+1028809001
2306+1029153124+1029829076+1030456417+1030588066+1030059257+1029145747
2298+1028311013+1027877210+1028067962+1029017459+1030380100+1031354598
2289+1031526742+1031268444+1031069987+1031139828+1031750119+1033060298
2281+1034514667+1035309316+1035419652+1035394650+1035436703+1035439572
2272+1035510151+1035709018+1035642455+1035021836+1034391461+1034569179
2264+1035445064+1036049207+1035807550+1035005031+1034070864+1033237360
2255+1032880612+1033367124+1034503355+1035667129+1036426366+1036736061
2247+1036693189+1036327424+1035624257+1034834691+1034659268+1035619831
2238+1037174208+1038146165+1038288880+1038708009+1040404200+1042962913
2230+1044933387+1045176109+1043907327+1042582803+1042396478+1042968652
2221+1043100219+1042440498+1041555187+1040863906+1040423792+1040266075
2213+1040241893+1039984743+1039491592+1039330760+1039813583+1040295995
2204+1040097292+1039950806+1041311644+1044130868+1046709829+1047897786
2196+1047982874+1047402503+1046062978+1044010778+1041840372+1040393789
2187+1040185987+1040949568+1041970955+1042929960+1043988645+1045336531
2179+1047011409+1048526848+1048667351+1046825329+1044336047+1043114072
2170+1043456884+1044329899+1045078643+1045716969+1046134869+1046344720
2162+1047171421+1049335105+1051941117+1053243836+1052690024+1050918664
2153+1048846380+1047522348+1047452343+1047820239+1047605551+1047238475
2145+1047725396+1048658907+1048702353+1047634405+1046495715+1045946494
2136+1045639586+1045075118+1044216530+1043243672+1042265649+1041451326
2128+1041123188+1041454933+1042192447+1042942502+1043566155+1043936018
2119+1043635996+1042459352+1040930222+1039819731+1039450277+1039709231
2111+1040267387+1040637824+1040513634+1040160412+1040170658+1040801852
2102+1041661096+1042065388+1041798237+1041384682+1041404520+1041861029
2094+1042501896+1043206866+1043721002+1043642964+1042998162+1042314505
2085+1041987432+1041993907+1042249336+1042771588+1043450736+1044102260
2077+1044823460+1045875833+1047126089+1047992711+1048073864+1047607108
2068+1047272166+1047532923+1048007138+1047820239+1046869513+1045972971
2060+1045434653+1044712960+1044007007+1044568688+1046583426+1048333883
2051+1048543817+1048196742+1048844905+1049963922+1049723084+1047972627
2043+1046438580+1046315374+1047413979+1049386912+1052080799+1054721568
2034+1056197168+1056097161+1054694352+1052603952+1050931370+1050605608
2026+1051270329+1051738971+1051393207+1050506667+1049772268+1049843831
2017+1050665613+1051354188+1051247213+1050434858+1049273133+1048503076
2009+1049331006+1051986448+1054922238+1056698435+1057511200+1057970824
2000+1057733183+1056135360+1053615584+1051908983+1052534521+1055039050
1992+1057113875+1057016983+1055407028+1054175052+1054176855+1054464172
1983+1053620995+1051737495+1050548063+1051505019+1054336457+1057487017
1975+1059248623+1058633741+1056207169+1053798713+1052976029+1053967578
1966+1055438916+1055309562+1052876431+1049791696+1047960741+1047162403
1958+1046088062+1044826166+1044589591+1045710493+1047264296+1048304537
1949+1048598165+1048329703+1047739413+1047142074+1046955421+1047325448
1941+1047740561+1047605797+1047163059+1047218801+1047925001+1048387986
1932+1047771547+1046200529+1044396052+1043103825+1042932911+1044053895
1924+1045890342+1047487263+1048267157+1048087636+1046959766+1045378092
1915+1044338343+1044347278+1044847151+1044893794+1044371952+1044135295
1907+1044635086+1045189881+1045032328+1044335965+1043844700+1043987169
1898+1044648530+1045422603+1045907967+1046078553+1046374313+1047180929
1890+1048378805+1049595534+1050737257+1051861111+1052756833+1053173421
1881+1053281953+1053489510+1053888145+1054224318+1054337277+1054371624
1873+1054570737+1055030279+1055639012+1056120687+1056232499+1055947724
1864+1055315382+1054340638+1053148255+1052054486+1051311398+1050954077
1856+1050946289+1051157452+1051173355+1050587820+1049599632+1048898351
1847+1048824329+1048935075+1048536767+1047586451+1046699992+1046316439
1839+1046515389+1047120351+1047647685+1047644898+1047204948+1046814017
1830+1046693107+1046543997+1046147575+1045699263+1045305791+1044759603
1822+1044006269+1043418603+1043407782+1043965446+1044742061+1045534660
1813+1046402921+1047311349+1047955659+1048106244+1047955823+1047947379
1805+1048419217+1049411340+1050625528+1051615929+1052184577+1052512552
1796+1052904466+1053609764+1054668531+1055627864+1055865750+1055483099
1788+1055035525+1054786244+1054607871+1054292028+1053860766+1053525824
1779+1053406553+1053409586+1053434178+1053525004+1053643455+1053427374
1771+1052678384+1051881030+1051545760+1051653390+1051953167+1052350573
1762+1052750275+1052876104+1052698386+1052614117+1052880694+1053305480
1754+1053656407+1053999711+1054453023+1054872152+1055001916+1054825018
1745+1054516389+1054211448+1053839289+1053177601+1052196955+1051234425
1737+1050628725+1050464450+1050530029+1050370919+1049851044+1049207636
1728+1048651202+1048281011+1048063863+1047796467+1047229949+1046323489
1720+1045244803+1044213088+1043416881+1042868890+1042438203+1042107932
1711+1041938985+1041893080+1041874800+1041950544+1042325407+1043038903
1703+1044048567+1045476050+1047169043+1048532095+1049632176+1050935141
1694+1052207284+1053081529+1053749447+1054446793+1055038066+1055369812
1686+1055746889+1056744750+1058175429+1059135254+1059405930+1059322317
1677+1059374944+1059995891+1061135729+1062313521+1063311136+1064175216
1669+1064780998+1065032082+1065195865+1065622782+1066462516+1067533660
1660+1068515290+1069251410+1069717182+1070054256+1070785375+1072352458
1652+1073610912+1073741823+1073436309+1073253262+1073195799+1072960700
1643+1072439022+1071555022+1070070323+1067507429+1062447711+1052415906
1635+1038286421+1025734511+1017156338+1011653309+1008512012+1007243393
1626+1007104777+1007809747+1009659227+1012379182+1015049051+1017318481
1618+1019164027+1019829978+1018626036+1016485714+1014887974+1014769768
1609+1016336933+1019241574+1023159158+1027926558+1033197603+1038376264
1601+1042891843+1046469729+1049272395+1051832010+1054668695+1057863357
1592+1061098923+1064030369+1066483829+1068455941+1070022122+1071228769
1584+1072053666+1072386805+1072014237+1070400183+1065805746+1055127253
1575+1038686696+1022761013+1011624290+1006895581+1010320178+1020084996
1567+1030970389+1040093030+1046556867+1049664227+1047907131+1036514487
1558+1014067175+992810935+976649989+962366559+951347057+947047724+950406988
1548+959024591+969613487+980454286+990963340+1000748078+1010440023+1020391658
1538+1027976972+1032144410+1034326539+1035408094+1035341941+1033806336
1530+1030423300+1024355803+1014870104+1003044969+991312874+981367386+974942896
1520+973667146+976329638+979753989+981106138+979666769+977167896+975889195
1510+977307005+982688467+993675343+1007419308+1017675392+1024510159+1030094915
1500+1034940928+1037964594+1036890990+1030358459+1020445269+1010499781
1492+1003090792+1000886449+1004910107+1010976784+1012998244+1007284052
1483+992551736+971194505+950498552+938401430+937760481+945950922+957692361
1473+967227901+970041633+966182004+959511676+953646407+951348779+954134558
1463+960295668+966638349+972030714+977252903+983546809+990568147+996568672
1453+1001561745+1006458417+1011722740+1017508659+1023809615+1030267633
1445+1036432924+1042125229+1047106252+1051001211+1053894375+1056509240
1436+1059436915+1062156542+1063691573+1063348843+1059987038+1052130229
1428+1038918517+1019391503+992660187+961333450+930848906+902766507+874712634
1418+848974096+832449189+827045594+830923913+842364592+859003033+877570058
1408+895516628+911896770+926256682+937600306+945648358+951873736+958241910
1398+965799927+974632381+984494011+994592050+1003748545+1011565024+1018195513
1388+1022996687+1024231778+1020787425+1013498855+1004185955+994525898+985409570
1378+976492437+966426202+953772564+938576197+923176127+909848587+898855727
1368+890048929+884224401+882194662+883943725+888584395+894374330+899952857
1358+905557204+912214253+920500520+930112786+940130820+949507250+957300447
1349+962714371+965224228+964733455+961718478+957223556+952441810+948034272
1339+943645014+938211744+930967521+921986203+912046618+902180890+892960947
1329+884018894+874507127+864231533+854269733+846390053+841943578+841357879
1319+844268749+849612340+855772877+861128272+864746817+866865662+868594970
1309+870664549+872313933+871548384+866573509+856955587+843614685+828162479
1299+812382791+798070424+786892960+780030568+777883607+780112870+785849850
1289+793962006+803420245+813547877+823893230+833957005+843192113+851233607
1279+858022633+863741579+868691862+873129239+877181997+881039576+885140699
1269+889859079+894897812+899163208+901410177+901206720+899453967+897973284
1259+898411759+901328860+906176840+912009894+918173381+924444171+930701928
1249+936658105+941936199+946220860+949214195+950565196+949951299+947194620
1239+942304587+935549909+927618422+919620783+912679041+907384962+903639768
1230+900843742+898039765+894081194+888105917+880084588+871007525+862637481
1220+856925503+855176275+857411112+862545507+869304039+877028461+885614750
1210+894744194+903347615+909859325+912824626+911266970+904745259+893421883
1200+878426105+862161217+847657524+837077645+831018346+829381832+832284751
1190+839593404+849976465+861102696+871102942+879795304+888286586+897398652
1180+906774835+915499823+923117352+929842602+936102080+942057684+947465296
1170+952012434+955839684+959549220+963590092+967835241+971808075+975011180
1160+976804263+976049781+971084005+960422973+944156937+925050118+907967546
1150+897611536+896306112+903329745+915577288+928487256+936765654+935411046
1140+921766269+897789664+869889492+845140535+826849104+813677067+802747162
1130+793213426+787057562+786871155+792925782+802319835+811067202+817110189
1120+821348534+826027896+832442139+840058357+847367748+853255150+857675722
1111+861412309+865447525+870372396+875988794+881393619+885636473+888336344
1101+889716282+890413219+891394111+893553942+897023706+901156470+905351042
1091+909510201+913572304+917121746+919751776+921486002+922648957+923593125
1081+924661646+926131427+928027878+930124098+932178266+934063651+935723774
1071+937218884+938748669+940394282+941922920+943097187+944047339+945069135
1061+946209711+947311022+948294947+949175914+949949167+950647580+951441900
1051+952574525+954156445+955991826+957612601+958550949+958622184+958001155
1041+957097973+956323408+955890589+955800091+955946987+956182906+956324556
1031+956204629+955770990+955181193+954810182+955050855+955934363+956915665
1021+957183471+956266928+954203416+951082284+946742373+941108843+934576640
1011+927978530+922501077+919558647+920117623+923915526+929688902+936183398
1001+942627890+948471353+953276626+956917222+959492822+960955963+960951044
992+959001556+954870350+948878679+942007516+935663442+930981129+927799255
982+924420973+919213212+912522226+905789845+898144035+885280545+863611733
972+835623112+809813257+794533769+791675936+795656557+798022633+794202679
962+787165931+784028896+788515539+797810732+806716471+812452632+814890189
952+815079383+815239723+818319868+825893787+837044200+849691526+862309834
942+874272848+885250051+894466058+900416415+901789631+899259117+895975104
932+895348992+898145428+902261470+905330712+906841398+907633587+908315687
922+908881794+909317154+909689476+909718577+908982949+907790566+907470378
912+909469378+914108901+920246239+926135526+930612495+933596978+935733365
902+937641948+939280839+939747349+937508824+930863579+918818920+902415251
892+885261937+872005057+865712298+866495717+872227697+880262798+888717028
882+896637038+903581649+909560041+915003639+919843832+922678795+921893819
873+917767203+912659778+909020821+907768269+908454549+910261158+912655515
863+915522940+918990244+923156699+927899508+932822740+937410046+941380257
853+944969538+948787032+953274577+958287897+963178832+966983375+968219204
843+965053806+956996736+946859021+939849980+939599306+945429654+953945036
833+962361722+969634554+975467279+979535530+981192456+978799000+969697345
823+952332704+929278298+907703510+895654179+896899353+909040412+926218565
813+943075792+956578181+965618520+969771777+968604314+962870940+956472271
803+955345057+962749948+976206268+989798090+998730880+1001561171+999808501
793+996601707+994775425+995385470+998411185+1004507946+1014630988+1027935166
783+1041583467+1053034886+1061525512+1067076905+1069018770+1066272584
775+1058817034+1047760070+1033425489+1014313751+988739160+956928535+921332384
765+885526219+851852260+818218221+778176907+727417671+670869812+621301360
755+590237102+580947769+588951597+606699792+627573380+647907872+667125068
745+685718530+702919307+717023216+727722202+736795494+746230944+756432107
735+766460961+775466789+783439017+790691847+797212737+802776427+807230771
725+810457649+812468043+813690674+815012821+817555140+822117525+828385856
715+834828463+839702675+842128018+842179825+840431909+837833766+835587617
705+834453271+834245879+834399169+834677468+834735751+833563779+830535605
696+826970096+825667377+828598413+835343009+843604028+850859727+855722217
686+858378561+860182874+862614283+866297095+871027117+876443090+882160151
676+887646047+892501815+896615069+900017861+902925207+905696149+908285111
666+910317310+911821765+912845119+913313760+913614766+914589182+916646465
656+919412981+922293275+924979293+927468903+929749645+931411079+931944561
646+931737824+932132197+933964546+936685976+939386749+941809059+943659359
636+943926756+941919559+938334048+934499503+931303366+929421014+929702756
626+932665270+938168790+945940511+955751153+967140681+979415275+989456672
616+987175028+959100826+904876744+846092572+808078539+793760188+785856162
606+773822488+765827308+773019150+794007665+818605299+839111894+854247354
596+866025846+876037158+884100540+889097876+890708732+890308129+890190579
586+892067275+896203810+901773975+907856800+913800927+918947536+922796099
577+925596469+928240353+931181717+933865276+935562450+936289307+936610970
567+936943536+937177897+936528833+933959135+929544957+925232426+923391389
557+924575493+927118221+928848513+928643416+926106179+920532407+911312957
547+899373552+887196834+877004934+869466837+864285718+861285004+860561754
537+862019321+865144715+869165914+873240804+876745489+879873835+883703871
527+888970243+894926256+900257305+904668860+908409218+911139419+912320244
517+912275651+912088588+912240812+911703396+908744243+902654531+894106278
507+883538367+869897197+851778320+830601020+812695765+805369077+810006468
497+821854637+834872237+845132911+851572649+855298497+858145265+860755867
487+861796927+859354042+853403276+847123386+844697633+846826889+848893189
477+844244321+829929577+809514383+791346895+783507054+787844915+800248535
467+815427770+829013690+838325934+842968817+844022420+843015378+841854063
458+842799625+847198310+854422121+862620595+869732923+874985687+879811781
448+885494331+890526342+892089736+889733824+885877638+882751342+880571099
438+878871712+877587928+876601626+875770335+875849849+878182398+882947340
428+888399382+892094080+892526325+890250993+887789828+888281832+893727889
418+901906197+908292324+912320818+915361534+917120025+916256846+913127599
408+910042945+908452090+907664983+906878204+906401365+906044044+904312604
398+900876039+898282733+897310121+895575567+892648711+890945717+892029321
388+893530826+890908255+883842652+879485937+883071202+890258289+895628849
378+899914329+906243321+912319507+910962931
##END=
