##TITLE=X7775
##JCAMP-DX=4.24
##DATA TYPE=INFRARED SPECTRUM
##DATE=30/10/2018
##SAMPLING PROCEDURE=Diamant-ATR
##ORIGIN=ComPlat
##XUNITS=1/CM
##YUNITS=TRANSMITTANCE
##RESOLUTION=4
##FIRSTX=3997.453
##LASTX=373.96442
##DELTAX=-1.4165319
##MAXY=0.934376
##MINY=0.38381764
##XFACTOR=1
##YFACTOR=8.7020546e-010
##NPOINTS=2559
##FIRSTY=0.86717206
##XYDATA=(X++(Y..Y))
3997+996514155+997368081+998045084+998057482+997749118+997646102+997699665
3988+997626923+997571579+997864121+998429341+998889832+999046959+998949971
3978+998655785+998142690+997421644+996692104+996300451+996400796+996728201
3968+996896493+996854437+996840464+997030949+997460343+998114812+998853872
3958+999327172+999209429+998534481+997704870+997180953+997205268+997667198
3948+998087688+998017823+997656239+997729871+998509685+999288746+999421353
3938+999129427+998757842+998215911+997562401+997341025+997734939+998075496
3928+997796516+997080060+996433879+996120788+995954757+995644817+995291041
3918+995355152+996095651+997205611+998250638+999168880+1000069383+1000701933
3908+1000440420+999036685+997244995+996379151+996904576+998033029+998979971
3898+999453682+999338200+998748116+998088716+997907615+998439410+999092851
3888+999139565+998560783+997687746+996696351+995906262+996126131+997681034
3878+999298678+999635947+998750924+997276024+995768177+994964731+995667900
3869+997463083+998819282+999102988+998810036+998500439+998222349+997798503
3859+997203419+996561964+996119213+996257230+997205405+998508178+999607385
3849+1000379939+1000728167+1000528436+999788485+998637017+997307463+996210243
3839+995838589+996334698+997227872+997943575+998160567+997760009+996984167
3829+996459290+996689707+997440480+997875696+997656033+997390136+997558839
3819+997616032+997433425+997842750+998996890+999840336+999677661+998637634
3809+997241228+996330314+996326410+996362233+995680366+994924456+995162134
3799+996416549+998327352+1000698783+1002668217+1003355015+1003032952+1002431841
3789+1001796893+1001140438+1000757414+1000911048+1001257564+1001207152
3781+1000718235+1000290759+1000261237+1000381583+1000261443+999831569+999389845
3771+999311692+999477792+999379845+999123468+999263677+999682524+999758896
3761+999403886+999071001+998983396+998863667+998311119+997050264+995305562
3751+994201082+994343140+994457116+993890526+993601614+994233685+994637600
3741+993858402+992218222+990330777+989076840+989523907+991552794+993715316
3731+995212203+996142364+996734092+997210542+997638704+997753365+997428356
3721+997014921+996833889+996868958+996999647+997105814+997165815+997537058
3711+998687978+1000185824+1001047901+1000954954+1000091918+998884284+998052345
3701+998179060+999021068+999933421+1000600629+1000872349+1000629534+1000015751
3691+999571630+999947873+1000863033+1000992557+1000098288+999116139+998543111
3682+998054674+997181227+995939003+994913018+995081447+996454838+997230817
3672+996589157+995696257+996295793+998448793+1000745496+1002240535+1002661025
3662+1002141970+1001047011+999859583+999331830+999964038+1000808101+1000372404
3652+998545714+996620253+996008046+996415933+996938892+997765077+999043877
3642+1000391378+1001428185+1002044776+1002054434+1001131808+999290801+996959303
3632+994561844+992691522+992676316+994975690+997409041+998515370+998703115
3622+998625099+998602222+998728253+998910175+998874832+998443725+997789598
3612+997415548+997771036+999018534+1000928446+1002551775+1002869044+1001979706
3602+1000808306+999964243+999338268+998729280+998172142+997684870+997368081
3592+997351368+997358149+997009647+996646007+997217255+998733732+1000051369
3582+1000368158+999880953+999435805+999460737+999492656+999245184+999257581
3572+999762937+999975682+999258403+998250227+998153169+998792912+999042987
3563+998860790+998890928+999345392+999994655+1000580286+1000740359+1000139111
3553+999156140+998716061+999009082+999393955+999524643+999619303+999921023
3543+1000623644+1001874703+1003242341+1003790574+1003166038+1002102723
3534+1001356950+1000797689+1000030889+999188470+998691745+998657566+998923874
3524+999459847+1000328568+1001224139+1001500242+1000989201+1000513298
3516+1001038928+1002351154+1003193093+1002744178+1001459898+1000436995
3507+1000254936+1000592684+1000830087+1000753647+1000616794+1000606315
3499+1000647754+1000736181+1000979680+1001321744+1001570312+1001679493
3490+1001773879+1001983473+1002368278+1002842468+1003103091+1002836166
3482+1002062311+1001125711+1000325485+999833418+999898420+1000621109+1001527777
3472+1001952856+1001825250+1001507571+1001102218+1000561039+1000170344
3463+1000252812+1000636041+1000970707+1001320032+1001986761+1002957265
3455+1003758587+1003825986+1003048501+1001945322+1001093656+1000423981
3446+999399640+997902136+996488127+995710435+995545500+995460840+994972334
3437+994205876+993816757+994222863+995133229+996027909+996826012+997818503
3427+999139017+1000469393+1001183932+1000887829+999959654+999318884+999499026
3417+1000250552+1001056463+1001598943+1001739220+1001464213+1001013243
3408+1000846663+1001267701+1002086764+1002775343+1002953567+1002663080
3400+1002221699+1001904841+1001690931+1001291743+1000555628+999772937+999394845
3390+999532246+999933489+1000310554+1000487750+1000442269+1000458297+1000999407
3380+1002042584+1002816645+1002733698+1002292454+1002349989+1002813426
3371+1002818426+1002019570+1001061121+1000848787+1001640040+1002784658
3363+1003454059+1003694339+1004292574+1005435480+1006211801+1005805215
3354+1004545046+1003349125+1002728766+1002719177+1003210080+1003929071
3346+1004432783+1004400659+1003850302+1003105214+1002608900+1002519925
3337+1002455061+1001985460+1001365855+1001346197+1002254028+1003602008
3329+1004632514+1005042524+1005058073+1004934028+1004667720+1004212709
3320+1003654544+1003143092+1002848632+1002920415+1003376591+1004090377
3312+1004742791+1004764504+1003810438+1002425265+1001698671+1002161834
3303+1003411866+1004638130+1005206227+1004938755+1004084144+1003031925
3295+1002147998+1001800249+1002176903+1003045007+1003930304+1004519360
3286+1004768271+1004750942+1004574773+1004469838+1004771627+1005543017
3278+1006243788+1006185636+1005394177+1004600116+1004304218+1004332164
3269+1004415180+1004604568+1004866013+1004867383+1004599157+1004657309
3261+1005388835+1006225431+1006361051+1005735556+1004917110+1004259011
3252+1003596186+1002805481+1002341359+1002845756+1004243668+1005603087
3244+1006093990+1005915971+1005948027+1006486397+1006800926+1006240569
3235+1005267325+1004782449+1004926494+1005186432+1005203556+1004958550
3227+1004603335+1004434838+1004649843+1005014236+1005128006+1004995194
3218+1004993756+1005282531+1005579250+1005645622+1005691445+1006046865
3210+1006628593+1006990246+1006811268+1006199335+1005564456+1005235612
3201+1005201227+1005294791+1005543017+1006130087+1007031548+1007856843
3193+1008154248+1007848898+1007229430+1006473589+1005546373+1004683474
3184+1004440728+1004988139+1005831517+1006416806+1006643524+1006689211
3176+1006590098+1006187074+1005501372+1004953070+1004964440+1005462398
3167+1005989740+1006195979+1006119127+1006107620+1006405436+1006786679
3159+1006832022+1006481123+1005986384+1005575415+1005478221+1005875491
3150+1006550508+1006968190+1006783939+1006021248+1004964303+1004061814
3142+1003580158+1003356385+1003249602+1003521595+1004293053+1005029510
3133+1005071566+1004436413+1003791396+1003771190+1004436207+1005276571
3125+1005747748+1005770762+1005625005+1005534523+1005545414+1005636170
3116+1005776447+1005918917+1005960493+1005727336+1005130609+1004389973
3108+1003957223+1004083938+1004490455+1004598403+1004145104+1003407277
3099+1002702875+1001977925+1001129821+1000372747+999863213+999180593+997540414
3089+994393278+989658910+983669167+977240577+971708449+968487955+968257470
3080+970456294+973642471+976438297+978235466+979182340+979706189+980109144
3070+980479291+980779572+981013551+981443425+982501945+984231579+986016419
3060+987199532+987716189+987797835+987472484+986865482+986563214+987072953
3050+988159351+989151294+989666856+989674047+989036086+987415085+984664672
3040+981124992+977483186+974454068+972603335+972238805+973240064+975046412
3030+976957214+978474376+979408030+979820849+979874344+979666873+979314124
3020+979049939+978898086+978461157+977521886+976548368+976090274+976086849
3010+976222949+976424255+976621452+976608506+976415214+976353363+976590492
3000+977003722+977398116+977664561+977843333+978060599+978331564+978537049
2990+978594516+978466157+978132655+977749563+977611957+977826551+978218822
2980+978597051+978977060+979624200+980882178+982776473+984822485+986387319
2970+987166586+987290356+987128571+986991924+986960348+987048295+987364810
2961+987910509+988470934+988914781+989333354+989766242+990029879+989883436
2951+989246023+988280176+987241725+986116285+984485901+981930424+978556913
2941+975058467+972289354+970846646+970982129+972614842+975187648+977758673
2931+979642078+980938755+982245501+983961298+985978610+987927016+989614525
2921+991176620+992748989+994106285+994807330+994694587+994134847+993715864
2911+993708809+993896759+993984090+994032447+994341770+995031171+995908728
2901+996665939+997078347+997117800+996988756+996987523+997209241+997469659
2891+997605142+997693363+997851723+998052619+998264474+998495096+998656744
2881+998699416+998802981+999084632+999283198+999091824+998615647+998238856
2871+998209883+998460027+998685375+998604893+998228445+997833641+997696719
2861+997917478+998422560+999032302+999587932+1000086027+1000655151+1001345923
2851+1001958610+1002161149+1001830182+1001185508+1000555080+1000116028
2843+999844583+999585809+999258403+999052234+999224430+999678003+1000040684
2833+1000187879+1000372952+1000790497+1001309004+1001727576+1002066147
2825+1002419580+1002681094+1002665546+1002405539+1002061283+1001676685
2816+1001305100+1001165781+1001400513+1001877375+1002408210+1002942402
2808+1003490293+1004046745+1004571827+1004923549+1004901904+1004466277
2799+1003861467+1003465224+1003478991+1003762081+1004001470+1004022772
2791+1003908454+1003876673+1004068869+1004420591+1004751079+1004944577
2782+1004958207+1004764230+1004439290+1004193667+1004160310+1004234490
2774+1004180584+1003865850+1003426524+1003192819+1003410291+1004098117
2765+1005117389+1006169540+1006809693+1006758322+1006212965+1005701719
2757+1005625964+1005934602+1006224473+1006224199+1006105976+1006183239
2748+1006488041+1006866201+1007276143+1007738210+1008112124+1008162536
2740+1007879721+1007613686+1007742936+1008242127+1008738304+1008943583
2731+1008830498+1008469736+1007981709+1007588549+1007454641+1007496492
2723+1007531903+1007558205+1007708209+1007982942+1008212263+1008259251
2714+1008132330+1007938626+1007829171+1007947188+1008352198+1008983585
2706+1009649766+1010051352+1009955527+1009410308+1008696111+1008062396
2697+1007606220+1007335391+1007181004+1006998602+1006718252+1006437286
2689+1006208856+1005841997+1005168692+1004434427+1004095719+1004206749
2680+1004341273+1004213736+1004021471+1003999141+1004008046+1003863727
2672+1003762149+1004041266+1004712310+1005462398+1005961726+1006080496
2663+1005972137+1005930698+1006062688+1006241596+1006438108+1006850858
2655+1007638070+1008667891+1009536270+1009837168+1009569216+1009190645
2646+1009096259+1009221604+1009327840+1009383869+1009464008+1009498118
2638+1009308250+1008811457+1008182742+1007852597+1008194249+1009100026
2629+1010028063+1010586228+1010875962+1011075556+1010988773+1010390333
2621+1009608053+1009269345+1009542845+1010066763+1010559515+1011046994
2612+1011500087+1011752080+1011860987+1012103528+1012500730+1012765736
2604+1012777381+1012680323+1012488469+1012039279+1011444538+1011199806
2595+1011612693+1012339287+1012766764+1012734708+1012570252+1012506620
2587+1012440591+1012245997+1012028183+1012010443+1012249490+1012525319
2578+1012667446+1012899712+1013505618+1014339544+1015149976+1016006368
2570+1016837074+1017154411+1016955159+1017169685+1018374990+1019669475
2561+1019693380+1018409717+1017030093+1016398295+1016272402+1016127467
2553+1015884378+1015726292+1015741498+1015864857+1015903146+1015691291
2544+1015376625+1015338611+1015754169+1016416858+1016961803+1017172836
2536+1017167219+1017279688+1017685794+1018300399+1019031240+1019797698
2527+1020344698+1020460866+1020276820+1019956949+1019356933+1018468075
2519+1017898813+1018325057+1019562212+1020672583+1021066635+1021131431
2510+1021599867+1022589961+1023518478+1023822527+1023496834+1022914833
2502+1022313173+1021647951+1020934919+1020468811+1020529771+1021011702
2493+1021448494+1021318696+1020431755+1019232615+1018552460+1018823084
2485+1019725573+1020641007+1021076018+1020736421+1019768245+1018875277
2476+1018605749+1018582119+1017967856+1016670768+1015587658+1015569644
2468+1016458639+1017327566+1017562024+1017474898+1017739083+1018424854
2459+1018940210+1018872332+1018443006+1018037995+1017814907+1017967445
2451+1018756096+1019938044+1020714434+1020601280+1019934414+1019320905
2442+1019018568+1018964800+1019035350+1019133297+1019233642+1019414332
2434+1019738724+1020129761+1020496620+1020932932+1021543976+1022118100
2425+1022296392+1022035838+1021580278+1021144034+1020944988+1021193008
2417+1021697952+1021899053+1021548496+1020970125+1020583814+1020576690
2408+1020967385+1021624526+1022296461+1022745719+1022782843+1022306803
2400+1021515345+1020859026+1020606623+1020674227+1020942248+1021446233
2391+1022180225+1022922915+1023267444+1022748801+1021168076+1018903976
2383+1016580971+1014318585+1011705367+1008591177+1005393972+1002483760
2374+999780266+997092320+994397593+991709648+988875808+985552435+981724528
2364+978423485+977060504+977693740+978980280+980044417+981227735+982968190
2354+985203659+987817972+990626401+993043244+994373004+994257042+992840430
2344+990789898+989027524+988262641+988724914+990136251+991949380+993644903
2334+994767877+995098296+995005075+995120078+995463648+995465909+994956032
2325+994517528+994805481+995954551+997802955+1000208017+1002741232+1004609774
2315+1005415479+1005643225+1006007344+1006673799+1007520944+1008723030
2306+1010501089+1012522169+1014104743+1015033055+1015818075+1017070915
2298+1018811029+1020406823+1021127595+1020864438+1020337917+1020385453
2289+1021086087+1021909875+1022558933+1023106755+1023468683+1023476902
2281+1023419024+1023752183+1024299115+1024379596+1023744306+1022949149
2272+1022755377+1023285527+1023834993+1023676702+1022970999+1022528727
2264+1022814282+1023581562+1024301170+1024586040+1024325896+1023642865
2255+1022830995+1022344750+1022432149+1022681402+1022656949+1023000862
2247+1024708577+1027309535+1029167322+1029650965+1029654526+1029951109
2238+1030242487+1029972754+1029253352+1028724160+1028928823+1029974124
2230+1031377653+1032229045+1032120754+1031778964+1032050615+1032735907
2221+1033093313+1032664604+1031158606+1028758955+1026779042+1026717396
2213+1028627993+1031216005+1033219892+1034224781+1034577324+1034779863
2204+1034846509+1034444786+1033461953+1032023012+1030330982+1028754846
2196+1027612830+1026737808+1025627574+1024132878+1022898188+1022784692
2187+1023681976+1024585013+1025231536+1026470540+1028498469+1030438793
2179+1031993833+1033443048+1033951144+1032180413+1028897247+1026897675
2170+1027798862+1030193444+1031317309+1029820763+1026562392+1023526492
2162+1022513316+1023932393+1026159848+1027041993+1026260809+1025173932
2153+1025262153+1027015006+1029461508+1031092166+1031350597+1030558522
2145+1028987523+1027109940+1025690726+1024707002+1023612796+1023200114
2136+1025242838+1029745145+1034513624+1037793366+1039412380+1039550260
2128+1038377285+1036662515+1035295219+1034500336+1034236562+1034528967
2119+1034957471+1034927812+1034767534+1035319055+1036304834+1036385453
2111+1035046035+1033348183+1032583643+1032910226+1033483186+1033599559
2102+1033463186+1033720932+1034489514+1035267068+1035721942+1036013114
2094+1036274011+1036337506+1036118596+1035844891+1035764135+1035952291
2085+1036459564+1037236981+1037949328+1038395573+1039040110+1040392816
2077+1041963473+1042692121+1042363277+1041706343+1041304963+1041280647
2068+1041734837+1042716848+1043945852+1044926151+1045134787+1044159077
2060+1042098476+1039887255+1038925312+1039990888+1042068475+1042666436
2051+1040323636+1036636418+1034905552+1036863273+1041439418+1046349407
2043+1050111833+1052725872+1054452560+1054338448+1051526595+1047748690
2034+1046007755+1046921956+1048768510+1050284577+1051058295+1050848906
2026+1050596982+1052118528+1055260526+1057187973+1055717456+1051951469
2017+1048855567+1048474119+1050926511+1054558317+1056519052+1055036000
2009+1051760231+1049978678+1050367113+1050681231+1049549695+1048220072
2000+1048554875+1050730479+1052942933+1053254448+1051856809+1051030555
1992+1052480181+1055248882+1057095779+1056928514+1055021342+1052272368
1983+1050040666+1049694219+1051646393+1055266417+1059511458+1062998533
1975+1064290279+1063034493+1060124487+1056632616+1053450480+1051568925
1966+1051445360+1052236408+1052586417+1052054280+1051383441+1051322001
1958+1051266588+1049554215+1045234105+1039359091+1034579653+1033344279
1949+1035898728+1039908214+1042624859+1043258848+1042692943+1041827990
1941+1041230303+1041437774+1042392319+1043078227+1042578694+1041217563
1932+1039982600+1039315048+1039123126+1039312377+1039708894+1040196646
1924+1041256263+1043393852+1045946931+1047810609+1049138931+1050873016
1915+1052626007+1052933617+1051583309+1050109846+1049697986+1049602436
1907+1048612890+1046959628+1045738981+1045511920+1046151662+1047379228
1898+1048979338+1050777329+1052580115+1054105223+1055158743+1055795883
1890+1056160618+1056535217+1057519694+1059353851+1061072867+1061212666
1881+1059593720+1057445103+1055705812+1054253857+1052800874+1051584679
1873+1050947128+1050821234+1050807672+1050674381+1050794590+1051728244
1864+1053572675+1055993901+1058421977+1060223599+1061114375+1061510276
1856+1062176937+1063419024+1064811936+1065771618+1066173341+1066333825
1847+1066565885+1066905141+1067240766+1067495704+1067590432+1067452141
1839+1067134941+1066718629+1066038064+1064799744+1062977094+1060874164
1830+1059052747+1058033954+1057643464+1057203796+1056452680+1055844035
1822+1055905748+1056774812+1058410402+1060590526+1062694416+1064055204
1813+1064526929+1064418912+1064131165+1064052259+1064452338+1065178315
1805+1065702164+1065653670+1065190850+1064819334+1064939542+1065613327
1796+1066658216+1067835233+1069032318+1070309132+1071633070+1072763853
1788+1073505653+1073741823+1073408184+1072672891+1071931777+1071464230
1779+1071233334+1071046480+1070729554+1070083784+1068891630+1067228026
1771+1065672712+1064748304+1064484119+1064569190+1064645083+1064575218
1762+1064391788+1064028423+1063244430+1061799872+1059634474+1056802278
1754+1052908959+1046705101+1036749640+1023426284+1009319141+996049759+983394845
1744+971015418+958207554+942091661+919614234+891032542+853333765+792141988
1734+698317661+601670452+533040334+487933627+459435635+447642524+451740300
1724+468616111+492457956+516967078+540675564+566429924+594789933+620579363
1714+640592479+656348912+669844464+681888129+692795122+703421559+714159574
1704+723849549+732512100+742812091+755888523+768080959+777673808+786130875
1694+792708509+796602582+799353749+802628833+806461260+810182588+814707225
1684+822043441+830622360+836921700+841150849+844594157+847952394+851802630
1674+856181235+860481688+865170165+871913831+880510627+887983148+893152185
1664+897302840+901655280+906016009+909309312+911138058+911833144+911949312
1655+912628713+915449401+918732842+920010615+920417406+921949226+925284175
1645+928693029+931007746+932651967+934122347+935687113+937990049+942300091
1635+948303259+953331813+956502922+958436122+958881476+956338739+949826928
1625+940971427+934455986+934564139+940034964+947171997+954523487+961595518
1615+966892298+969892718+971607625+973040744+974671333+976362130+977501680
1605+977619491+976803511+975444093+973792818+971915304+969971692+968423022
1595+967872255+968562546+970195328+972404563+975101139+978276700+981742268
1585+985108793+987952359+990025152+991277239+991779170+991948626+992853650
1575+995033363+997124513+998105771+998535576+999554781+1001375238+1003035418
1565+1003945373+1004087431+1003438716+1002138683+1001634218+1004316958
1557+1008136439+1010505541+1011879344+1012804779+1013482536+1014105497
1548+1014567427+1014472424+1013720966+1012601965+1011306315+1010068955
1540+1009949568+1010858427+1010678971+1007679030+1000746866+990744349+980676145
1530+971579747+963033089+956876287+956339082+961860456+971819616+984146234
1520+994858359+1001535037+1005549455+1008490558+1010370538+1010807946
1511+1009791482+1007404503+1004007977+1001434144+1001560997+1001614971
1503+998477287+990928943+978189095+960587136+941889944+929255852+926230021
1493+930576776+939998525+953546270+968713715+981694870+991134496+997683157
1483+1002313413+1005929191+1008878171+1010840824+1011492553+1010979115
1475+1009927718+1009350101+1009999022+1011344741+1012373603+1012771969
1466+1012890671+1013184651+1013293284+1012156200+1008771182+1001710726
1458+989484728+974446396+960641042+947536801+934525850+923554541+917447740
1448+917817681+923888180+933127390+943017849+951549986+957311230+960092945
1438+960659124+959997874+958909970+957840833+957304928+958208787+960973995
1428+964562101+967664989+970004981+971803931+973041908+973679390+974118374
1418+974816200+975312172+974622017+972144488+967756019+961744426+954783083
1408+947879207+942203787+938677601+937060367+935624440+932438605+926817639
1398+920460215+917240201+920653302+930677738+943215389+954191903+962216972
1388+967197785+968999955+967520533+962920141+955447278+945329552+932696625
1378+917272188+897733673+871836706+839298199+804365110+771729888+743070796
1368+720560835+708098871+707687490+718821749+739693449+765990221+792796731
1358+818349921+842884661+866298550+887794856+906385059+921406541+932554772
1349+939441182+941632129+939694271+936325554+935944791+942469068+956496415
1339+973918369+989119170+999861090+1007133263+1012332917+1016091233+1018652805
1329+1020436344+1021919670+1023232786+1024263840+1024966529+1025343114
1320+1025441130+1025482912+1025722508+1026200328+1026841098+1027594268
1312+1028288327+1028447578+1027341111+1024261169+1018998157+1012421823
1303+1006661950+1004125925+1005645348+1009755317+1014071112+1016949611
1295+1017807578+1016619534+1013442535+1007975202+999102029+984983722+964946974
1285+942802638+927152647+925373560+936426105+951467450+961799427+964222846
1275+959334981+947914002+929990734+905819291+876505525+843714751+809230167
1265+774886750+742377833+712680564+685881245+661718844+640067877+620910125
1255+604144968+589549319+576902830+566170363+557511133+551055625+546690958
1245+544096405+542988500+543279021+544953208+547882496+551856022+556782382
1235+562807057+570150259+578739453+588068802+597507811+606626744+615194430
1225+623091140+630300023+636819437+642597531+647682593+652371412+657088931
1215+662091867+667225355+671909928+675493581+677820216+679535055+681759770
1205+685352739+690431568+696557752+703209430+710028509+716819985+723436593
1196+729667301+735357105+740636693+745780112+750717910+754702191+756442852
1186+755003158+751175319+747656188+747072474+749920356+754834181+760361240
1176+765897889+771409949+776937830+782298037+786944183+790040907+790841201
1166+789386712+787033775+785917034+787521664+791826569+797759187+804125036
1156+810139231+815502588+820200243+824208223+827468169+830191458+832960845
1146+836267231+840025615+843767287+847219772+850467390+853638499+856700153
1136+859550500+862184403+864766387+867516732+870482699+873471063+876221065
1126+878594208+880655974+882631298+884697379+886799214+888737894+890418279
1116+891962839+893622060+895577110+897794838+900106884+902439067+904898788
1106+907609132+910505576+913340717+915920372+918243720+920347678+922152382
1096+923575775+924662241+925507879+926203719+926902504+927827802+929147972
1086+930875757+932929097+935265801+937857511+940553882+943161141+945677233
1077+948245038+950796337+952845978+953680315+952597068+948547101+939586871
1067+924208394+904827211+888931186+884190722+891967292+906798015+921803195
1057+933136089+939954072+942606469+941633636+937299757+929027079+914576502
1047+889507776+849469351+796506484+743416216+708160790+701245750+718995452
1037+748886288+779102133+802989184+818095326+824020136+821139993+810159848
1027+792151714+768806183+742623593+716640939+693555004+675013980+661782887
1017+654206254+652135995+654655649+660322301+667800165+676282780+685465618
1007+695238061+705389486+715528651+725258353+734461945+743356352+752148838
997+760726798+768827074+776408913+783697525+790857298+797679665+803724272
987+808926803+813932616+819590638+826210534+833425720+840585150+847322035
977+854122826+862299475+872915295+885576032+898434444+909280955+916391001
967+918461397+914059503+901143966+877169309+840566451+793436679+742801543
958+697575381+662895723+637660144+618523283+605970152+604786765+617927240
948+641615519+667927634+691028843+709619663+724834711+737869156+749312943
938+759320323+767956983+775399914+781687404+786487665+789259037+789243283
928+785034203+774401532+754871853+725031771+686368244+644623405+608784060
918+587198848+583320803+594501022+614551263+637582060+660195106+681245099
908+700466962+717556305+732195243+744431927+754716575+763587077+771390907
898+778253686+784235141+789451713+793957240+797626238+800447681+802881579
888+805582539+808817622+812415043+816122809+819735779+823067166+826058750
878+828803615+831376694+833823880+836295862+838936067+841645451+844150927
868+846308174+848262402+850393279+853070402+856278498+859547486+862395094
858+864652343+866270604+867146106+867077817+865376061+860910261+853791722
849+846988945+844739435+848676659+856363706+864004245+869743296+873983268
839+877666924+881273113+884903822+888433023+891633790+894533933+897464967
829+900520182+903196690+904884267+905607847+905953952+906346907+906639107
819+905997309+902909216+896421516+888328842+883056241+884172708+891668311
809+903069221+915922907+928600150+939983662+949585895+957775146+965021634
799+970418347+970547666+958991479+927808007+874208479+809421541+757051498
789+736327815+747260835+774714897+803678791+827585296+846174540+860984373
779+873258660+883758040+893082937+901575689+909033209+915054734+919498684
769+922162656+922267248+918379066+908022019+886373792+845598361+778242248
759+685435343+583080112+496973243+448172846+441065540+464238156+501487366
749+541502058+579456663+613826655+644013663+669692884+690063339+703402449
739+708910261+709385137+710501741+716732449+728738442+744404255+760920638
730+775978285+788508402+798772912+807485122+815099153+821843025+827816534
720+833063929+837803640+842296564+846463931+850068476+853240201+856410556
710+859699408+862690992+864980845+866702602+868279697+869913574+871590124
700+873328457+875211861+877355067+879775335+882179437+884212914+885988165
690+887926366+890107038+892271888+894454479+897068039+900223462+903462929
680+906516980+909820627+913820182+918284200+922460403+925289038+925735282
670+923627351+920129111+914712944+900250313+866832947+808613165+732818410
660+664772963+632063630+643036378+684118049+733987686+778045051+811297549
650+833813880+846421190+848369802+836531690+806784967+758761199+701756242
640+654451329+634090874+643945511+673108178+707319947+737812785+762281838
630+781686583+797585553+811103365+822827160+833028244+841772646+848951392
620+854679142+859759067+865125575+870376806+873270099+870603455+858244713
611+830767775+785134274+727952668+676884781+650033544+651824412+670647087
601+691293645+708236614+725867957+748498607+774126046+797481235+815459368
591+828257642+836583609+838388039+827922839+799816774+756914576+713039546
581+685071225+680845774+695240458+717431028+739240972+757622403+772624158
571+784668919+793808538+800625357+806451602+812141954+817416815+821908369
561+826185054+830989561+835869549+839666496+842405882+845578497+850098614
551+854754281+857366540+857395239+856565286+856616041+857569764+858848907
541+860749983+863596631+866492870+868305314+869275133+870588181+872828375
531+875641804+878579482+881624697+884883479+888071164+890506706+891529815
521+890810344+888818307+887227170+887865268+890740753+894038167+896202537
511+897323457+898437115+899832014+900760942+900970673+901144514+901292120
501+900470798+898885483+898185602+899007952+899956812+899286726+896936323
492+894746130+894990040+898495541+903814856+908126885+909587333+909212392
482+909507811+911512520+914329989+916727243+918174197+918720924+918785515
472+919144154+920403227+922519104+925060950+927452107+929042353+929405787
462+928783648+928230483+928745839+929543325+927847049+921419760+909001428
452+888189934+855142647+806796816+745262976+682065531+634928224+617276127
442+629793846+660603884+696298979+730490747+761207974+786868359+806424341
432+820119624+829285613+836190311+842967882+850013337+855591289+857491543
422+855799924+853733296+856090822+863917393+871311008+873581956+870451876
412+863823487+855582316+844929577+829593498+810644861+793551887+783675332
402+782404409+787970306+798304407+811920715+826521022+839142373+848370624
392+854782638+859201861+860622651+857833470+854151115+857653671+871975477
382+889214070+899774958+901662061+897816962+892681214+891063912+893580689
##END=
