##TITLE=STM 178
##JCAMP-DX=5.0
##DATA TYPE=LINK
##BLOCKS=1


$$ === CHEMSPECTRA SPECTRUM ORIG ===
##TITLE=STM 178
##JCAMP-DX=5.00
##DATA TYPE=INFRARED SPECTRUM
##DATA CLASS=XYDATA
##ORIGIN=Rieke
##OWNER=
##XUNITS=1/CM
##YUNITS=TRANSMITTANCE
##XFACTOR=1
##YFACTOR=8.0900681e-010
##FIRSTX=3997.453
##LASTX=373.96442
##MAXX=3997.453
##MAXY=0.8686644469888146
##MINX=373.96442
##MINY=0.5957183858058689
##NPOINTS=2559
##XYDATA= (X++(Y..Y))
2559I55043819I54887772I54679195I54751913I55189550I55686055I55907158I55855216
2551I55775792I55794580I55784192I55624167I55482635I55646491I56018777I56072414
2543I55543565I54895729I54728779I55029452I55405717I55715599I56073887I56493548
2535I56848446I57052677I57082295I56915639I56593084I56287991I56158394I56184623
2527I56310241I56625207I57172180I57771021I58289776I58771472I59089974I58928329
2519I58296555I57590441I57053635I56638174I56274876I56013399I55930882I55982308
2511I56003232I55947385I56008757I56347668I56727764I56728501I56357467I56076613
2503I56216304I56590727I56834816I56880717I56853972I56841152I56903556I57108524
2495I57487662I57995218I58442581I58545286I58191345I57564065I57022765I56903630
2487I57270169I57863705I58295081I58335014I58046865I57539604I56929785I56657698
2479I57163928I58047159I58374136I57750613I56798936I56289243I56420976I57130185
2471I58203796I59204468I59748494I59825117I59559293I58913593I58100502I57755328
2463I58067569I58513826I58754673I58871009I58784218I57968695I56483970I55853890
2455I56639499I57996176I59191132I59908961I60135589I60016676I59689332I59200268
2447I58601280I58112143I58041413I58437866I58976292I59228486I59102794I58939454
2439I59075092I59524886I60023306I60243083I60095730I59998845I60322064I60648008
2431I60492477I60058376I59773838I59611382I59389837I59054979I58644454I58396901
2423I58670167I59552220I60728315I61438039I61094265I60073038I59326255I59495710
2415I60279553I61001065I61371583I61323325I60784309I60031411I59767797I60266438
2407I60882520I60939840I60560112I60283899I60225327I60166681I60050272I59955008
2399I59961713I60121664I60318675I60379605I60437220I60760585I61219220I61366057
2391I61051091I60779961I61178698I62190937I63114396I63088241I61977718I61012264
2383I60974394I61166173I60998118I60767216I60841998I60855923I60444809I59749231
2375I59235486I59144643I59093290I58868429I58906226I59365745I59829759I60051303
2367I60420717I61254953I61962541I61853721I61276762I61121894I61635271I62265572
2359I62297252I61408421I60117023I59526360I59949262I60737377I61225925I61186508
2351I60935935I61074815I61719335I62319060I62416976I62034007I61504422I61173394
2343I61128746I61179141I61172436I61242723I61487181I61782180I61973003I62033933
2335I62103410I62288485I62443573I62433480I62618628I63278400I63958727I63990408
2327I63228595I62383380I62099874I62403862I63003587I63626300I64188892I64663662
2319I64905247I64817351I64595512I64483155I64434381I64100554I63158602I62096484
2311I61747773I62168540I62872000I63315828I63286946I63184021I63567948I64371609
2303I64967872I64956304I64405869I63420006I62228070I61614568I61945964I62622975
2295I63052140I62923501I62115493I60948092I60234536I60411802I61057575I61461616
2287I61349185I61204780I61649564I62563371I63181884I63105408I62650088I62323776
2279I62364077I62604335I62763108I62758098I62595198I62304694I62128018I62349194
2271I62924901I63502818I63820658I64048096I64461126I65036538I65479627I65504972
2263I65123697I64578566I64143507I64112710I64610689I65247915I65346126I64702120
2255I64038887I64137097I64711625I65106162I65130770I64959104I64835623I64882997
2247I64964409I64749200I64100996I63366517I62986568I62953856I62932932I62773201
2239I62717648I63040646I63660412I64237960I64492144I64373819I64065558I63847328
2231I63792366I63644940I63239720I62919375I63049487I63286136I63088241I62689358
2223I62673296I62916355I62856014I62490136I62332101I62593135I62993125I63202955
2215I63069970I62636974I62153731I61880244I61898148I62216061I62781085I63286652
2207I63359444I62993788I62493010I62058540I61680950I61343660I61117694I61126167
2199I61459995I62072392I62802525I63431573I63619079I63122280I62218419I61473404
2191I61083288I60909264I61019042I61636744I62621502I63471947I63826625I63749339
2183I63587251I63612300I63770410I63857275I63870979I63945907I64032551I63972652
2175I63843350I63925204I64299259I64698732I64822361I64699100I64632718I64804752
2167I65098721I65306341I65301994I64975829I64213868I63150129I62284506I62069224
2159I62391411I62705567I62650162I62322155I62020524I61979339I62274855I62769886
2151I63228079I63573325I63867884I64066516I64079114I64025846I64113889I64282019
2143I64244811I63870537I63333215I62934700I62883716I63170980I63592924I63923805
2135I64033730I63860222I63405050I62822049I62402094I62416092I62939784I63755675
2127I64485660I64963009I65334189I65654240I65676785I65247621I64622845I64194712
2119I64086924I64153306I64258442I64427235I64703447I65016130I65318791I65732999
2111I66322263I66852365I66983877I66630894I66027337I65510203I65247252I65167977
2103I65205257I65442420I65862671I66179184I66164375I65940399I65710013I65400352
2095I64823982I64061948I63410575I62926006I62257320I61063542I59408330I57654244
2087I56185874I55297707I55055533I55146965I55102907I54764585I54355829I54095162
2079I53979196I53979122I54179301I54596382I55036598I55251144I55126852I54738062
2071I54323485I54163829I54349125I54711244I55038293I55300507I55612600I56060699
2063I56636037I57299198I58013932I58710173I59303562I59773470I60150840I60467722
2055I60806559I61322146I62099505I63010660I63726498I63905384I63492503I62876569
2047I62593652I62833395I63338225I63794061I64198691I64760104I65480217I66043546
2039I66177268I65916086I65496352I65225149I65359535I65856629I66346650I66519200
2031I66369122I66093056I65978637I66240556I66741776I67118188I67265541I67375614
2023I67536597I67651974I67666562I67632228I67651679I67846921I68220164I68529017
2015I68448488I67882286I67076341I66445966I66261333I66486783I66946890I67569677
2007I68351015I69146572I69645729I69586493I68967391I68091527I67424093I67314610
1999I67732723I68292000I68636437I68761170I68877800I69102071I69404218I69704890
1991I69881345I69852391I69732593I69725741I69866242I70048959I70236760I70463536
1983I70715139I70940664I71087574I71064071I70773124I70257610I69759190I69541403
1975I69649854I69957158I70441212I71168692I71967343I72444692I72425905I72080878
1967I71618559I71133917I70692668I70339686I70095154I70002911I70024057I69958485
1959I69712627I69522321I69620458I69804722I69655307I69129994I68631427I68455340
1951I68420491I68106557I67254858I65898477I64255864I62581790I61068847I59872859
1943I59159083I59036044I59447600I60137357I60731483I61025525I61258416I61831544
1935I62673591I63234268I63219164I62989220I63095608I63629689I64149475I64221383
1927I63910911I63625563I63601176I63781978I64044707I64271041I64324382I64174599
1919I63957106I63836424I63872598I64006690I64118677I64134666I64082798I64045960
1911I64084198I64146160I64042055I63658863I63229626I63173632I63596755I64129140
1903I64366010I64339192I64436297I64902963I65528622I65828706I65493994I64684070
1895I63891461I63489188I63482189I63729667I64185134I64759957I65163997I65117361
1887I64643770I64028941I63574505I63424795I63480641I63412565I62945825I62248994
1879I61842669I62020450I62603450I63315017I64048465I64720982I65259483I65750830
1871I66289035I66769552I67075529I67265394I67392927I67394548I67271509I67186487
1863I67313873I67689253I68175591I68525112I68532111I68177212I67620439I67036482
1855I66456428I65804393I65044127I64198912I63250477I62145700I60858280I59356388
1847I57594272I55581214I53346095I50857530I48124507I45345289I42861144I41005606
1839I39996683I39842773I40309660I41039129I41736328I42296636I42802203I43394856
1831I44112831I44877665I45592620I46181736I46580841I46796712I46930434I47097606
1823I47378534I47853894I48578132I49474773I50309010I50800505I50784222I50319472
1815I49623157I48835041I47929928I46956958I46173779I45747930I45488663I45070992
1807I44371877I43484741I42593183I41909836I41553316I41407290I41229140I40951307
1799I40795555I41002880I41477282I41864377I42012835I42109130I42271513I42316529
1791I42038106I41385850I40303839I38791780I37216212I36171776I35895121I36103552
1783I36444010I36795668I37085289I37174585I37091257I37141578I37611043I38435039
1775I39249384I39746552I39958445I40158034I40479336I40726741I40620721I40173358
1767I39751783I39774991I40332426I41098954I41647327I41838664I41876313I42030886
1759I42369797I42717181I42809866I42487532I41776629I40847865I39892210I39033144
1751I38373814I38077857I38282971I38952321I39928090I41062558I42167334I42976374
1743I43368627I43561511I43921936I44631881I45611187I46676620I47682890I48547409
1735I49206812I49596191I49704127I49640103I49585950I49658374I49829451I49955437
1727I49841165I49353281I48540410I47604131I46721194I45977137I45438563I45093832
1719I44734438I44108779I43242272I42438242I41915803I41595238I41301859I41061748
1711I41062705I41389312I41964504I42757261I43831019I45124039I46375431I47379050
1703I48196341I49041925I50011284I50976886I51740688I52264306I52698849I53191153
1695I53756178I54374690I55090087I55919756I56755393I57435499I57888609I58187440
1687I58506974I58974082I59509192I59927233I60235347I60631725I61127051I61428977
1679I61336439I61040703I60903738I61081298I61465594I61909936I62368424I62797883
1671I63087210I63227121I63399229I63732614I64127372I64446390I64662999I64751779
1663I64671839I64497890I64360926I64284892I64198248I64036235I63769600I63434152
1655I63148140I63013018I62990620I62935142I62753972I62517471I62386916I62463539
1647I62744467I63157202I63558223I63811080I63965211I64228014I64648558I64998963
1639I65101005I65124876I65402415I66014960I66716432I67232608I67496959I67587360
1631I67580802I67548606I67575424I67674224I67741638I67726976I67784738I68097200
1623I68569391I68911470I69021543I69084315I69271600I69543613I69780483I69944560
1615I70052201I70067452I69897553I69512595I69049613I68745846I68746214I69020217
1607I69451223I69919068I70292680I70470093I70478787I70455431I70509141I70672850
1599I70933664I71239053I71544809I71885047I72260207I72488456I72380225I72010444
1591I71610308I71276922I70979565I70735917I70578912I70399953I70001954I69366053
1583I68791010I68640415I68927900I69276021I69328551I69122995I68997082I69179357
1575I69559822I69899912I70146359I70421614I70806867I71265355I71702624I72026504
1567I72223442I72398717I72691213I73174235I73839679I74604512I75300460I75740381
1559I75878745I75907479I76061610I76281976I76268935I75983512I75823709
1552I76117678I76707530I77199393I77376364I77259440I77016234I76870944
1545I76869323I76771555I76437801I76149874I76158863I76149800I75680777
1538I74964201I74600019I74698451I74859433I74881314I74881389I74826574
1531I74562960I74336846I74683421I75624415I76448116I76512067I75939086
1524I75335014I75095934I75171453I75331035I75455180I75531877I75568126
1517I75728372I76351599I77436852I78360901I78563363I78251860I78033704
1510I78209864I78700696I79248332I79550699I79543405I79530365I79771286
1503I80136131I80392820I80570011I80794798I80980831I80974052I80914153
1496I81118974I81540550I81704627I81383766I80988345I81004407I81324678
1489I81463999I81292923I81213279I81564421I82132318I82429675I82290059
1482I81949895I81654011I81447938I81291008I81143434I80998881I81015827
1475I81479914I82390111I83217423I83400950I83051946I82831432I83085984
1468I83468732I83571143I83522074I83636862I83834830I83822305I83616896
1461I83558765I83945860I84735228I85441858I85480759I84816125I84004433
1454I83545723I83572100I84050775I84785402I85401410I85718144I85915376
1447I86181715I86490714I86719847I86741582I86546340I86394788I86578315
1440I87021184I87385660I87494554I87422720I87266747I86996723I86550024
1433I86006366I85550015I85223260I84896211I84549269I84389464I84599222
1426I85126376I85751004I86253182I86541256I86685514I86774736I86720805
1419I86334299I85681748I85219356I85383801I86077464I86778052I87150928
1412I87241771I87043359I86390072I85517229I85200936I85933353I87284503
1405I88372923I88686637I88225570I87162937I85765444I84581540I84181551
1398I84479424I84789895I84750258I84626924I84744143I85005400I85035533
1391I84737070I84389392I84254196I84499906I85266435I86488798I87777176
1384I88640368I88861176I88622317I88183428I87559094I86751234I86119828
1377I86155266I86852391I87642275I88081902I88275007I88530517I88924168
1370I89287394I89458175I89464585I89479173I89612969I89814327I89958216
1363I89932430I89638830I89106739I88618265I88504950I88778953I89157281
1356I89401076I89440346I89263817I88928074I88655545I88725685I89218212
1349I89895002I90359016I90369257I89992623I89433052I88846736I88429433
1342I88500457I89241346I90399169I91417008I91834531I91551246I90862519
1335I90288434I90230303I90759520I91722322I92862316I93845526I94502204
1328I95097508I95989581I96990032I97475190I97146005I96295927I95320232
1321I94363545I93566956I93240202I93514499I94073849I94453798I94425728
1314I94103615I93913972I94338937I95384256I96489033I97156835I97323270
1307I97082569I96650752I96588938I97341247I98505922I99216678I99245190
1300I99038676I98661600I97504145I95456165I93802205I94142589I96434881
1293I98868189I99938927I99856262I99509909I99192070I99024161I99405142
1286A000260818A000817001A000717906A000601056A001272026A002819965A004587902
1279A005747641A005958650A005437317A004485861A003343215A002409515A002137722
1272A002793883A004307490A006039179A007082067A007125241A006390246A004837444
1265A002690369A001477509A002740690A005842168A008803514A010915962A012295993
1258A012011160A009420774A006273174A005234265A006692024A008624554A009227374
1251A008221766A006249377A004408132A003713217A004121016A004757358A005253863
1244A005809308A006162734A005730033A004520931A003022207A001528862A000194952
1237I99432623I99645105A000567680A001361837A001543007A001447744A001594728
1230A001974014A002222450A002171465A001939975A001690581A001490108A001330229
1223A001212495A001344155A002162994A003825942A005667408A006674637A006626600
1216A006251293A006172901A006301466A006357091A006392530A006550345A006705876
1209A006684140A006623726A006779257A007051197A007059301A006602508A005830233
1202A005138928A005052874A005895289A007368520A008574012A008536437A006983267
1195A004937791A004131330A005282744A007372646A008897525A009318217A009115018
1188A008934953A008982990A009127027A009333026A009737214A010310416A010833370
1181A011272776A011798751A012432589A012905959A012899844A012464048A012146651
1174A012441282A013231019A014146816A015143804A016296101A017405667A018124895
1167A018237325A017798288A017161945A016679955A016275030A015625794A014857129
1160A014695336A015570610A016813898A017314308A017082522A017521780A019573813
1153A022038507A022732538A021186220A019185612A018570784A019172130A019344238
1146A018171311A016412436A015520879A016301185A018142725A019375329A018888771
1139A017339432A016239665A016113826A016464599A017256251A019036197A021344697
1132A022508194A021771725A020301956A019589064A020080706A021589524A023879310
1125A026301198A027769641A027745916A026747381A025664782A024914905A024383330
1118A023855881A023155367A022086323A020753224A019786075A019669224A020000178
1111A019952067A019271814A018319178A017414876A016669493A016256316A016360568
1104A016855746A017276365A017305098A017170934A017264503A017509403A017582784
1097A017692267A018507717A020107156A021571473A022172451A022315530A022729960
1090A023395551A023815359A023831347A023590278A023254903A023077638A023353924
1083A024058491A024735134A024861637A024337430A023634556A023342210A023508424
1076A023579374A023055977A022105405A021319132A021035994A021199555A021689724
1069A022494269A023485363A024241429A024362774A024028873A023943556A024520956
1062A025439554A026216102A026815016A027424909A028073335A028694794A029223717
1055A029522106A029559532A029609854A030063701A031073656A032305966A033111911
1048A033111690A032588367A032197145A032317828A032734909A032985188A033001028
1041A033191260A033756800A034225381A034141243A033885144A033990059A034451199
1034A034994194A035534978A036206316A037059562A037989431A038824994A039356420
1027A039468113A039271766A038970210A038672484A038411449A038207144A037950088
1020A037427870A036639975A035872784A035403980A035286689A035301203A035120254
1013A034665301A034189647A034043327A034478901A035535051A036973361A038452044
1006A039774166A040934568A042161058A043815312A045831244A047585256A048873339
999A050016869A051134096A052100656A052977405A054082181A055585473A057220055
992A058527147A059346501A059859509A060374507A061226573A062512594A063888056
985A064959458A065586075A065835764A065915556A066160898A066824722A067837624
978A068961998A069865784A070266069A070345860A070598496A071277424A072218933
971A073136204A073741822A073682881A072665559A070328694A066012439A059466152
964A051381575A041384141A026234005A003213323I76704362I51248162I25127696
957H97824062H71684882H48174990H28130020H13284684H04365723H00300117
950G99906758H02422510H06793211H12154121H18568529H26445853H35701441
943H45989161H57350418H69154617H79533989H88097388H96600225I05577463
936I13035644I18949863I25031180I31043536I35996943I40088557I43773552
929I47046180I49954479I53001806I56490306I59574544I61648016I63260570
922I64979734I67251027I70482544I74308998I77662302I80416616I83457460
915I86973810I90019663I92276368I94232769I96255700I98316279A000272975
908A002088581A003700766A005017435A006195299A007814556A009783925A011402667
901A012885109A014714860A016718561A018303413A019578455A020872801A022115425
894A023067765A023723778A024405727A025337586A026237910A026956254A027759326
887A028978816A030664310A032610249A034623454A036268057A036767730A035702518
880A032561844A025395053A011951188I93083934I69964379I40558465I03327903
873H62013465H25690008H02699165G95469823H01092653H14331476H30113461
866H45288498H58976233H71475568H83103312H93785495I03347060I11930499
859I19950828I27733849I35326930I42585742I49369416I55598012I61126978
852I65854640I70050727I74091579I77451072I79117777I78781666I76243810
845I71933599I68162624I66855238I67558331I68863728I69706585I69550539
838I68132638I66427326I66149787I66751428I67118041I66869310I66565764
831I67345038I69855116I73827376I78632914I83422979I87126762I89016854
824I88922622I87482618I85427565I82540190I78194981I72406528I65878290
817I58335308I48375301I35408048I21550195I10236754I03849901I03770773
810I08963848I16347468I23482946I27812461I27264899I22487800I16193632
803I11366065I10517092I15291907I22718996I27465372I29797375I31965595
796I35573230I41579103I49831735I58446265I65343547I70293564I74160908
789I77463302I79652299I79792505I77808991I74090989I68851277I62365035
782I55068721I46778293I36409677I23086715I07271577H91790635H82055340
775H80734766H85000183H91744145H99894809I08833367I17011955I23248803
768I27846205I31766817I35681682I39280549I42123496I44364510I45531985
761I44173393I38746322I29141214I17335983I06042877H97759964H94838550
754H98123925I06447286I18476272I32402349I44620756I53440032I60280879
747I66504981I72113591I76633117I80243552I83575932I86935940I90193833
740I93424835I96934406A000251683A002337680A002984264A002392864A000365291
733I96400990I90079046I81054728I68956266I54621064I41583597I33815902
726I32585287I36774596I43877141I51234532I57501955I62349931I65822075
719I68394926I70767230I73491706I76629507I79725902I82501362I85101252
712I87504132I89196035I89577236I88401509I85638426I81168116I74681284
705I65445957I52287587I34838014I14816841H94722435H76046889H60058317
698H48308270H41022934H36989009H35135091H35074603H36677137H39644082
691H43529771H48000598H53031880H58970339H66140518H74221337H82455992
684H90512645H98585286I06707805I14593971I22099010I29268305I36076587
677I42365155I47952178I52788439I57020849I60846492I64313552I67333103
670I69984787I72770415I76260241I80347214I84003844I85457551I82479186
663I74022176I62775559I54839883I55368805I64420751I77500435I89654596
656I98253728A002788948A003597250A001005760I95069732I85770085I73408820
649I58769041I42836831I26380782I09979476H94587093H81826060H73254998
642H69099358H67739589H66487755H62729231H54426204H40303706H20403658
635G96715911G72984179G53368153G40827854G36357690G39184209G47437504
628G58878921G71266710G82471110G91018299G96838582H01036364H04612981
621H07681968H10154619H12729091H16648966H22662647H30588157H39647470
614H48818552H57011064H63286077H67045116H68069880H66514941H62960133
607H58417398H54073884H50753882H48576157H47310398H47139985H48824594
600H52811734H58283454H63437922H66842359H68467806H69670498H72504753
593H78697026H88558896I00758443I13339043I24849200I34498514I41598111
586I44945962I42485542I31672143I11021995H82409502H52157784H28882550
579H18809450H22328158H34710053H49675996H62041019H68013664H65356234
572H55197669H43166105H36395030H38123624H45766953H54243855H60069737
565H62465912H62363723H61301752H60600133H60771504H61525949H62351861
558H63061732H63794370H64669055H65724026H67222602H69670056H73354756
551H78103048H83590460H89653506H96157798I02751092I08915369I14244672
544I18629518I22215861I25219128I27754920I29792954I31217928I31860238
537I31424516I29389798I24959345I17085115I04724955H87571192H67066703
530H46801074H31371189H24040027H24879495H30881389H37771451H41918323
523H41170582H34845764H23853184H11064374H00714398G96199587G97838443
516H02588871H05760490H03608110G95833121G86379270G81047757G83430302
509G92891520H06089307H19811153H32486722H43903900H54196997H63252407
502H70883947H77195061H82520827H87134438H91132410H94464864H96964554
495H98453184H98880507H98270467H96620928H94112839H91480678H89908794
488H90345400H92923776H97061660I01983532I07095417I12027457I16564371
481I20668068I24526497I28450645I32632366I36979711I41210942I45134133
474I48781479I52215827I55288645I57736909I59502489I60786961I61734734
467I62093316I61025673I56760551I46246277I26443260H98116410H68640798
460H48712974H44418750H52946562H66238139H77548707H84598426H88810943
453H93070540H99422691I07852588I16954782I25423285I32681656I38647227
446I43530862I47768577I51717701I55224178I57429163I56974728I52684040
439I44664814I35044013I27038639I22417292I19612729I14700139I04915040
432H92029567H82302819H81952783H91852891I07057473I21556163I32502622
425I39510124I40936277I32326462I10196085H78501342H49619709H35421029
418H36898828H45013023H51536251H56131148H62805853H73097921H84596363
411H93927027H98786422H97843954H91053356H80830249H71740655H67975427
404H70977737H79283932H90078544I00827993I10094927I17542793I23551760
397I28723837I33342458I37034968I39052079I39128186I38186234I38029672
390I40042583I44146059I49110296I53678375I57242615I59822096I61784907
383I63499797I65090101I66526200I67817819I68932468I69640866I69722647
376I69400755I69425952I70548411I72868184I75771473I78466479I80518216
369I81994764I83258534I84558184I85727206I86323616I86000766I84468668
362I81148297I75596197I68756897I63060171I60273143I59684543I59421445
355I59018067I59467787I61101117I62368792I60449229I53125287I41579176
348I31513296I29424573I36873691I49536145I61785791I70662314I75679672
341I76949557I74338984I67664204I57308039I44969466I33838005I27484602
334I27863666I34030964I42854513I51071707I56849846I59653009I58772283
327I52772672I42032138I31727695I29487934I38552700I54690909I70412036
320I80610828I83895613I80514238I70561378I54373806I34130500I13785005
313H96427675H82088789H68711748H54980398H41552594H29102474H15752546
306G98534389G78572748G62553306G56323752G58228580G61536941G62836076
299G65396033G74318015G90436846H08710195H21236864H23555531H20076387
292H21511234H34827935H57260311H81026450I00981682I16383127I28255919
285I37331073I43687571I47193386I47917477I45919963I40645845I30427160
278I12902658H87796789H60543623H41162477H37049349H47344952H65150602
271H83503375H98039639I06050318I05967506H98333165H85979194H72402490
264H60071579H50219434H43252159H38320634H32840737H23974897H11671099
257G99878467G93833914G95906282H04279743H15270703H26235360H36418680
250H45866784H54244887H60950390H66049602H70401220H74284993H76331574
243H74977993H70756340H65817153H61761419H59799860H62015823H69241628
236H78095533H83503227H84563209H85597403H90794457H99035816I04876286
229I05037342I03077552I05872905I16095200I30294616I43467058I53108415
222I59395879I63657391I67101096I70241548I73038818I74989472I75102197
215I73015978I70430381I70039823I72682814I76927675I81349875I85413861
208I88392300I89827957I90504158I91398073I93048275I95360385I97694599
201I99473071A000641062A001414000A001745691A001185088I98874672I93744811
194I85855035I77901160I73928238I75464832I79480633I80668075I75389461
187I64185134I52178841I46592703I51471107I64416257I79317588I91467991
180I99642821A004787934A008145290A010406048A011778564A012383667A012488583
173A012487772A012710054A013136640A013441954A013482476A013543701A013915398
166A014424060A014623059A014386116A014104010A014162214A014428996A014548866
159A014526249A014575685A014560582A013986791A012527778A010334876A007576214
152A003685220I97523154I88387732I76467640I62885484I50506610I43665321
145I44988548I52784091I62594757I70993121I77026843I80725247I82022908
138I81004481I77748944I71830231I63031879I52481798I42070302I33116567
131I26942270I26023084I32254333I43941092I56214756I64422888I66260891
124I61827861I53423971I45022144I40383557I40944971I45615460I52355075
117I59581175I66260670I71434295I74399988I75288893I74982178I74351509
110I73638396I72558301I70943390I69007913I66799170I63943550I60433389
103I57611365I57769179I61913988I68271075I73763351I76585080I76824013
96I74631037I68892020I59007236I47472030I39264045I37994455I42903877
89I50802789I59308646I66658080I71310298I73653941I76111562I80168402
82I84771551I88151010I89580036I89334473I88151599I86773705I85447531
75I83803297I81346707I78117400I74742951I71738210I68965328I66219927
68I64065189I63494198I65183743I69370474I75829530I83417380I90294254
61I95116811I97727311I98888965I99685480A001286688A004529035A008435427
54A010069789A007604358A003044015A000444493A001377530A003743130A005177829
47A005719276A006412865A006989160A005799878A001893412I96161247I90092381
40I84206601I77704371I69368190I59302015I49685045I42001121I34055350
33I23040446I13413898I13007205I21708967I34761685I47473724I57181463
26I64732476I72429515I80564633I87111216I90381266I91041258I91226186
19I92527457I94725148I95736871I93928412I90144986I86857475I86148709
12I88317003I92338846I96334976I96420293I89031589I77947724I71521380
5I72785961I77473248I79199926I77853639I81279367
##END=


$$ === CHEMSPECTRA PEAK TABLE AUTO ===
##TITLE=STM 178
##JCAMP-DX=5.00
##DATA TYPE=INFRAREDPEAKTABLE
##DATA CLASS=PEAKTABLE
##$CSTHRESHOLD=0.93
##MAXX=3997.453
##MAXY=0.8686644469888146
##MINX=373.96442
##MINY=0.5957183858058689
##NPOINTS=180
##PEAKTABLE= (XY..XY)
3994.6199362157936, 0.772341970120318
3986.1207448631744, 0.7732291253701503
3980.4546172947616, 0.7729919585517444
3971.9554259421425, 0.772382083913985
3954.9570432369037, 0.7735386521846632
3932.2925329632526, 0.7733545934273065
3928.042937286943, 0.7733679444666919
3919.543745934324, 0.7734724907987346
3911.0445545817042, 0.7740910080562452
3896.8792356606723, 0.7741415531837204
3885.5469805238467, 0.7739425925209235
3877.0477891712276, 0.7736445099167448
3862.8824702501956, 0.7748305826657838
3851.5502151133696, 0.7732923063749909
3835.9683643002345, 0.7750620273790225
3828.8857048397185, 0.7757885486636817
3820.3865134870994, 0.7766456040061412
3806.2211945660674, 0.7753496204009026
3796.3054713213446, 0.7761014733067966
3784.973216184519, 0.7764586837916976
3772.2244291555903, 0.7766101387656045
3758.0591102345584, 0.7772775321695412
3748.1433869898356, 0.7774348289816232
3743.893791313526, 0.777267220568741
3732.5615361767004, 0.7757310897640083
3718.3962172556685, 0.7775541574860981
3709.8970259030493, 0.7762633596145116
3702.8143664425334, 0.7774037153887174
3691.4821113057073, 0.7775597008007603
3688.649047521501, 0.7775950463082892
3675.900260492572, 0.7786152394919988
3665.98453724785, 0.778345349966142
3646.153090758405, 0.7780604986683409
3639.0704312978887, 0.779222432272183
3627.738176161063, 0.7779527341072081
3617.822452916341, 0.7768362788211902
3610.739793455825, 0.7776212128245519
3602.2406021032057, 0.7785264882089146
3592.3248788584833, 0.7783681186538026
3573.9099642611413, 0.7799737488065619
3566.8273048006254, 0.7799140246878206
3558.328113448006, 0.7805585895375927
3544.1627945269743, 0.7788451341481897
3528.5809437138387, 0.7790083318559438
3521.4982842533227, 0.7788092522691458
3515.83215668491, 0.7785332231906078
3505.9164334401876, 0.7781676678004616
3490.3345826270524, 0.7775507596574962
3474.7527318139173, 0.7773821383680879
3464.8370085691945, 0.7795486480881794
3453.504753432369, 0.7797558339232136
3445.00556207975, 0.7803944380108097
3432.256775050821, 0.7783205539074155
3423.7575836982014, 0.7782478363302986
3412.425328561376, 0.7799034744300113
3402.5096053166535, 0.778979483482106
3391.177350179828, 0.7785898480042602
3374.1789674745896, 0.7799528869479525
3352.9309890930413, 0.7808274661869234
3326.0168831430806, 0.7726464301251798
3316.1011598983578, 0.7717756062958209
3304.768904761532, 0.7719250355166756
3272.1886712431588, 0.7787448197307701
3256.6068204300236, 0.7808737187242647
3246.691097185301, 0.7814832956475181
3233.942310156372, 0.7828210620274727
3221.1935231274433, 0.7817119986366777
3205.6116723143077, 0.7825641069024941
3188.6132896090694, 0.7845147283012962
3171.614906903831, 0.7843655976039545
3151.7834604143864, 0.784738960718824
3146.1173328459736, 0.784350160136006
3123.452822572322, 0.7758666906314596
3109.28750365129, 0.7790648369365882
3099.3717804065673, 0.7795599135080086
3089.456057161845, 0.7797502307420475
3080.9568658092257, 0.7799197467929876
3072.4576744566066, 0.779214027500434
3066.791546888194, 0.7801569734778976
3054.042759859265, 0.7794636522147071
3041.2939728303363, 0.779417220077854
3034.2113133698203, 0.778137269369576
3012.963334988272, 0.7824604545229765
2976.1335057935885, 0.7603392036862842
2920.888762001564, 0.7611100108127296
2901.0573155121187, 0.7571455271437808
2892.5581241594996, 0.7581132085044602
2875.559741454261, 0.7602655921566422
2851.4786992885065, 0.7589113746232062
2824.564593338546, 0.7682215002303195
2797.6504873885847, 0.761325362762504
2748.0718711649724, 0.7773776677964558
2708.408978186083, 0.778577568898898
2681.494872236122, 0.7827534112600069
2675.828744667709, 0.7828977138047066
2653.1642343940575, 0.7837219865732113
2641.831979257232, 0.7851050524804851
2613.501341415168, 0.7836366921762262
2606.418681954652, 0.7839252382081284
2572.421916544175, 0.7894480259404584
2556.8400657310394, 0.789711895646642
2549.7574062705235, 0.7884580523971294
2539.841683025801, 0.7882451444569281
2529.9259597810787, 0.7888592510093105
2512.9275770758404, 0.7912359269455242
2504.4283857232213, 0.7924467358867857
2493.0961305863957, 0.793566229802382
2486.0134711258797, 0.7936262516356295
2478.9308116653638, 0.79380822477343
2464.7654927443314, 0.7936347753313796
2454.849769499609, 0.795117321570052
2449.183641931196, 0.7956760556513239
2442.10098247068, 0.7957057389201897
2432.1852592259575, 0.7956951886623804
2415.186876520719, 0.7980001008405063
2395.3554300312744, 0.7963777808772566
2379.7735792181393, 0.7970491683478144
2367.02479218921, 0.7970342664423742
2354.2760051602813, 0.7962095770353623
2348.6098775918686, 0.7965698868253525
2340.110686239249, 0.7962683473350748
2324.528835426114, 0.7977776563280288
2297.614729476153, 0.7997072370777163
2287.6990062314308, 0.7998290686492615
2274.950219202502, 0.7996461425014387
2262.2014321735733, 0.8011030585953635
2240.953453792025, 0.8035380873837756
2232.4542624394057, 0.8040831719021494
2221.1220073025797, 0.8062472376126678
2208.373220273651, 0.8039927516380161
1718.2531856059418, 0.6471300153960288
1604.9306342376854, 0.6435405039564946
1566.6842731508991, 0.7821924718261708
1556.7685499061763, 0.7816217571630495
1551.1024223377635, 0.7819582853888529
1521.3552526035965, 0.7311567100359642
1508.6064655746677, 0.7366145280493965
1470.360104487881, 0.7125204234977565
1442.0294666458167, 0.7239304808005256
1400.950041774824, 0.7544678480888045
1355.6210212275214, 0.6755810406850464
1308.8754687881155, 0.7724719678066033
1266.3795120250193, 0.5957183858058689
1225.3000871540262, 0.6853420168882979
1192.7198536356527, 0.6624224211423545
1179.971066606724, 0.6766492751201544
1168.638811469898, 0.6962313682839057
1120.476727138389, 0.6666539935555839
1106.311408217357, 0.6441308880021875
1096.3956849726346, 0.6318729543482252
1065.231983346364, 0.7199422746248871
1022.7360265832681, 0.6831405192416875
981.656601712275, 0.7135058075454522
966.0747508991399, 0.6758613016782076
946.2433044096947, 0.702198031355658
926.41185792025, 0.7588723926300663
905.1638795387021, 0.7842518124141415
875.4167098045345, 0.7758521471160363
864.084454667709, 0.7519108089383422
847.0860719624702, 0.7503413591881397
831.5042211493351, 0.7519620684188306
801.757051415168, 0.6118710659327512
787.5917324941356, 0.6634473826122023
760.6776265441749, 0.6771786236470667
735.180052486317, 0.6422170424349544
711.0990103205627, 0.6955839419770466
695.5171595074276, 0.7305958895261292
674.2691811258792, 0.7847688227781947
644.5220113917121, 0.7879145769933008
634.6062881469898, 0.7657999430233075
579.3615443549647, 0.763431671049836
556.6970340813132, 0.7491589811732021
543.9482470523844, 0.7607767016250232
518.4506729945265, 0.7747141156183956
501.45229028928816, 0.7588439018372386
467.4555248788115, 0.7794733675774884
416.46037676309606, 0.7386290464240661
390.9628027052381, 0.7978010212537083
381.04707946051576, 0.7859674124805979
375.380951892103, 0.7910902531342816
##END=

##END=

