##TITLE=LIS-P257
##JCAMP-DX=5.0
##DATA TYPE=LINK
##BLOCKS=1


$$ === CHEMSPECTRA SPECTRUM ORIG ===
##TITLE=LIS-P257
##JCAMP-DX=5.00
##DATA TYPE=INFRARED SPECTRUM
##DATA CLASS=XYDATA
##$CSCATEGORY=SPECTRUM
##ORIGIN=Angelika Moesle
##OWNER=
##XUNITS=1/CM
##YUNITS=TRANSMITTANCE
##XFACTOR=1.0
##YFACTOR=9.3630925e-10
##FIRSTX=3997.453
##LASTX=373.96442
##MAXX=3997.453
##MAXY=1.0053544009867628
##MINX=373.96442
##MINY=0.3954754752336835
##NPOINTS=2559
##XYDATA= (X++(Y..Y))
2559A042554954A042631982A042499571A042497406A042750451A042918002A042582455
2552A041837197A041263246A041246122A041522085A041535326A041137711A040753146
2545A040887594A041599621A042381037A042558837A042017416A041484398A041791999
2538A042868157A043832402A044107410A043971561A043937758A044001799A043772563
2531A043136608A042462585A042180511A042341187A042666612A042944739A043246611
2524A043681594A044052981A044026881A043565734A042959317A042452145A042082349
2517A041920400A042104820A042611165A043201349A043555549A043431477A042926915
2510A042477990A042387467A042474871A042385939A042178983A042151101A042196044
2503A041924410A041438373A041359690A041915625A042701497A043192246A043058371
2496A042322344A041481152A041218367A041678622A042264987A042618231A042990383
2489A043341654A043207715A042472388A041539591A041031336A041371149A042189996
2482A042643186A042361812A041696511A041377324A041766790A042622433A043372592
2475A043486415A043007316A042354555A041844200A041652013A041942808A042583346
2468A042840656A042277846A041411572A040966086A041129117A041624639A042208648
2461A042635419A042645350A042367414A042419551A043064036A043494627A043406459
2454A043261571A043267491A043311670A043191227A042754016A042039315A041317739
2447A040885811A040821452A040965385A041216266A041694474A042470097A043262080
2440A043697254A043816296A043934257A044134719A044305708A044474850A044587845
2433A044273687A043540780A043069511A043443190A044270632A044748585A044608980
2426A044179026A043987985A044130709A044168077A044022488A044229508A045047655
2419A045906353A046328732A046345792A046066965A045592386A045101956A044745529
2412A044564992A044578042A044769274A044942936A044861389A044626295A044590965
2405A044931987A045478946A045903425A045960718A045681000A045441896A045612757
2398A046023805A046211854A046174804A046170984A046150995A045978607A045866821
2391A046190719A046862832A047344031A047479116A047590965A047809316A047750750
2384A047214103A046698209A046543327A046730357A047092578A047134402A046495264
2377A045388295A044405207A044402024A045947350A048299046A049830430A049763461
2370A048586913A047399033A047173616A047960125A048797306A049040866A049028707
2363A049071741A048969759A048614923A048122583A047418258A046345665A045302546
2356A045123728A045937801A047156046A048248437A048860838A048745042A048027794
2349A047335628A047115113A047239821A047460337A047687409A047818419A047676269
2342A047355745A047332318A047742665A048138880A048205594A047975530A047626933
2335A047328817A047162603A047169160A047494076A048199547A048949897A049434025
2328A049599539A049523530A049343883A049168439A049050860A049024697A049120758
2321A049355979A049726157A050227727A050778188A051117045A051036707A050575624
2314A049943807A049432879A049263864A049447330A049805540A050111613A050262167
2307A050301826A050225881A049903447A049303906A048601554A047924539A047216140
2300A046565416A046559178A047642529A049099878A050083985A050401580A050212831
2293A049931139A050003965A050363257A050523678A050334547A050093088A050142615
2286A050501143A050884626A051083115A051160397A051221383A051269764A051317190
2279A051278230A050872849A050039614A049259981A049116429A049625193A050211303
2272A050378345A050218433A050375034A051286188A052326123A052610361A052036793
2265A051053004A050117660A049413081A048985801A049021450A049617490A050347215
2258A050523360A049926174A049016230A048470735A048416943A048374227A048025375
2251A047467276A046898290A046346811A045704745A044935679A044181955A043705084
2244A043625383A043660777A043385515A042750579A042127738A041726112A041272350
2237A040478202A039423370A038293802A037023357A035392664A033354680A031022018
2230A028482337A025841692A023184623A020263687A016528295A011672058A005873155
2223I99287362I91554559I82042928I70359502I56376898I39960479I21039644H99958155
2215H77698017H55834539H35978616H19102959H05674508G96091643G90408091G88103566
2207G88673188G91890712G97408050H04773413H13776407H24160232H35179566H45931404
2199H55917932H64985732H73001946H79873123H85670624H90511393H94337244H96793277
2191H97359653H95832788H92624749H88225330H82498935H74801972H64455706H50945771
2183H34279744H15533654G96721041G80031459G67502385G61152895G62540155G71845212
2175G87619884H07355810H28494146H49481675H69787605H88820097I05578685I19604831
2167I31412392I41749682I50844728I58410808I64241222I68642997I72188556I75227771
2159I77830348I79993931I81723232I83032064I83932586I84396216I84374126I83798074
2151I82501401I80281734I77063128I72831832I67527434I61112056I53503070I44241429
2143I32471617I17520694H99437614H79002647H57601780H37316285H20797438H10480582
2135H07515085H11307451H20069241H31658452H44092801H55916150H66351093H75053362
2127H81844519H86653140H89482343H90433538H89784151H87876159H84925940H81097479
2119H76698696H72120903H67598940H63173101H58967524H55430431H53097259H52117609
2111H52275929H53448658H55670680H58829065H62700878H67140785H71836283H76189041
2103H79920167H83501184H87531254H91934557H96165789H99981645I03564255I07049656
2095I10421363I13808793I17405217I21049448I24319300I27098594I29636239I32000348
2087I33912987I35265744I36428096I37827643I39464128I41040965I42372460I43425191
2079I44083681I44173632I43722607I42957360I42002791I40816185I39511618I38472637
2071I37959099I37784163I37552126I37034959I36169322I34880925I33138255I31067806
2063I28847247I26597597I24456422I22482161I20383446I17729624I14589700I11535907
2055I08860059I06256018I03420003I00520520H97942070H95869137H94170775H92526841
2047H90672196H88536877H86179707H83798091H81772902H80343373H79239714H77989194
2039H76522296H75122113H73877959H72556777H71030486H69575556H68613030H68262650
2031H68308357H68578781H69185644H70360346H72201432H74639959H77560322H80850672
2023H84355936H87913209H91506513H95280036H99292917I03390720I07435622I11459389
2015I15423953I19076715I22246622I25054754I27688078I30200704I32632420I35054587
2007I37415450I39622003I41828556I44355824I47241047I50092468I52490317I54420526
1999I56230801I58182717I60145138I61839553I63326121I65004049I67079019I69258326
1991I71088081I72451214I73649279I75078236I76909455I79033378I81162395I82991895
1983I84452872I85854265I87570451I89543821I91310935I92572405I93489097I94399168
1975I95498816I96813759I98218016I99463125A000452134A001472908A002904730
1968A004757147A006668895A008189839A008980358A009082404A009099910A009734846
1961A011078754A012651517A014022735A015061652A015731601A016056199A016241511
1954A016567255A017166287A018059871A019268376A020639403A021713842A022132146
1947A022124252A022210574A022525878A022805151A022853468A022635308A022115404
1940A021402039A020855335A020792821A021288981A022278435A023492160A024376704
1933A024593654A024523502A024821427A025642757A026690586A027721355A028627925
1926A029330849A029898944A030505870A031069062A031198991A030701494A029954836
1919A029528829A029483504A029325120A028728698A027978093A027513126A027368238
1912A027311390A027297322A027487090A027916216A028413776A028854615A029205314
1905A029281895A028868047A028215478A027961414A028341650A028939218A029359432
1898A029625464A029788750A029717133A029405903A029024140A028578844A027996172
1891A027515545A027512553A027883941A028047736A027630068A026845087A026192135
1884A026042154A026438751A027046186A027358434A027178406A026810775A026640932
1877A026671934A026643160A026439005A026182905A026030823A025938708A025582026
1870A024630640A023206521A021805766A020651243A019454006A017954388A016292375
1863A014636664A012727017A009996676A006010023A000631462I93874807I85720262
1856I76004922I64460846I51082304I36482016I21554647I06798712H92447395H79268424
1848H68644286H61570228H57724643H55594926H53575722H51208938H49593906H50530905
1840H55027596H62422496H70833461H78428824H84330981H88611422H91953718H95505580
1832I00562471I07855263I17107865I27367936I37636092I47130981I55268147I61722102
1824I66533396I70021281I72519775I74140473I74723209I74069620I72291748I69883968
1816I67416476I65224182I63361007I61720574I60143419I58459444I56560555I54536958
1808I52704848I51444906I51100892I51957299I54022083I56836008I59780562I62554700
1800I65189043I67771503I70340340I72879640I75298306I77503840I79514387I81454590
1792I83448713I85460596I87236050I88550802I89512819I90438041I91471038I92516831
1784I93471145I94293112I94913279I95295170I95584055I96002805I96565743I97037012
1776I97192404I96998625I96513161I95753007I94769473I93760094I92899231I92029202
1768I90773270I89093242I87529137I86742119I87035014I88375167I90596934I93436960
1760I96552629I99645445A002568800A005309199A007846461A010021758A011633735
1753A012713203A013577376A014480508A015310623A015812257A016070141A016537017
1746A017496806A018669662A019474632A019627032A019388373A019248260A019449041
1739A019863525A020248727A020488658A020622406A020759910A020959608A021140018
1732A021198267A021228823A021446474A021866815A022255772A022442039A022508181
1725A022617292A022798848A022994218A023183922A023362104A023483884A023548180
1718A023626990A023708665A023643287A023386932A023201747A023430665A024099723
1711A024876937A025391749A025467376A025113431A024517263A024012574A023814021
1704A023806063A023761184A023655955A023607192A023654300A023731773A023757682
1697A023733174A023814721A024141738A024539035A024637706A024369892A024100105
1690A024166947A024496065A024771200A024853447A024905266A025140041A025578334
1683A026048011A026347209A026416597A026386741A026425764A026562059A026734257
1676A026922115A027107554A027188910A027086292A026868641A026703446A026737567
1669A027042176A027570356A028141824A028562674A028799232A028955006A029083279
1662A029165718A029283105A029604902A030121878A030572012A030709770A030536999
1655A030246650A030050898A030051916A030168858A030203744A030075088A029963048
1648A030112011A030512745A030903485A031088669A031131130A031221462A031476608
1641A031847868A032139300A032160498A031943675A031723415A031676180A031783891
1634A031929288A031994921A031915793A031755753A031654599A031652307A031724560
1627A031959272A032447028A033034093A033472068A033765600A034124828A034637857
1620A035167693A035503176A035544746A035407624A035311753A035326013A035347530
1613A035333334A035354023A035425130A035500630A035617253A035838978A036080183
1606A036156765A036024354A035850946A035811987A035884813A035913141A035831212
1599A035724519A035684350A035712233A035784422A035892834A036019452A036173634
1592A036438074A036838554A037202175A037345790A037387423A037632957A038116766
1585A038452695A038244848A037552491A036852941A036573414A036771139A037275638
1578A037939412A038610061A039053256A039168160A039210494A039568003A040297537
1571A041033755A041372868A041231353A040841314A040531612A040509841A040732966
1564A040990594A041114921A041031909A040726727A040353048A040215099A040428930
1557A040772116A040972451A040914776A040604884A040196638A039937863A039897185
1550A039927423A039943911A039986753A040069319A040204659A040434659A040662750
1543A040663195A040375392A040023548A039914628A040241836A041034519A042117107
1536A043082497A043484632A043222038A042677562A042325972A042260212A042231566
1529A042054020A041785824A041581606A041551813A041754313A042144607A042526880
1522A042679153A042531337A042139706A041607579A041170240A041164066A041646475
1515A042209922A042406947A042229274A041997173A041961333A042134867A042313304
1508A042193243A041698038A041185073A041064248A041284063A041516164A041686389
1501A041909132A042117489A042220489A042353282A042557055A042575325A042304264
1494A042023273A041979794A042223354A042854789A043885940A044911679A045470989
1487A045608174A045572525A045186178A044146687A042840847A042143589A042322789
1480A042770440A042997194A043273348A044006319A045007805A045701371A045724543
1473A045099919A044090795A043090200A042471561A042371234A042683928A043305432
1466A044179981A045071718A045588567A045605309A045405356A045282494A045277083
1459A045376200A045636502A046014383A046335289A046509078A046578912A046551284
1452A046397356A046261317A046437844A047012176A047681043A048068854A048113352
1445A048030532A048034224A048153521A048183186A047833188A047139940A046640853
1438A046789688A047291258A047459382A047152354A046848827A046856148A046985821
1431A046999254A046908030A046783831A046584260A046260362A045914311A045763884
1424A045878534A045998977A045804180A045358057A045077702A045238887A045694496
1417A046112036A046382969A046769890A047669521A049179070A050883098A052144122
1410A052630669A052487372A052055954A051586659A051102340A050413357A049548357
1403A049143293A049706486A050525143A050344160A049081926A047784043A047125935
1396A046948836A046922290A046922608A046979074A047170815A047470713A047693457
1389A047706698A047501652A047082838A046574265A046291619A046354514A046414162
1382A046123304A045642168A045293252A044999720A044494585A043867733A043459551
1375A043285061A043091728A042939455A043108789A043493608A043631621A043335734
1368A042948368A042926660A043342927A043812413A043890969A043526838A043037809
1361A042680617A042431646A042232139A042236722A042636311A043330959A044031273
1354A044641383A045257157A045794695A045993375A045852498A045780117A046189955
1347A047036940A047826504A048121119A047949175A047581289A047136057A046681467
1340A046472792A046725901A047262229A047545704A047146497A046258325A045633892
1333A045826016A046701265A047816064A048880763A049693818A050025227A049814961
1326A049303205A048882418A048888593A049419320A050198507A050763864A050987626
1319A051153204A051229913A050598096A049077406A047612164A047199971A047688809
1312A048232204A048425982A048595507A049318229A050847385A052842272A054591434
1305A055380043A054802973A053238932A051886684A051773562A052926493A054813286
1298A057061663A059332703A060953592A061199762A059994695A058100835A056470906
1291A055602405A055548104A055953358A055951321A054928955A053614712A053493887
1284A055108983A057697427A060164219A061571914A061232101A059417179A057656240
1277A057405359A058460573A059367588A059350655A059164070A059800025A060885859
1270A061010949A059562640A057563998A056482174A056824660A058206637A060024233
1263A061703561A063189429A065313925A068378158A070928980A071339072A069325022
1256A065703201A062041591A060122586A060367546A061225990A061005729A059559839
1249A057690870A056017781A054930419A054724163A055355853A056374972A057181915
1242A057347939A056851461A056024720A055142658A054147157A052931713A051792405
1235A051316171A051801317A052946545A054069556A054521855A054044538A052874611
1228A051485759A050341868A049968762A050750814A052310591A053616431A054063636
1221A053955097A053803143A053763292A053856553A054230932A054969951A055798475
1214A056258985A056274518A056195135A056134977A055789372A055184610A054898207
1207A055164494A055418939A055140303A054665342A054747717A055543647A056397571
1200A056621015A056181958A055591392A055416265A055881359A056670223A057208907
1193A057289245A057166892A057027797A056803207A056529473A056397317A056306666
1186A055890271A055331408A055635890A057407905A059657429A060839197A060683614
1179A060066248A059768705A059992403A060537262A061229809A062250202A063577113
1172A064379727A063897764A062540169A061362475A061030493A061460892A061949412
1165A062023639A062385287A064085368A066703477A068409860A068028160A066313310
1158A065130014A065824217A068257204A071093603A073027949A073741823A073655627
1151A072987080A071425012A068946505A066565846A065379685A064908289A063588317
1144A061054237A058803568A058212621A058884416A059330221A058476169A056673406
1137A055485718A055956477A057453167A059010715A060752048A062644125A063532997
1130A063128125A062921933A064023109A065739741A066638545A065960639A064043607
1123A061888491A060225268A058919110A057458196A055897783A054952318A055204853
1116A056414695A057720535A058502461A058703242A058277617A056990110A054995924
1109A053061068A051904063A051645034A052092431A053025737A053937209A054120038
1102A053474280A052748884A052522257A052401878A051762867A050829306A050391267
1095A050723759A051288670A051438269A050997239A050206656A049552749A049460634
1088A049878493A050290622A050286675A050146434A050474915A051176948A051460041
1081A050906715A049919553A049118403A048798134A049002989A049630668A050327608
1074A050644121A050528835A050463902A050875140A051454439A051497536A050867310
1067A050077810A049688343A049922800A050661691A051553238A052223696A052503223
1060A052482725A052455479A052754358A053427872A053988009A053838601A053054257
1053A052254952A051932073A052121205A052581333A053111232A053522024A053633046
1046A053539148A053521196A053611529A053617385A053488221A053390632A053562384
1039A054063190A054466280A054264035A053531764A052722211A052245531A052228598
1032A052452550A052655432A052859714A053152992A053287440A052991934A052432689
1025A051960974A051728619A051627146A051504284A051380721A051349337A051286060
1018A051023976A050743302A050740629A050923776A050908880A050523296A049936805
1011A049412763A049010501A048571953A048125066A048000421A048321772A048880636
1004A049447202A049720173A049321603A048367034A047470459A046997789A046896508
997A046804202A046313326A045391224A044279353A043129478A042042052A041147323
990A040431476A039752997A039043388A038306980A037500291A036574814A035532268
983A034415369A033168732A031572606A029614642A027626503A025621686A023225747
976A020396607A017486111A014774613A012574235A011212948A010555158A010312298
969A010445919A010823227A011123507A011039731A010306251A008947128A007261498
962A005168130A002337463I99478403I97703587I97145041I97663545I99192829
955A001605574A004648481A007741297A010223430A011970110A013324140A014376043
948A014839227A014714901A014125608A013191538A012223728A011378334A010377549
941A008959987A007225276A005280425A003178718A001040344I98534402I94752476
934I89128000I82338879I75377434I67870302I58933450I48831953I37643668
927I21923361H96794996H65888864H36287362H07112186G76154427G42759222
920G07646494F76321485F56240463F49344331F53815049F64848516F74206028
913F77103474F73152723F63532172F52320142F45381168F45347428F51194966
906F62722937F86954917G32172388G77176028H03091793H21389022H43216597
899H67313110H84852413H94623328I00450877I04261704I06256845I06191149
892I03832960I00023724H97006535H96381212H98919875I04820122I12750651
885I20235693I25708661I28827195I29601735I28373432I25527678I20778133
878I13741187I05464607H97112782H88352202H78420103H67080500H54568995
871H41103113H26584245H10726052G93542794G75658713G57955232G41066907
864G25327248G10998784F98349904F87479723F78242909F70321165F63174726
857F56080614F48387534F39630583F29619864F18622429F06838676E93287681
850E76411006E57919171E41958550E28745713E16030340E03285939D92637706
843D85550597D81344892D78888318D77576303D78619294D86511882E02204943
836E15518107E24136186E31904416E39678662E46837642E53017799E57554213
829E59837539E60098732E58826823E56175610E51946733E45756009E38290001
822E30648708E22701214E14037300E05412345D98334244D93145642D89522482
815D87351260D86093387D84857317D83528878D82448010D81469664D80904307
808D82024104D85537961D91032445D98095841E06446234E15968623E29043606
801E50619950E76198066E94102518F05512274F15878019F27763563F41845666
794F57706469F72961746F84898981F93930558G02866965G14096884G26862515
787G38119171G46784135G53675174G59624566G64980146G69351174G71944711
780G72379439G70614553G66298782G58958182G49338713G39246574G29201798
773G18041905G04098770F87436689F71571812F59836058F52378963F48145502
766F46072633F44200100F41326844F38664810F37788414F39704491F44618340
759F51433115F58113824F63480799F67727373F71029118F73011591F73515581
752F72915211F71696839F70149476F68638781F68045987F69603663F73811086
745F79916189F87513208F97086588G08260868G19770887G32052518G47031451
738G63555646G77547352G88358012G98072906H07855025H17448967H26144551
731H33632522H40298207H46597725H52214689H56538227H59540965H61401149
724H61857585H60055522H54270561H42113256H22431568G96432601G67302877
717G41059587G25141427G21263185G23544983G25385178G22878981G14526901
710G01867517F89386760F81395628F77947212F75138252F71277580F69683364
703F74283883F84896817F98100487G11327138G23483297G33306603G39899271
696G43730661G45756995G46502252G46048554G44351274G41414295G37420512
689G33027076G29486100G28184970G29922929G34695391G42099904G51494593
682G61679038G71215305G79310010G85789174G90588246G93823276G96162814
675G98795183H02922905H09192440H17422294H26820611H36565362H46171463
668H55315208H63616296H70818564H76966064H82239842H86767090H90635083
661H93958599H96845923H99353011I01543904I03558143I05523747I07441606
654I09206237I10686376I11764507I12371370I12491622I12117115I11246704
647I09942073I08312399I06419431I04239678I01737683H98928978H95805224
640H92220577H87976613H83004325H77354767H71074665H64234618H57026174
633H49704545H42480442H35569797H29260539H23738999H18818402H13962419
626H08628738H02478437G95230398G86530294G76148888G64227186G51184573
619G37399568G23010564G07947474F92127222F75756064F59538388F44493632
612F31504748F21028490F13051744F07061292F02007583E96455169E88957013
605E78445552E64395852E46824082E26402102E04640574D83714763D65874384
598D52862487D45591021D44080931D47677545D55393924D66155343D78935298
591D92873499E07383105E22185352E37188443E52251024E67088252E81443579
584E95250038F08553653F21383517F33728743F45450492F56063808F64674408
577F70182706F71473650F67469044F57355261F41197234F20584340E98652110
570E79122758E64761510E56306366E52633043E51834375E52278780E53101638
563E54191864E55935233E58889463E63509717E70030832E78518696E88938425
556F01097130F14541559F28561149F42197828F53975725F61402519F61184805
549F51173640F33059304F12898899E98268182E94448187F02598849F20341226
542F43536580F68234482F91894230G13351817G32151635G48190875G61679165
535G72972170G82311221G89688169G94781792G96936463G95326332G89264963
528G78370847G62488591G41487822G15021597F82652641F44955797F04947936
521E67847642E38633188E19702614E10714229E09901238E15171706E24502163
514E35989421E47960589E59282113E69586300E79052224E87848389E95716341
507F02044315F06316289F08446196F08675497F07242402F04193320E99432062
500E92929853E84933437E75897213E66150170E55730442E44580798E32755762
493E20396530E07666707D94775412D81943193D69326492D57127681D45846008
486D36270718D29083441D24507336D22376982D22427432D24421237D28092523
479D33126815D39223006D46106947D53499778D61186270D69109446D77261477
472D85511542D93690310E01764104E09743332E17536961E25102882E32616762
465E40282914E48044237E55631070E62841423E69700823E76409032E83160085
458E89941566E96534170F02789381F08849031F14983099F21256389F27446795
451F33286758F38741137F44007913F49251516F54444002F59517253F64503419
444F69420261F74194251F78809602F83355947F87835450F92090746F95998844
437F99620413G03113454G06594208G10108129G13648214G17161626G20635887
430G24249244G28310952G32930250G37839134G42669081G47305631G51868527
423G56481078G61181096G65955086G70738052G75437879G80029613G84604478
416G89305642G94235024G99382247H04576897H09521812H13928998H17628040
409H20540700H22562324H23410646H22550802H19449583H14144484H07451107
402H00184289G91881354G80310223G62385909G35866465G00856546F60464883
395F19994538E84589614E56885155E36737036E23009642E15248829E13768849
388E18764150E29587764E44617338E61729425E79072340E95503783F10495448
381F23978709F36330365F48143974F59786531F71268031F82521758F93511618
374G03978199G13452972G21751323G29179263G36102449G42600902G48630568
367G54219332G59425122G64276713G68683517G72289298G74598724G75469327
360G75518854G76012085G78173631G82373925G87986051G94096438H00173021
353H06009992H11432032H16370072H21030239H25685760H30328485H34696520
346H38638677H42288574H45851894H49397008H52924552H56451396H59833033
339H62522123H63592360H62013805H56888416H47608059H34249442H18240568
332H02410386G89470264G79692920G70294220G58090444G43518166G31777447
325G29284300G38691212G57236584G79256537G99778780H16340788H28605041
318H36911349H41063772H39850747H30842214H09916753G71470641G11736848
311F35205254E58078891E01974593D80862642D93201822E26148675E65626065
304F02164694F30826650F49987989F61243435F68727267F76703376F87037355
297F98752166G09763988G19015571G27284830G36283814G47111980G59548812
290G72520763G84828367G95553405H04345560H11521346H17728685H23479970
283H28911305H33761941H37674241H40726633H43504209H46383894H48922175
276H50257552H50055371H48769838H46985854H44844615H42229052H39193593
269H35972059H32778470H29916737H28010592H27749207H29272252H32039197
262H35376591H38886056H42240638H44918014H46328001H46016899H43605108
255H38659939H30946615H21054621H10631837H01646412G95430733G92474721
248G92672255G95350141G99271099H03073268H05827545H07041715H06343247
241H03575284G99101956G93642994G87923538G82751042G79176326G78284843
234G80820196G86821216G95378724H04947457H14221257H22682512H30290035
227H36951709H42182899H44471827H40713137H27375082H03855066G75052805
220G49539685G34271039G30626808G35214595G43867400G54271087G65611072
213G76978176G86783148G94114581G99952060H06152779H12414993H16626554
206H18807071H20000043H20751540H21384439H22090928H22676210H22818488
199H22419664H21294234H18879642H14613716H08239526G99585193G88687129
192G76649631G65923193G58915531G56123377G55722452G54904814G51649412
185G45573847G37511481G28372892G18374587G07255690F94938792F81716979
178F67971633F54153016F40948836F28959209F18283571F08791866F00581046
171E93880857E88740445E85058209E82900292E82640881E84565487E88417693
164E93592418E99672120F06698498F14947323F24192604F33290196F41091114
157F47618914F53820078F60449541F67576628F74963826F82610817F90650967
150F98678257G05769950G11554274G16630263G21682762G26854813G32039850
143G37131117G41971886G46426180G50432822G53939614G56957184G59647483
136G62233127G64852064G67490290G69972551G72076549G73669174G74642968
129G74829107G74305701G73784269G74130129G75294773G76283273G76366093
122G75638597G74317988G72385232G70021759G67659750G65517175G63424508
115G60961344G57504080G52461767G45941861G38948522G32273033G25319354
108G16837028G06681103F95502048F83053184F68298714F50910919F31949025
101F13219677E96342493E82170503E70620506E61227536E54316063E51231396
94E52828094E58321560E65903810E73505284E79107352E81429256E80492512
87E77359145E73185333E68431014E63076452E57151951E50607281E43155151
80E34844004E26628824E19733902E14239386E09059951E03536088D98184550
73D93550514D89370623D85550756D82743929D80951415D78939627D75846397
66D72171546D68927444D66594273D65161274D64643598D65337514D67589456
59D71170188D75263471D78906206D80880563D80206317D77329815D74130211
52D72521990D72947105D74247725D74853697D73827734D71270674D68209942
45D65947624D65086665D65383222D66542200D68379657D70515740D72635844
38D74803852D77064197D78933579D79973452D81078001D84350527D89731762
31D94008224D95991238D97045847D98847051E02598261E08333886E14385579
24E18907352E22208651E25990450E30733724E35422921E38932258E41312028
17E44633889E50515867E57637288E63891799E68566099E72142087E75464649
10E79160381E82442837E83096616E80907760E78583820E77867145E78287868
3E79062791E79960321E81350701
$$ === CHEMSPECTRA INTEGRALS AND MULTIPLETS ===
##$OBSERVEDINTEGRALS= (X Y Z)

##$OBSERVEDMULTIPLETS=
(1, 3.8118098733046306, 3.820916392599017, 3.8165484917313517, 3.0, 1, s, A)
(2, 3.8002370083831463, 3.8072566198392193, 3.804045046734, 1.0691243749552632, 2, s, B)
(3, 2.7385783572341156, 2.824716929221144, 2.7903907607986658, 7.660413935557775, 3, m, C)
(4, 1.3677187754080335, 1.461658776709788, 1.4019943355760256, 8.83715276144508, 4, m, D)
(5, 0.7730240996511429, 0.855577559325768, 0.8132210033673797, 13.601052018038096, 5, m, E)
##$OBSERVEDMULTIPLETSPEAKS=
(1, 3.8165484917313517, 1240276417644.6074)
(2, 3.804045046734, 471278397430.4689)
(3, 2.8143973751935825, 131608503282.62057)
(3, 2.7950170354476853, 127410504990.46866)
(3, 2.7875149684492744, 228270864241.442)
(3, 2.7806380737007306, 259970580031.42648)
(3, 2.7743863512020557, 258858740353.42545)
(4, 1.432766702986175, 330412650540.2057)
(4, 1.4202632579888235, 159452806310.1823)
(4, 1.4146367077400157, 236127588236.94473)
(4, 1.4065094684917359, 147165862959.82846)
(4, 1.4021332627426624, 167912848673.00104)
(4, 1.3946311957442514, 212547496425.9673)
(4, 1.3883794732455765, 123363776492.7761)
(4, 1.3833780952466341, 103258065518.33473)
(4, 1.375250855998356, 147563309170.48242)
(5, 0.840103410111686, 205950495583.55222)
(5, 0.8363523766124814, 97685994284.20232)
(5, 0.8269747928644673, 513867245215.7335)
(5, 0.8219734148655267, 491526844904.2411)
(5, 0.8169720368665843, 279046896500.94244)
(5, 0.8088447976183062, 1027720124141.1935)
(5, 0.7982168693705578, 340561675382.79425)
(5, 0.790089630122278, 463769779949.96423)
(5, 0.7794617018745296, 135626408897.80905)
$$ === CHEMSPECTRA SIMULATION ===
##$CSSIMULATIONPEAKS=
##END=


$$ === CHEMSPECTRA PEAK TABLE EDIT ===
##TITLE=LIS-P257
##JCAMP-DX=5.00
##DATA TYPE=INFRAREDPEAKTABLE
##DATA CLASS=PEAKTABLE
##$CSCATEGORY=EDIT_PEAK
##$CSTHRESHOLD=0.93
##MAXX=3997.453
##MAXY=1.0053544009867628
##MINX=373.96442
##MINY=0.3954754752336835
##$CSSOLVENTNAME=- - -
##$CSSOLVENTVALUE=0
##$CSSOLVENTX=0
##NPOINTS=38
##PEAKTABLE= (XY..XY)
379.63054756841257, 0.5410623531345913
434.8752913604376, 0.43546494649115125
446.20754649726314, 0.4424267100654075
460.3728654182951, 0.4350500987606815
507.11841785770093, 0.516123054965213
552.4474384050036, 0.7245013685691882
609.1087140891318, 0.5455320463084493
681.3518405863952, 0.684092638628374
705.4328827521499, 0.7287152976356978
725.2643292415946, 0.7420014116634692
747.9288395152462, 0.7750292391942648
808.839710875684, 0.4502361396840385
832.9207530414383, 0.682835635969775
923.5787941360436, 0.4810465256805533
1056.7327919937447, 0.3954754752336835
1104.8948763252538, 0.4774252457258515
1144.5577693041437, 0.5565873361338297
1174.3049390383107, 0.5166876297804688
1216.800895801407, 0.41579708344391175
1345.705297982799, 0.6818063231219725
1369.7863401485533, 0.627030728284317
1385.3681909616885, 0.6753253917999612
1432.1137434010943, 0.6254976370534797
1451.945189890539, 0.5971671915710295
1518.52218881939, 0.4502751510089398
1562.4346774745895, 0.44715911007970277
1631.8447401876465, 0.839290020321811
1658.7588461376072, 0.604244766300109
1671.5076331665364, 0.6079871035503618
1729.5854407427678, 0.9336361254799292
2872.7266776700544, 0.9238957733843007
2930.8044852462863, 0.890524562862851
2981.7996333620013, 0.7954826329314305
3250.9406928616104, 0.8129623506245125
3364.2632442298673, 0.7978455993945832
3396.8434777482407, 0.7560838436000362
3457.7543491086785, 0.7126744962527788
3500.250305871775, 0.7379086588037855
##END=


$$ === CHEMSPECTRA PEAK TABLE AUTO ===
##TITLE=LIS-P257
##JCAMP-DX=5.00
##DATA TYPE=INFRAREDPEAKTABLE
##DATA CLASS=PEAKTABLE
##$CSCATEGORY=AUTO_PEAK
##$CSTHRESHOLD=0.93
##MAXX=3997.453
##MAXY=1.0053544009867628
##MINX=373.96442
##MINY=0.3954754752336835
##NPOINTS=38
##PEAKTABLE= (XY..XY)
1729.5854407427678, 0.9336361254799292
2872.7266776700544, 0.9238957733843007
2930.8044852462863, 0.890524562862851
1631.8447401876465, 0.839290020321811
3250.9406928616104, 0.8129623506245125
3364.2632442298673, 0.7978455993945832
2981.7996333620013, 0.7954826329314305
747.9288395152462, 0.7750292391942648
3396.8434777482407, 0.7560838436000362
725.2643292415946, 0.7420014116634692
3500.250305871775, 0.7379086588037855
705.4328827521499, 0.7287152976356978
552.4474384050036, 0.7245013685691882
3457.7543491086785, 0.7126744962527788
681.3518405863952, 0.684092638628374
832.9207530414383, 0.682835635969775
1345.705297982799, 0.6818063231219725
1385.3681909616885, 0.6753253917999612
1369.7863401485533, 0.627030728284317
1432.1137434010943, 0.6254976370534797
1671.5076331665364, 0.6079871035503618
1658.7588461376072, 0.604244766300109
1451.945189890539, 0.5971671915710295
1144.5577693041437, 0.5565873361338297
609.1087140891318, 0.5455320463084493
379.63054756841257, 0.5410623531345913
1174.3049390383107, 0.5166876297804688
507.11841785770093, 0.516123054965213
923.5787941360436, 0.4810465256805533
1104.8948763252538, 0.4774252457258515
1518.52218881939, 0.4502751510089398
808.839710875684, 0.4502361396840385
1562.4346774745895, 0.44715911007970277
446.20754649726314, 0.4424267100654075
434.8752913604376, 0.43546494649115125
460.3728654182951, 0.4350500987606815
1216.800895801407, 0.41579708344391175
1056.7327919937447, 0.3954754752336835
##END=

##END=

