##TITLE=X9652
##JCAMP-DX=4.24
##DATA TYPE=INFRARED SPECTRUM
##DATE=19/11/2018
##SAMPLING PROCEDURE=Instrument type and / or accessory
##ORIGIN=Default
##XUNITS=1/CM
##YUNITS=TRANSMITTANCE
##RESOLUTION=4
##FIRSTX=3996.5625
##LASTX=399.65625
##DELTAX=-2.0390625
##MAXY=1.0412283
##MINY=0.28769422
##XFACTOR=1
##YFACTOR=9.6971942e-010
##NPOINTS=1765
##FIRSTY=1.0177615
##XYDATA=(X++(Y..Y))
3997+1049542219+1050197323+1050074760+1049638967+1049164450+1048776355
3984+1048832903+1049484073+1050303044+1050503914+1050214779+1050099346
3972+1049938674+1049188299+1048049582+1047378006+1048025365+1049359051
3960+1049974079+1050015752+1050037265+1050157739+1050402742+1050859925
3948+1051392219+1051648532+1051683076+1050671839+1049122408+1049037462
3935+1050286202+1051933365+1053281188+1053171164+1052228278+1051884315
3923+1051548957+1051566045+1053071958+1053877284+1052063426+1049836272
3911+1048864620+1049593113+1053096299+1058497059+1062016102+1061141689
3899+1057056668+1052759712+1051453562+1053724603+1055365127+1054682487
3886+1055631520+1057013150+1057366947+1057499468+1055147169+1053812622
3874+1056117838+1059455680+1061831705+1061124602+1059761780+1059501903
3862+1057070559+1054052708+1055071566+1061923904+1071650631+1069989946
3850+1059440314+1053695099+1054028244+1057712385+1062338921+1066621986
3838+1067299831+1063396872+1059922452+1058120396+1056674473+1055857223
3825+1055970074+1058838194+1063934452+1064931797+1063634007+1061261302
3813+1055734783+1052212297+1053849747+1057742995+1059678678+1062214023
3801+1063382489+1059780958+1056753518+1054005625+1050839887+1049415354
3789+1049658882+1050860293+1051801459+1052039332+1053465709+1053790986
3776+1051058828+1049930684+1052635059+1056562851+1057818598+1056832194
3764+1055169174+1054440926+1056052315+1056954511+1057353671+1062099942
3752+1070608785+1073741823+1070765277+1070915377+1069714579+1062567943
3740+1058956455+1062400510+1068159493+1068125195+1061747742+1055651804
3727+1053301349+1053527666+1054665031+1054957731+1053175221+1051229089
3715+1052294538+1057579496+1062048311+1058689693+1052586501+1050395243
3703+1051982291+1052722340+1050923235+1049455553+1049698220+1052998937
3691+1059158431+1061449387+1055864107+1050128112+1048569706+1050762686
3678+1055558376+1061455657+1063012587+1061140706+1061012488+1056993604
3666+1049893312+1045962693+1045114218+1046115989+1048891050+1051108738
3654+1051989421+1057248564+1066509380+1067206280+1057743364+1050361928
3642+1048249346+1048008769+1047045230+1046560510+1047574451+1051309486
3630+1057427061+1056527815+1048983495+1045880329+1048585319+1052725414
3617+1053267543+1052251143+1052504874+1052668373+1052315436+1050543621
3605+1046859972+1044371711+1044639948+1046055630+1046923896+1046431186
3593+1044716657+1044477801+1047709799+1050128850+1047464304+1044149573
3581+1042882516+1042271914+1041527439+1040935031+1040818861+1042325143
3568+1045900981+1048155918+1046058703+1042845636+1041055750+1040186992
3556+1039901421+1040245015+1039979852+1039441779+1040562548+1041840055
3544+1041039769+1039686905+1039200587+1038804501+1038116084+1037956272
3532+1038778808+1039917279+1040113232+1039161003+1037858419+1036451465
3519+1035520134+1035857705+1036717243+1036929423+1036252561+1035275746
3507+1035270214+1036566406+1037749870+1037286048+1035892003+1035203585
3495+1034996445+1034411904+1033890920+1033622806+1033075268+1032689631
3483+1032548628+1031397495+1029825260+1029951941+1030950516+1030677669
3470+1029507174+1028643702+1028708302+1029534711+1029761643+1028938738
3458+1028328751+1028341167+1028058547+1027298706+1026754610+1026905078
3446+1027595524+1027978211+1027613042+1026745021+1025700777+1024776146
3434+1024035114+1023815435+1024235185+1024280609+1023689799+1023408838
3422+1023292237+1022794302+1022523914+1022629758+1022470131+1022056712
3409+1021659581+1021284516+1021060904+1020799489+1020290552+1019982178
3397+1020390618+1021366635+1022206074+1022565465+1022512481+1022101951
3385+1021699411+1021492209+1021035580+1020565734+1020553933+1020699853
3373+1021154147+1022099185+1022728104+1022444500+1021751104+1021542427
3360+1022076504+1022794733+1023429859+1023834797+1023675170+1023442829
3348+1023617023+1023897184+1024044334+1024294008+1024399053+1024135856
3336+1024188656+1024795262+1025178379+1024625248+1024025279+1024384424
3324+1024786841+1024455417+1023868849+1023473685+1023797118+1025041863
3311+1026079161+1025955922+1025096445+1024634468+1024844435+1025058582
3299+1025064913+1024477853+1023410498+1023121116+1023618007+1023966948
3287+1024010528+1023899705+1023474176+1022741319+1022314254+1021963100
3275+1020897896+1019768153+1019454862+1019213916+1018339994+1017412351
3263+1016805560+1016625649+1016706108+1016549739+1015900414+1014882477
3250+1014641777+1015562720+1016566765+1017433495+1017978021+1017388379
3238+1016336514+1016054570+1016482803+1016906610+1016914539+1016734444
3226+1016340202+1015744598+1015729047+1016248802+1016679555+1017342710
3214+1018701044+1020530637+1022323720+1023741246+1024412637+1024625186
3201+1025601694+1026871210+1027161883+1027417458+1028269006+1029018582
3189+1029796433+1030707111+1031003684+1030546623+1030317233+1030590387
3177+1030683569+1030486510+1030584241+1030893537+1030513739+1030171928
3165+1031064166+1032171474+1032284571+1031770716+1031211991+1030979282
3152+1031339349+1031593203+1031715520+1031881478+1031437571+1031057528
3140+1031033679+1030803858+1031220474+1032713726+1033559004+1032909433
3128+1032345668+1032329933+1032069317+1031824191+1031737402+1031813005
3116+1032271786+1032354642+1031755964+1031170379+1030510482+1029813274
3103+1029918442+1030361242+1029703127+1028027691+1026639484+1026047998
3091+1025048993+1023029778+1021195821+1019527330+1017923993+1017512540
3079+1017367788+1016536401+1015835813+1015237013+1014080901+1011952277
3067+1009178998+1006061757+1001982882+997641240+994730647+993515774+993559476
3052+994395781+995182729+995687425+996153336+996285426+995417528+993324492
3038+990689635+988035416+985987865+985696640+987513817+991465211+996895168
3024+1001560857+1004426703+1006426803+1007465023+1007393169+1007463793
3012+1008237403+1009174573+1009670110+1009940683+1010560935+1011237552
2999+1011132138+1009907369+1008083799+1006130414+1003945856+1001350214
2987+998585295+995842319+993300951+991318615+989703784+988349384+986609224
2973+982982922+978404821+975463802+973692540+970713904+965922886+959983132
2959+953716195+948045170+943153532+938797999+935471097+933398530+931813448
2944+929952876+927587362+924301336+919711003+914355175+908889876+903927675
2930+900200692+898389477+899454066+903833816+910565558+918124077+925673623
2916+932621294+938238106+943093418+948032631+952409308+955984716+958967286
2902+961353636+963452819+964957687+966082697+967927349+970535039+972983347
2887+974875328+976521630+978132958+979913624+981943534+983559963+983874607
2873+982718803+980238963+976312892+971302747+965743897+959505419+952817257
2859+946326830+941048264+938604074+939943477+944954420+952492225+961469807
2844+971170411+980229497+988040087+994968643+1000835314+1005520857+1009676810
2830+1013377486+1016092310+1017929341+1019458734+1021058814+1022678501
2818+1024137024+1025354479+1026068835+1026104608+1026142901+1026728364
2806+1027702229+1028762761+1029452592+1029899941+1030405313+1030971168
2794+1031760636+1032368779+1032519616+1032768799+1033102190+1033417510
2781+1033967137+1034486893+1034777258+1034776889+1034402562+1034001313
2769+1034170467+1034828397+1035347784+1035635198+1035761449+1035793043
2757+1036046036+1036445318+1036547598+1036385696+1036250840+1036336647
2745+1036505801+1036280959+1036027596+1036105289+1036159256+1036433517
2732+1037161396+1037687175+1037584158+1037275353+1037086776+1036932988
2720+1036647172+1036180277+1035742149+1035642451+1035679085+1035421297
2708+1035381590+1035840740+1036257724+1036489328+1036682822+1037121566
2696+1037794002+1038114608+1037835922+1037439836+1037432706+1037817605
2683+1038290032+1038470373+1038085474+1037227902+1036499039+1036401186
2671+1036709744+1036999126+1037087882+1036990152+1036919097+1036868572
2659+1036790019+1036894757+1037049651+1037049897+1037085547+1037436394
2647+1037965492+1038228812+1038341049+1038560482+1038782374+1038825277
2634+1038562694+1038370060+1038593305+1038915632+1039012625+1038768605
2622+1037926031+1036587796+1035868646+1036241620+1036616562+1036665735
2610+1037121812+1038083261+1039084909+1039793856+1040136221+1039921951
2598+1039040899+1038389115+1038425871+1037874400+1036587304+1035849714
2586+1035682158+1035943880+1036762113+1036881234+1036174008+1036157658
2573+1036723390+1037461595+1038329124+1039002053+1039626423+1040263086
2561+1040901471+1040857461+1040161176+1040491493+1041650371+1041778957
2549+1041059930+1040863608+1041232526+1041573047+1041496214+1041196630
2537+1041171675+1041134672+1040695191+1039954159+1039280247+1039716901
2524+1041260677+1041953521+1041300261+1040473791+1039910395+1039772220
2512+1040338935+1041007315+1040535872+1039710262+1039859501+1039760295
2500+1039008937+1038841627+1039435510+1040308325+1040632988+1039737430
2488+1038172755+1037299571+1037219174+1036169951+1033498153+1030922917
2475+1029682659+1029637052+1030671215+1032218925+1033505898+1034184973
2463+1034112812+1033678371+1032976062+1031194166+1028349219+1025323070
2451+1021823326+1017477566+1013011211+1009106100+1005851974+1002555191
2439+998630902+994637834+991298393+988464448+985896711+984506230+984670098
2424+985538734+987311102+989970362+992883290+996017128+999034917+1002094442
2410+1005876622+1010005468+1013500540+1016339034+1019123192+1022083880
2398+1024873262+1026838879+1028048774+1029079618+1030025454+1030351777
2386+1029562125+1028138391+1026659215+1024800364+1022640822+1021210388
2373+1021249296+1022233795+1022764799+1022702657+1022778813+1021971520
2361+1020428973+1020360193+1021043140+1021097045+1021378436+1022607446
2349+1023714139+1022833825+1020014754+1018647938+1019681118+1020483985
2337+1020774411+1021221698+1021111306+1019761208+1018581063+1019017655
2325+1020386439+1022063965+1023933818+1025727515+1026835683+1027092303
2312+1027617959+1028843896+1029663666+1029760475+1029369306+1028263228
2300+1027564484+1028275460+1029232545+1028749423+1026700151+1024455233
2288+1022200542+1018587025+1013642895+1008849357+1004417729+1000419989
2276+997472885+995570025+995553982+997752862+1001273197+1006184197+1012386287
2261+1017925038+1021199386+1023079996+1025011315+1027055977+1028514070
2249+1029092464+1029726607+1031054700+1031885903+1031394053+1030474585
2237+1031427368+1034425796+1036078367+1036108608+1036781414+1037387098
2225+1037699468+1038028802+1036438557+1034291063+1034165303+1035080653
2212+1036460562+1037286909+1037801870+1039345647+1039439812+1037992414
2200+1037345424+1036513177+1034663546+1031823208+1028265994+1025899681
2188+1023459978+1016731617+1007822631+1001986262+999206530+996397294+992479460
2174+989773118+990619503+993426034+992381913+985910725+977917827+970315606
2159+963715401+955928720+942967229+923265390+897273749+862671293+814027513
2145+752159905+683524721+615342417+554803824+505641334+470106687+450441697
2131+443907291+443512649+444058159+444381838+444740246+445174902+445250167
2117+443801293+440695331+437335484+433129313+425851877+415377356+403083752
2102+389191114+372196140+352092806+331213742+312378541+299604367+296677792
2088+304662608+324673989+358126111+403107601+455538170+510865871+565161437
2074+616561470+663508546+702866800+733997049+760862919+786694134+810955203
2059+832808839+853019001+872116446+889674416+904470296+916196631+925923420
2045+935217981+943491963+948775323+953191031+959121258+965679358+971196227
2031+975731179+981637864+988267019+990211123+985823321+980997513+980706103
2017+986020749+993626536+996547824+995225570+996991300+1001864929+1003718616
2002+1001634985+998673621+997377367+998708595+1002156646+1005640593+1006208845
1988+1003527273+999584975+996523238+996742363+999679817+1001492323+1003290199
1974+1006451450+1006319729+1002750283+998969948+995722460+993196275+990837276
1960+988126324+986022409+985158322+986236433+989319684+992603928+996345786
1945+1001318497+1005059556+1006120088+1006883494+1009022998+1011848031
1933+1014050598+1014064059+1011853562+1010257048+1011410332+1013557888
1921+1014949537+1016174183+1016304244+1015354228+1015720442+1016524968
1909+1015310280+1013471098+1013743576+1015911539+1017439335+1017655387
1896+1018114599+1019434517+1021507760+1023164880+1022537314+1021071414
1884+1020440897+1019856910+1019405320+1019483751+1020464377+1022831674
1872+1026594368+1030860837+1031376843+1027324398+1024393460+1024339001
1860+1025089254+1025586205+1025859974+1025707969+1024880884+1024282575
1847+1025566167+1028515299+1028814577+1025679387+1023745671+1023622678
1835+1023818693+1025145679+1028586354+1031108176+1031331481+1030961149
1823+1029271084+1027475727+1027280512+1027752016+1028100159+1029374777
1811+1031133807+1031282800+1030333275+1030402547+1032029487+1033440867
1798+1032728354+1031812144+1033609529+1035272181+1031766537+1027191878
1786+1025716021+1025775704+1025904107+1025407462+1023773331+1023610754
1774+1026596827+1027810409+1022331649+1014996312+1009963671+1007890919
1762+1005907477+1002045147+998435072+994693153+992024059+992462495+992576822
1747+988382944+982574665+978750505+977292412+975925718+976270972+982891461
1733+990423980+989924016+986856316+984782950+984844108+987019385+991878508
1719+1001232322+1009847440+1009435126+1006238901+1006779985+1012023454
1707+1020081445+1026963163+1033189963+1041410900+1045169415+1043154686
1694+1038090637+1033419231+1033132431+1036549073+1044202434+1052071048
1682+1047382432+1039236237+1037238228+1039908305+1041865870+1043038516
1670+1045000998+1042082722+1037754664+1038057937+1038167100+1034918506
1658+1034364945+1041311202+1053081055+1051691681+1046485522+1047476106
1646+1042570761+1032801376+1028962710+1031936920+1039631094+1043034090
1633+1035041069+1028709593+1028819371+1031071050+1032568174+1031041670
1621+1025167008+1021356800+1019689969+1012829149+1005401613+1002632699
1609+1001633080+998329289+992799021+987665330+985614890+987963747+993220922
1595+998186012+1000054267+997068255+987744805+968912524+933355565+877141219
1580+817644718+780926915+764646204+743613445+726921836+751519677+824106502
1566+895530577+946187610+980348187+1011890442+1033068752+1029751808+1025686026
1552+1025829856+1028265195+1031692040+1038007658+1048656496+1060704298
1539+1061033140+1048820487+1042781712+1041441879+1037519496+1035294431
1527+1037432952+1040107086+1042238722+1039523898+1029551737+1015994702
1515+998218589+979345433+963405367+954048664+951042245+951140529+957664148
1501+971012444+985378370+993510857+993827652+992840818+989958745+971882924
1486+929937448+867050060+786083839+702441764+634651550+575191192+536530329
1472+565970758+645593151+720449542+785570476+837543309+871541924+900966864
1458+933484582+951928399+950493785+946452036+945250563+946297080+946268314
1444+944168087+940586533+936964841+931668511+915548842+884129949+832394068
1429+754498374+673689076+610371119+561589410+532726022+543219782+600409285
1415+672686998+740212047+797509545+843167067+878777686+905691807+923270922
1401+934771677+943276218+947290246+945505707+938252858+929780341+923398156
1387+919604360+917697197+916942888+916444277+917218808+921562847+928654041
1372+934244607+937456506+938281194+935220255+930708230+927269215+927455088
1358+933104170+941288534+947880195+952317478+955891656+959231527+962462358
1344+965413211+967811486+967759240+963259693+956379081+950968486+948891063
1329+949058312+948025009+942749885+931534024+912325019+881962601+838790759
1315+783796203+717265733+642647522+569129243+507618660+467381813+450205084
1301+448331205+450785045+450223370+443944109+431771716+415707366+400567339
1287+392264622+395107173+410944376+439751553+479575504+527052354+578332220
1272+629916097+678682378+722083427+758961411+788163291+807533706+816454985
1258+819031204+821168986+824047064+824953378+823411507+820932220+813731309
1244+789491015+737201449+667246408+618128849+624095402+675094370+732035120
1230+771086414+792379604+804285665+814484696+825959636+837727830+851228070
1215+867915868+883799509+894841975+900850386+903401588+904154545+903185413
1201+899235739+891278614+879143101+863362784+844063178+823728794+814483406
1187+829830449+864178498+898603870+923035938+938623128+948753748+955212889
1172+958647048+959165021+956337468+949790309+939885514+930817025+929965046
1158+937595235+945467353+947886588+943961992+932057099+907425390+863569371
1144+801401379+741313577+711762202+720394161+752682795+790921756+820971927
1130+834343396+831957721+824533198+823715149+830659378+842231434+858288224
1115+875025748+885111067+884400768+871965363+847766005+813612496+776195088
1101+747800316+738245508+744482634+754917203+762998673+770415268+780781732
1087+795463838+812264734+825868236+832646139+835723120+841007279+847953291
1073+851146382+850077736+849129441+850473576+853742024+859257294+867617021
1058+878125287+888842783+897793320+904730419+911035895+917325820+922394480
1044+923451386+917103805+905108065+899789731+910068054+926911238+937266146
1030+936147898+919893741+880463941+808037542+714099810+654552723+677054148
1015+751145042+815096835+849111554+864428172+873442264+883586161+897078841
1001+911964091+925852181+937755046+947305059+954187331+958303823+960411733
987+961623226+962517984+963528053+965596564+968821616+971867066+974411752
973+977189579+979763278+981385362+982327450+982885498+982594458+980501975
958+976779786+974352622+975471977+977956305+978112244+974022182+965292246
944+952175553+935769330+919542587+909377546+909150491+917668800+931408204
930+946952921+960899588+970315851+975191386+977644857+977923666+974748585
916+968287355+961014529+955928290+954646727+956259837+958059312+958025444
901+956688193+956947333+958984619+958491171+955966460+959473580+970903096
887+981974697+986611375+984663644+976798103+962006650+938759767+909391745
873+882656858+868884939+872387694+890048313+914393038+936153184+947739070
858+946955011+937180340+924635034+915385589+912428466+912862661+909868535
844+897953377+875606109+845718761+812885723+781568557+757293903+744094354
830+740058321+739159383+740036562+748377972+763772037+773904316+770269778
816+757771370+743110777+724117456+694958110+653304597+601889383+547360246
801+497876013+463287110+454858818+481038453+538470192+608207090+669269065
787+712015564+735305657+742254804+740818285+738338383+737645663+741294707
773+754018572+778384133+809610330+839720983+864977308+884864098+899736871
759+912207988+923796086+932660448+937928749+941474776+945458010+950736699
744+957214033+963686082+968630703+972122210+974823697+976494892+977064927
730+976977645+976155355+974287469+971602332+967353197+960320395+950914704
716+938462518+918860500+884227127+821693659+720811637+591836394+474389966
701+416659319+437380384+510391908+591720347+646341621+651612134+615803104
687+587234752+587067073+573710848+543116212+556276300+625756456+701246683
673+750043758+774564091+794672588+822568441+844233377+861122661+877417815
659+890879516+899861032+905459097+909779717+914598887+920950708+926897039
644+930122583+931105669+931777921+933642611+937154217+939829273+939896763
630+936968529+928443705+914684447+897500435+866666021+811354055+749936439
616+722879410+752705108+818494914+876413770+907470137+920957469+924349217
602+917822157+905121772+898707625+906338735+921384534+934318612+942131723
587+946803006+950352353+953368114+955745429+956346135+955760734+955456232
573+955652554+956785432+960009992+964910482+967893359+967056255+964257407
559+961708971+960622869+960642476+958932557+950550027+936256078+929041399
544+935209744+943660441+944189170+927701627+875752029+784998106+706561575
530+703293004+764296955+833264055+879579816+906259444+923832658+937030671
516+946161057+949907770+949916129+949013011+947119617+944868491+945878191
502+949867694+951714436+952316064+955439083+958706363+957141749+951238014
487+947490932+946569128+943119664+938548632+933816498+926276910+920019377
473+915256326+906070867+899560218+907123777+923146208+935423523+946067137
459+960085534+969594365+970347445+972651923+980094825+983652469+977984272
445+970842245+971563240+977523032+981347377+982988761+985943671+988749342
430+985096118+975677826+970592940+973246052+977615046+978800292+970146452
416+952774599+931261915+900545331+855222122+805988147+784814262+807336400
402+851598279+889250671
##END=
