##TITLE=X8419
##JCAMP-DX=5.0
##DATA TYPE=LINK
##BLOCKS=1


$$ === CHEMSPECTRA SPECTRUM ORIG ===
##TITLE=X8419
##JCAMP-DX=5.00
##DATA TYPE=INFRARED SPECTRUM
##DATA CLASS=XYDATA
##ORIGIN=ComPlat
##OWNER=
##XUNITS=1/CM
##YUNITS=TRANSMITTANCE
##XFACTOR=1
##YFACTOR=9.536193e-010
##FIRSTX=3997.453
##LASTX=373.96442
##MAXX=3997.453
##MAXY=1.0239409246763647
##MINX=373.96442
##MINY=0.7592946326475967
##NPOINTS=2559
##XYDATA= (X++(Y..Y))
2559I70779258I70142909I69799701I69840079I69992712I69932709I69643442I69393053
2551I69324549I69248169I68940277I68484938I68199734I68293052I68696138I69182166
2543I69528686I69583126I69341675I69016781I68902587I69125287I69568625I69952648
2535I69971899I69571188I69115537I69001093I69160602I69267608I69274796I69392428
2527I69624754I69736385I69681382I69660756I69657943I69422867I69014531I68847646
2519I69057908I69267858I69115724I68585569I67915217I67479192I67672954I68605445
2511I69893894I70950830I71369729I71035710I70180161I69321174I68940277I69196979
2503I69844329I70396423I70575183I70509305I70450614I70462489I70362734I69966711
2495I69353925I68814269I68633571I68925963I69499871I69900332I69807639I69355426
2487I68863835I68560317I68647510I69169040I69714196I69892582I69830390I69791888
2479I69666694I69224481I68694887I68487188I68546879I68589256I68688325I69016906
2471I69427742I69706383I69937959I70206975I70399548I70526368I70639062I70461864
2463I69611628I68190296I66702398I65533330I64785474I64754098I66129802I68342867
2455I69850704I70318106I70085030I69499184I68899962I68605320I68695137I69015218
2447I69487058I70117220I70678127I70877076I70749318I70587684I70587997I70635749
2439I70458364I69891707I69074534I68471562I68593319I69278296I69719259I69875268
2431I70312043I70963893I71290725I71215595I70894202I70339295I69650568I69100536
2423I68787893I68707513I68974029I69381302I69489746I69516685I69938147I70584809
2415I70904640I70848074I70857137I71192532I71585992I71591305I71165092I70701753
2407I70458239I70281229I69983649I69705696I69662068I69760886I69777450I69695508
2399I69703821I69898394I70219163I70727442I71467797I72097584I72194777I71821943
2391I71490236I71582117I71828006I71670934I70964143I70223726I70343983I71288162
2383I71937325I72113772I72469418I72988573I72772873I71697248I70314043I68915275
2375I67720144I67318558I68209609I69897019I71414107I72184026I72042331I71258348
2367I70614061I70717067I71118027I70952643I70231289I69713196I69773575I70127220
2359I70492741I70941705I71484986I71710749I71350353I70584309I69746636I69268358
2351I69484558I70132220I70473740I70286917I70003025I70005713I70275791I70527368
2343I70579621I70621811I70867075I70938579I70449926I69618691I68849709I68369181
2335I68187733I68208797I68421247I68951027I69599502I69874893I69927709I70450364
2327I71686748I72836126I73226024I72978260I72552673I72303471I72192402I72025267
2319I71914198I72050894I72075833I71473048I70353108I69435993I69546562I70603560
2311I71746251I72599050I73198960I73560043I73601796I73232399I72483919I71589304
2303I70839074I70282542I69745886I69336674I69724759I71112402I72405414I72966759
2295I73073328I73055202I73026012I72932007I72635115I72136649I71635682I71269348
2287I70992708I70890452I71384168I72565486I73589545I73648798I73033013I72605363
2279I72841939I73423160I73707177I73468225I72980197I72589862I72381288I72291782
2271I72319347I72450042I72576924I72673304I72811937I73006886I73304028I73844872
2263I74613104I75253766I75417338I75171136I74843930I74576664I74268334I73954941
2255I74065822I74863243I75818986I76276450I76127941I75730543I75461590I75341021
2247I75178199I74983375I75000501I75282893I75510906I75435776I75209701I75109320
2239I75158010I75287830I75588473I76095189I76593468I76781166I76514651I75916679
2231I75304644I74946998I74839617I74806803I74833492I75101945I75659539I76297764
2223I76844045I77387639I78032676I78559144I78610585I78211312I77804663I77771411
2215I78120619I78582145I78855849I78880975I78882788I79031484I79122989I78889538
2207I78501641I78404323I78738154I79157679I79332751I79410068I79710648I80164174
2199I80397750I80313120I80163174I80093858I79983289I79713461I79358878I79115051
2191I79139240I79382129I79603454I79694522I79847406I80222615I80648577I80885653
2183I81013786I81279551I81643385I81787643I81599132I81343367I81261550I81260862
2175I81134105I80868902I80607512I80516319I80775772I81425747I82194166I82743635
2167I82995963I83010588I82761011I82231606I81603882I81198359I81247299I81684449
2159I82177103I82473620I82667506I82973211I83411987I83887201I84359791I84739251
2151I84817068I84573366I84363854I84550365I85050456I85456354I85492357I85150212
2143I84515488I83768757I83280166I83392985I84054774I84830381I85343035I85622364
2135I85920256I86244525I86303841I85966759I85484356I85162713I85086771I85234092
2127I85570424I85971072I86267964I86398971I86380595I86202835I85906255I85720245
2119I85928882I86520853I87123701I87428843I87537912I87719860I88001564I88219076
2111I88308582I88310582I88225077I88058755I87917434I87902746I87972125I87999689
2103I87953624I87921372I87976500I88151635I88539532I89204821I89932613I90321323
2095I90239755I89985303I89884735I89937176I89979490I90038556I90265944I90550898
2087I90501146I89959302I89290138I88948118I88965432I89043061I88939430I88657227
2079I88410400I88452090I88804360I89203508I89386831I89330641I89160443I88965869
2071I88791609I88710355I88805985I89069438I89382956I89631533I89759165I89722163
2063I89522777I89299639I89227510I89329078I89518714I89775854I90151688I90670405
2055I91284003I91827972I92030046I91695277I90912482I90058870I89572029I89594593
2047I89821481I89836045I89578155I89317077I89274762I89443835I89661222I89742227
2039I89650346I89526589I89436272I89234635I88850300I88491092I88396962I88551221
2031I88712792I88590723I88050879I87333963I86954441I87167891I87697234I88147510
2023I88451090I88709105I88871552I88832174I88636788I88404587I88203951I88072880
2015I87973750I87751737I87333900I86898125I86692176I86772555I87007381I87214518
2007I87253646I87117263I86949628I86877186I86827434I86584482I86060139I85530359
1999I85497232I86118455I86870124I87064385I86629797I86080641I85842814I85920694
1991I86066640I86016449I85717120I85446791I85543172I86020950I86590982I86931127
1983I86842309I86319217I85612864I85097709I84969826I85086771I85163275I85160337
1975I85360911I85917319I86501477I86662924I86349781I85840814I85374100I85050394
1967I84912011I84931387I84998703I84984515I84814067I84545989I84385668I84480986
1959I84682372I84681872I84457859I84384855I84745001I85293783I85515795I85233279
1951I84778065I84564116I84630119I84677435I84502237I84215970I83991958I83797759
1943I83527806I83264041I83207037I83383672I83592809I83668501I83639000I83565120
1935I83396861I83122657I82847579I82544999I81987092I81182858I80615200I80707206
1927I81230611I81571818I81458311I81108729I80778022I80506319I80263180I79996727
1919I79532075I78733154I77785412I77043807I76592906I76220947I75820861I75489904
1911I75210888I74766050I74051947I73229837I72494857I71893384I71369292I70827135
1903I70190286I69503309I68908900I68442123I67955470I67309995I66534825I65799595
1895I65322005I65257939I65545768I65883850I65971230I65746217I65328068I64818539
1887I64279570I63806855I63453960I63099377I62489967I61436219I60016887I58651808
1879I57886764I57987207I58764627I59807625I60824371I61791677I62856113I64058682
1871I65112493I65560019I65238001I64531647I64074558I64177002I64616027I65031114
1863I65381821I65872287I66596579I67455191I68276176I68891649I69223980I69354363
1855I69438055I69614316I70013839I70692690I71518175I72248718I72727495I72936570
1847I72941320I72842627I72723057I72598675I72459105I72363787I72436416I72670929
1839I72806312I72553798I71892322I70977582I69885206I68593882I67068981I65291004
1831I63359017I61502848I59820938I58176906I56497746I54935031I53606454I52431824
1823I51349324I50494212I50008622I49775858I49498467I48996251I48216331I46967071
1815I44937767I42014036I38330198I34043826I29316803I24458835I19794191I15343997
1807I10850988I06222408I01820779H98185882H95560731H93836131H92866200H92679939
1799H93427795H95229837H98023123I01498823I05232164I08900000I12376263I15655452
1791I18721004I21488351I23866426I25846165I27529763I29116479I30783388I32465360
1783I33838626I34660299I35063260I35439406I36140759I37362517I39172997I41501381
1775I44078842I46517483I48552475I50164068I51426579I52369258I53048360I53574265
1767I53976413I54178487I54167174I54066981I53985539I53825155I53281873I52078679
1759I50191070I47774681I44906578I41507694I37520589I33119585I28766271I25062683
1751I22513911I21396721I21741054I23306644I25661280I28461879I31624061I35107012
1743I38665655I41992534I45015021I47854998I50550341I52980043I55047413I56796013
1735I58313726I59595362I60585545I61379340I62250578I63343829I64458081I65284441
1727I65730091I65927290I66109488I66519512I67218927I67968908I68436810I68500001
1719I68327241I68267863I68584256I69161039I69589189I69644505I69534436I69591627
1711I69883769I70237289I70527368I70778258I71012021I71167593I71224846I71267786
1703I71352916I71409857I71330540I71133653I70984895I71016584I71196969I71452734
1695I71786003I72133148I72298220I72222966I72161025I72428790I73089203I73921064
1687I74572039I74768488I74528599I74180954I74079948I74272272I74498222I74510473
1679I74317962I74142202I74212831I74558538I74938060I75061442I74911434I74723173
1671I74654856I74638855I74558538I74441657I74416780I74533474I74735861I74998689
1663I75312332I75516781I75415213I75097382I74914684I75087944I75517906I75950994
1655I76204696I76254574I76167631I76006934I75841050I75776484I75881615I76109503
1647I76339766I76466211I76447085I76319077I76181194I76174319I76404582I76794605
1639I77087997I77124374I77007242I76917299I76903049I76927175I76962864I76990366
1631I76974240I76885735I76750790I76658972I76697599I76903049I77254006I77619465
1623I77771911I77630528I77398765I77301009I77323948I77347387I77325135I77237255
1615I77068183I76893798I76829607I76889673I77028181I77235880I77487207I77717033
1607I77947609I78271065I78592646I78622585I78296004I77991361I78102993I78541081
1599I78885788I78919165I78754155I78516204I78217999I77985611I78065741I78472202
1591I78852724I78873350I78580895I78282566I78189685I78257502I78292504I78161496
1583I77921732I77767473I77848791I78138995I78460701I78620898I78582395I78538393
1575I78687776I78904226I78876287I78640149I78600584I78895413I79184368I79224432
1567I79208432I79380879I79712211I80076919I80419314I80626013I80504756I80035854
1559I79481135I79110676I78964480I79014920I79351315I79975101I80588511
1552I80871340I80911842I81124042I81674886I82171915I82120600I81578256
1545I81054038I80856152I80885528I80983659I81122354I81307615I81502251
1538I81619258I81571880I81399558I81272363I81340367I81642259I82057096
1531I82307673I82232481I82058721I82141976I82512747I82909833I83116782
1524I83111157I83039653I83101531I83348670I83634249I83756131I83578559
1517I83139033I82740760I82740823I83156534I83665939I83998583I84106839
1510I83999770I83667189I83212350I82887331I82863892I83007213I83035402
1503I82890769I82755636I82725884I82741073I82801389I82923458I82916020
1496I82563250I82023156I81729139I81897149I82371677I82919958I83447364
1489I83912765I84210720I84210220I83879389I83345108I82839579I82606065
1482I82759449I83125095I83325232I83195912I82996900I83022839I83207350
1475I83323606I83339357I83365171I83450676I83580621I83690565I83645000
1468I83371297I82992087I82654005I82328362I81989779I81866772I82233919
1461I82977211I83637687I83929391I83987707I84069712I84246660I84450671
1454I84615181I84665309I84491924I84078838I83654313I83568871I83895514
1447I84265223I84295037I84027710I83716567I83424112I83200599I83348858
1440I84017959I84731625I84832694I84297850I83718192I83568871I83828386
1433I84236347I84632619I85020204I85460542I85957071I86404972I86629360
1426I86463225I85870441I85083333I84509050I84335727I84294412I83967519
1419I83243789I82276046I81074414I79435570I77349137I75228827I73521603
1412I72231654I71061587I69869018I68655073I67286306I65737217I64508146
1405I64196315I64661842I65147620I65202686I65105368I65462388I66747025
1398I68999030I71568928I73427223I73875186I72839689I70846512I68852209
1391I67675016I67532133I68207547I69279109I70354671I71266598I71819068
1384I71631869I70701316I69806952I69782388I70586184I71519300I72075583
1377I72341348I72773685I73649486I74782551I75873614I76947926I78168809
1370I79354627I80109421I80466942I80902654I81609883I82294297I82780325
1363I83266041I83856450I84339290I84556053I84637870I84827006I85282157
1356I86004261I86831309I87556038I88028503I88127884I87832929I87371840
1349I87045259I86892812I86765055I86658736I86748429I87151515I87790052
1342I88398212I88655039I88471091I88134321I88011189I88140134I88292831
1335I88352772I88368710I88286643I87992938I87647106I87638543I88124321
1328I88809610I89196258I88954431I88158760I87305274I86980192I87328337
1321I87869369I88014377I87716610I87389779I87272397I87274584I87393341
1314I87746299I88075443I87622104I85722995I82435680I78473952I74452470
1307I70180911I64886918I58236472I51036556I44909140I41357810I41077982
1300I43889144I48905558I54682517I59777936I63715913I67107546I70529868
1293I73800307I76607594I79067361I81246674I82819202I83524931I83471803
1286I83017464I82826015I83656501I85496982I87416218I88756295I89755040
1279I90561899I90671968I89870797I88785359I87920934I86982818I85634490
1272I84323977I83908203I84841194I86977817I89797042I92501386I94279489
1265I94856647I94499876I93463504I92080862I91274315I91769219I92921160
1258I93490193I92939099I91386509I89262574I87566789I87595103I89597843
1251I92153741I93471192I92949974I91272753I89646659I89196258I90279945
1244I92068923I93326559I93614263I93278243I92657707I91885850I91137370
1237I90614090I90394077I90426579I90561337I90621527I90636528I90877355
1230I91413886I91727841I91154058I89788667I88568409I88275642I88776421
1223I89390144I89707412I89832419I90012805I90300634I90639966I91115306
1216I91850848I92683521I93206552I93103921I92249121I90718533I89049249
1209I88237577I88961307I90762348I92415381I93205927I93452316I93635701
1202I93640952I93264117I92889221I92969725I93187051I92870282I92110426
1195I91761156I92246496I93008978I93350310I93230115I92997227I92763714
1188I92312563I91550894I90945171I91283691I92745525I94337304I94815269
1181I94106729I93064481I92272748I91957980I92453133I93883778I95824015
1174I97693748I98891692I98502482I96135908I93106296I91395010I91638961
1167I93103171I94759079I95562563I94906150I93381249I92123739I91573645
1160I91561519I91838535I91916415I91250501I90019243I89095377I89087814
1153I89746164I90442392I91049115I91891788I92845468I93266180I93118422
1146I93202926I93821587I94147356I93484005I92465009I92243496I93090045
1139I94402871I95520623I96042340I95808827I95181978I94940339I95269671
1132I95428742I94914713I93955907I92730774I91301067I90342199I90917482
1125I93037917I95130538I95718259I94981904I94051788I93551259I93572510
1118I94184358I94977029I95021406I94055601I92882845I92213682I91927165
1111I91651024I91419761I91500703I91849786I92115864I92173367I92084737
1104I91688464I90936358I90423454I90753348I91589646I92088550I91959605
1097I91544643I91242376I91248876I91580895I92138553I92763151I93127235
1090I92791465I91706528I90352637I89259699I88650601I88472591I88610411
1083I88931242I89149693I88988433I88609036I88552846I89040061I89651472
1076I89908299I89848420I89809106I89913862I90073371I90284008I90620402
1069I91038802I91448075I91883600I92423506I92984914I93342997I93397563
1062I93339997I93427314I93624701I93688392I93571573I93521695I93739270
1055I94115229I94464624I94697075I94739828I94612758I94478125I94429310
1048I94405996I94423059I94659010I95194291I95813202I96211412I96329107
1041I96319169I96212100I95910083I95668756I95956585I96734505I97532426
1034I97987952I98062019I97804067I97223596I96508055I96076342I96165347
1027I96559745I96960456I97208845I97264661I97278912I97469860I97822630
1020I98059019I97996453I97763190I97534364I97252723I96755131I96123032
1013I95656943I95472370I95380865I95196166I94999843I95009156I95237669
1006I95470620I95521373I95370176I95191666I95268796I95623566I95946335
999I96072717I96124595I96267291I96460552I96528868I96450364I96382547
992I96374484I96280166I96039340I95884831I96103344I96524931I96765069
985I96800196I96775945I96707691I96565120I96419987I96379422I96470552
978I96688440I96964456I97062524I96753069I96085468I95521248I95661193
971I96428175I97134653I97401106I97383230I97382355I97455672I97360041
964I96857387I95975086I94993405I94435560I94551942I94868335I95006530
957I94944777I94771329I94618633I94599132I94661511I94630946I94455186
950I94347305I94644322I95324986I96042153I96593872I96937017I97135653
943I97353478I97720562I98136649I98363912I98416852I98595363I99035700
936I99368970I99462725I99748304A000352964A000897870A001153698A001144635
929A000928935A000561413A000194642A000180954A000712110A001396649A001867239
922A002014185A001898241A001755107A001784547A001871364A001836049A001798735
915A002040686A002490025A002835420A003011555A003239318A003756473A004423011
908A004843348A004791345A004363883A004019550A004397260A005066048A005173242
901A004944604A004976918A005679959A006693767A007500751A007995342A008143538
894A007939527A007637384A007788830A008555562A009252852A009481678A009394736
887A009262603A009226413A009166910A008937772A008616003A008312423A007908150
880A007132043A005626893A003205754A000304586I97377792I94502064I91922103
873I90067996I88940055I87834054I85707181I81509939I74410405I64132812
866I51103873I36213263I20588362I05565495H92388735H81594987H73050932
859H66728505H63120171H62957600H66745693H74328943H84473716H95107517
852I04830828I14293686I25217067I36579472I45158530I51057557I56568313
845I62882302I68864397I73258463I76344829I78532830I79831780I80521757
838I81573005I83653750I85479606I86577419I87526474I88615287I89941051
831I91478139I92959475I94117229I94882961I95224918I95273483I95828015
824I97707499I99818621A001019877A001707855A002588280A003797163A004730279
817A005027421A004859349A004412573A003774099A002869984A001223764I98292345
810I94015786I87720985I77799288I64094685I48629230I33362787I19881384
803I10383898I08044326I16670261I31570746I40851469I43321361I41711706
796I36578597I26995419I12544898H96132514H82236962H71773421H62648332
789H52913895H43259026H36520574H33977053H35021800H38673699H43684988
782H48622460H52876706H57147514H62797528H71452277H84262641H98944926
775I10740606I18495179I24039874I28985972I33704119I37428646I39543393
768I40322188I40413318I40368128I40093550I38845853I36334520I32996515
761I30064471I29443185I32521300I38556524I45190594I50428584I53025171
754I52226625I47724740I39638586I30304360I24809356I25601901I31614311
747I41105733I51326198I59196652I63766166I65917227I66717586I66876908
740I66982476I67730894I69370989I71142591I72357411I72969384I73106329
733I72804750I71932574I70315606I68119792I66061486I64960922I65027301
726I66026171I67753021I69936334I72242467I74557976I76820794I78834472
719I80578448I82348488I84460797I86821683I88914116I90399015I91299442
712I91730841I91839660I91840410I91986919I92574203I93803899I95461307
705I97086150I98484544I99710802A000793427A001736356A002636658A003603901
698A004567832A005325813A005797403A006046980A006130422A006035729A005738900
691A005227933A004485702A003462331A001993309I99828746I96849074I93106733
684I88583410I83141158I76844608I70143909I63605469I57621374I52273878
677I47320654I42442748I37635096I33390413I30431430I29080977I28826462
670I28610950I27560389I25482519I22963562I21128518I21178334I23854800
663I29032787I35827616I43141351I49987808I55558942I59349786I61161390
656I60855373I58232659I53266872I46391976I38470644I30448868I23035816
649I16650697I11436522I07109897I02921905H98059000H92163222H85430334
642H78358426H71503905H65318548H60053120H55812125H52706258H50947782
635H50841026H52697945H56684425H62688522H70315149H78981587H88036984
628H96867618I04981837I12087122I18104719I23070193I27067361I30280046
621I32967326I35321150I37443584I39466826I41543946I43692195I45763002
614I47607358I49232015I50787104I52426949I54156486I55801206I57154784
607I58182406I59065519I60026200I61132389I62318520I63572342I64991299
600I66598892I68200546I69525123I70468490I71116465I71553240I71707999
593I71383918I70421800I68845021I66845781I64680156I62648414I61081011
586I60127706I59543297I58817818I57534869I55572818I53107426I50553528
579I48403092I46982135I46333160I46244405I46286407I45930512I44854637
572I43193916I41458191I40244184I40030734I41115109I43561687I47100579
565I51126749I54982659I58341228I61261271I63859483I66030484I67550259
558I68321616I68367119I67654952I66166679I64229067I62628850I62290830
551I63845483I67358123I72195714I77163876I81129980I83703316I85239717
544I86263401I87095699I87922434I88849425I89805105I90588026I91076241
537I91289691I91267940I91010675I90565087I90071558I89609969I89008059
530I87921434I86186897I84079713I82182603I81002285I80701643I81127792
523I82015656I83118845I84206782I85073020I85614801I85874504I86022637
516I86312029I86946065I87923122I89083564I90293696I91453075I92391255
509I92929848I93053293I92971913I93092358I93860964I95398616I97236659
502I98556485I98733245I97643433I95582501I93048042I90642716I89056437
495I88856051I90129312I92504324I95662506I99585357A004156683A008867955
488A013173954A016893168A020053788A022618374A024577549A026097262A027357022
481A028394832A029242131A030014738A030741030A031267623A031465134A031374191
474A031076549A030585333A029944609A029266882A028530715A027398024A025377783
467A022202037A018006045A013256708A008765324A005712961A005218182A007578756
460A011985448A016991924A021210042A023802004A024691806A024450479A023929074
453A023901760A024807187A026582102A028740039A030696465A032018228A032452878
446A031901909A030445513A028362705A026159828A024541234A024137899A025080453
439A026855118A028665410A029921482A030426136A030302692A029874480A029489645
432A029323573A029341011A029391889A029253131A028710725A027773171A026690046
425A025614296A024407914A022907953A021217730A019603887A018209994A016951359
418A015648721A014259016A012966129A012005074A011462792A011325347A011594863
411A012247338A013162953A014191700A015233197A016219004A017090555A017842785
404A018575765A019419939A020361743A021194604A021684132A021738135A021456181
397A021107349A020964216A021028282A021034907A020763641A020157794A019160487
390A017645649A015501025A012685675A009278666A005424757A001171011I96630874
383I92448883I89725476I89227822I90823227I93612075I96341357I97880446
376I97767190I96421612I94739015I93454378I92823530I92740087I93025041
369I93541571I94082102I94307803I93909342I92812591I91229063I89540778
362I88093944I87048446I86419348I86248400I86659674I87747112I89500525
355I91837910I94565818I97262723I99358344A000385966A000068698I98244092
348I94987154I90849478I86746554I83519805I81640822I81186046I81886961
341I83239289I84698686I85788561I86128393I85589300I84367729I82577063
334I79822842I75596098I70096968I64276258I59075395I55026286I52544706
327I52038927I53416756I55763204I57914641I59427665I60839622I62980183
320I66214119I70350983I74965812I79597579I83878951I87742611I91396510
313I94952840I98274532A001251891A003927608A006240366A007943589A008894019
306A009198974A009007213A008322924A007063601A005248871A003147875A001236140
299I99976255I99695113A000614229A002721413A005533763A008313423A010761877
292A013296773A016408640A019958345A023348478A026142577A028223947A029519459
285A029871792A029157688A027396149A024751122A021377864A017171309A011724558
278A004621773I95661631I84705061I71507862I55993217I38747722I21115330
271I04750511H91214792H81941945H78077659H79835323H85927050H93879696
264I01279748I07098334I12117248I18124157I26440450I36930055I48201080
257I58511862I66420256I70979019I71754501I68759516I62480029I54050980
250I45173218I37566904I32451421I30433430I31629499I35877619I43040407
243I52978668I64921857I76950926I86471413I91323255I90322510I83018589
236I69415679I50027873I26060928H99330636H71934430H46022435H23629331
229H06605161G96836035G96224062H05867618H24841963H49697835H75610455
222H98504463I16460186I29818770I40348877I49936993I59551297I69048033
215I77562712I84159780I88441402I90624215I91208936I91124244I92432694
208I96394923A000194705A001132384I99033450I94780580I89682848I85088458
201I82116537I81377307I82631129I85125085I88280142I91729404I94877336
194I96864513I96843136I94072727I88559971I82398116I79600517I83088343
187I91649212A000644356A005862844A006584761A005181493A004140995A003324698
180I99913564I91846161I81655698I75200388I75648976I80436877I84864258
173I87136451I89102627I93202864A000023882A008558000A017659900A026684108
166A034928584A041334266A045284369A047186666A047821453A047541374A046354993
159A044310625A041506901A038093891A034550812A031691084A030100930A029825289
152A030776844A032857152A035429425A037457292A038563481A039340651A040420276
145A041732476A042736347A043124182A043282878A043859036A044791840A045138173
138A043934791A040782796A035618686A029001679A023022459A020681637A023303538
131A029132374A035154159A039696796A042634028A043825597A042402640A037565236
124A029787475A021187478A014509468A011590175A012825434A017571395A024321284
117A030900289A035302543A036299350A033377244A027022940A019338122A013259959
110A010135716A008157852A003779974I95172040I83589934I71594555I61655606
103I55525440I53007920I51658530I48659732I42614133I33770185I23553471
96I14202556I08475226I08459787I13786970I21650236I29359056I36955994
89I46349723I58236597I70906953I81164419I85572611I81722327I70095656
82I55130230I43987650I43069909I53023046I67096545I77500333I82750198
75I86732178I92794778A000567289A007720076A013229707A018173555A023542677
68A028770041A033177045A037341098A042103560A046858585A049822318A050037580
61A048480928A047099348A046847521A047326049A048518930A050997511A054002184
54A055043243A052741236A049135653A047626066A048900140A050597613A050799999
47A050148336A050447229A052563601A055500270A057679271A059020474A060336925
40A061217100A060088534A056261439A051108891A047208730A045811962A045535508
33A044467884A043565832A044471322A045760834A046168357A046894524A049538926
26A053070505A054940737A054790855A055005617A057691522A062507425A067698598
19A071806211A073741822A073409054A072780017A072938776A072189982A068713658
12A063682242A060491684A061349483A064971942A066752169A063603613A058296682
5A055466143A056419449A059518002A064093891A070881783
##END=


$$ === CHEMSPECTRA PEAK TABLE EDIT ===
##TITLE=X8419
##JCAMP-DX=5.00
##DATA TYPE=INFRAREDPEAKTABLE
##DATA CLASS=PEAKTABLE
##$CSTHRESHOLD=0.93
##MAXX=3997.453
##MAXY=1.0239409246763647
##MINX=373.96442
##MINY=0.7592946326475967
##$CSSOLVENTNAME=- - -
##$CSSOLVENTVALUE=0
##$CSSOLVENTX=0
##NPOINTS=23
##PEAKTABLE= (XY..XY)
485.870439476153, 0.8993296664716437
505.70188596559774, 0.8663247861570892
623.2740330101919, 0.9299699113642884
694.1006276153244, 0.7592946326475967
722.4312654573882, 0.887279276213199
752.1784351915558, 0.8373518025212188
835.7538168256447, 0.9078826951384912
1154.473492548866, 0.917659107701019
1178.5545347146208, 0.8964314505355663
1272.045639593432, 0.8113784236254018
1315.9581282486315, 0.8784059325451975
1403.7831055590304, 0.9202053589649947
1434.9468071853007, 0.8819160507021708
1449.1121261063327, 0.8863349594694705
1485.9419553010162, 0.7952966134979229
1508.6064655746677, 0.8659285945290919
1586.5157196403438, 0.8229330224416801
2215.455879734167, 0.8974301264402527
2357.1090689444877, 0.9203431054584025
2362.7751965129005, 0.9194762149728796
2851.4786992885065, 0.8786616961023154
2922.305293893667, 0.8512768185532228
3034.2113133698203, 0.9134593053649452
##END=


$$ === CHEMSPECTRA PEAK TABLE AUTO ===
##TITLE=X8419
##JCAMP-DX=5.00
##DATA TYPE=INFRAREDPEAKTABLE
##DATA CLASS=PEAKTABLE
##$CSTHRESHOLD=0.93
##MAXX=3997.453
##MAXY=1.0239409246763647
##MINX=373.96442
##MINY=0.7592946326475967
##NPOINTS=189
##PEAKTABLE= (XY..XY)
3994.6199362157936, 0.9248197120078293
3980.4546172947616, 0.9232939525972662
3969.1223621579356, 0.9239642067831292
3959.2066389132133, 0.9240581440058949
3942.208256207975, 0.9239118139851679
3933.709064855356, 0.9226068298396056
3920.960277826427, 0.9240001486945462
3912.4610864738074, 0.9254404352072503
3903.9618951211883, 0.9237076679335203
3894.046171876466, 0.9236378115053181
3879.880852955434, 0.9235680742795285
3854.383278897576, 0.9200081276068914
3843.0510237607505, 0.9236807272346761
3831.718768623925, 0.9255711478047013
3823.2195772713058, 0.9235531730243467
3803.3881307818606, 0.9237781804518009
3792.055875645035, 0.9258194607342283
3776.4740248319, 0.9246884625227124
3772.2244291555903, 0.9247203515521044
3759.4756421266616, 0.9264318388111549
3752.392982666145, 0.9252240704315119
3735.394599960907, 0.9224536461569695
3725.4788767161845, 0.9255963014209774
3718.3962172556685, 0.9247372191702828
3704.2308983346365, 0.9243130130681094
3697.1482388741206, 0.9250136056983825
3680.149856168882, 0.9232825082120469
3657.4853458952307, 0.9268361371568214
3650.4026864347147, 0.9244728730394649
3630.5712399452696, 0.9243781605242083
3610.739793455825, 0.9258598732129236
3602.2406021032057, 0.9274952454403059
3590.90834696638, 0.9271962085465927
3568.2438366927286, 0.9287822290679614
3554.0785177716966, 0.9297629635791376
3545.5793264190775, 0.9298830671618761
3528.5809437138387, 0.9295945811120979
3511.5825610086004, 0.9324216885178324
3497.4172420875684, 0.9330252456162339
3477.5857955981237, 0.9337030095540844
3449.2551577560594, 0.9350392857633567
3435.0898388350274, 0.9356896922707287
3416.6749242376854, 0.9387083693967823
3405.34266910086, 0.9376749436048039
3388.3442863956216, 0.9393977570002804
3375.595499366693, 0.9400018500327285
3355.7640528772477, 0.9420831251085978
3350.097925308835, 0.9421008872216796
3337.349138279906, 0.9439731880713855
3324.6003512509774, 0.9430800120234775
3317.517691790461, 0.94256723376072
3304.768904761532, 0.9428532766378516
3292.0201177326035, 0.943346445626943
3275.021735027365, 0.9436749855945598
3266.522543674746, 0.9433915060461067
3252.357224753714, 0.9425544190245666
3243.8580334010944, 0.9411788031583114
3221.1935231274433, 0.9409287021925968
3204.1951404222045, 0.9397891805317776
3195.6959490695854, 0.9401187341967102
3188.6132896090694, 0.9397410790206664
3175.8645025801407, 0.9392862359912418
3171.614906903831, 0.9394679109577041
3158.8661198749023, 0.9392311024914124
3150.366928522283, 0.9387291716481925
3143.284269061767, 0.9387283963557016
3134.7850777091476, 0.9388993431050389
3122.036290680219, 0.9376052063790141
3105.0379079749805, 0.93513358059336
3055.4592917513683, 0.9204886001086228
3034.2113133698203, 0.9134593053649452
3017.2129306645816, 0.9193601051477694
2981.7996333620013, 0.9272648739042891
2922.305293893667, 0.8512768185532228
2851.4786992885065, 0.8786616961023154
2806.149678741204, 0.923358921726556
2799.067019280688, 0.9245667501842149
2779.2355727912427, 0.9259499358804736
2767.903317654417, 0.9270715161477825
2756.5710625175916, 0.9289014381557964
2749.4884030570756, 0.9289608047716986
2733.9065522439405, 0.929222647651854
2722.574297107115, 0.9296974585158012
2709.825510078186, 0.9305192876285412
2698.4932549413606, 0.9308986707627568
2688.577531696638, 0.9315936017552457
2678.6618084519155, 0.9313608452173596
2667.3295533150895, 0.9319731040918737
2657.413830070367, 0.9315235660466151
2641.831979257232, 0.9326314370828673
2630.4997241204064, 0.9326259537718924
2620.584000875684, 0.9328205626769206
2613.501341415168, 0.932417933165029
2605.002150062549, 0.933153097355785
2597.919490602033, 0.9332124038936712
2592.25336303362, 0.9337920594779376
2578.088044112588, 0.933559422142464
2559.673129515246, 0.9353633570709337
2546.924342486317, 0.9357602639134059
2538.425151133698, 0.9365101500789154
2529.9259597810787, 0.9374455857661029
2520.0102365363564, 0.9371605556326681
2505.8449176153244, 0.9372779766843157
2498.7622581548085, 0.9371463695919613
2488.846534910086, 0.9361958543227827
2473.2646840969505, 0.9370321078810545
2466.1820246364346, 0.9374048156801701
2444.934046254886, 0.9363271038078996
2425.1025997654415, 0.9379502582648104
2415.186876520719, 0.9375990669779607
2405.2711532759968, 0.9379502582648104
2362.7751965129005, 0.9194762149728796
2357.1090689444877, 0.9203431054584025
2341.527218131352, 0.9226573153989669
2328.7784311024234, 0.9248032019968885
2279.1998148788116, 0.9408968131632048
2267.867559741986, 0.9421865384463477
2256.53530460516, 0.9418311760286799
2246.6195813604377, 0.9412033598089057
2238.1203900078185, 0.9414820121364621
2215.455879734167, 0.8974301264402527
2192.791369460516, 0.9372418564460896
2172.959922971071, 0.9382738518091179
2158.794604050039, 0.9452983183782796
2148.8788808053164, 0.9417627500294278
2137.546625668491, 0.9433166431165795
2123.381306747459, 0.9444589064328861
2107.7994559343233, 0.9424387259310907
2085.134945660672, 0.9424024264124361
2072.3861586317435, 0.9468383239075654
2065.3034991712275, 0.9457625793519109
2052.5547121422987, 0.9449844403074004
2041.222457005473, 0.9459502745170141
2028.473669976544, 0.945413415459693
2015.7248829476152, 0.9455722016557168
2007.2256915949959, 0.9432132288252102
1997.3099683502735, 0.9470568944047446
1988.8107769976543, 0.9462225480850729
1978.8950537529317, 0.9487943096189427
1968.9793305082094, 0.9444094345708407
1959.063607263487, 0.9474696561216988
1944.898288342455, 0.9454370184909874
1933.566033205629, 0.9444869209070622
1925.06684185301, 0.9452678607314569
1909.4849910398748, 0.9426265402986064
1900.9857996872556, 0.9427030730155278
1893.9031402267397, 0.9439010667973459
1876.9047575215009, 0.9472681926011421
1869.822098060985, 0.9474414633207136
1857.0733110320562, 0.9482847498213228
1842.9079921110242, 0.9494889421285908
1830.159205082095, 0.9498776240046006
1801.8285672400311, 0.9488510537817699
1793.329375887412, 0.9490339798967539
1773.4979293979668, 0.9496949954188384
1760.749142369038, 0.9501666469420447
1750.8334191243157, 0.9493482756528865
1742.3342277716965, 0.9511230632074515
1733.8350364190774, 0.948312942622308
1723.9193131743546, 0.9484689280384476
1718.2531856059418, 0.9482287809509865
1586.5157196403438, 0.8229330224416801
1508.6064655746677, 0.8659285945290919
1485.9419553010162, 0.7952966134979229
1449.1121261063327, 0.8863349594694705
1434.9468071853007, 0.8819160507021708
1403.7831055590304, 0.9202053589649947
1315.9581282486315, 0.8784059325451975
1272.045639593432, 0.8113784236254018
1188.4702579593431, 0.9023569271250166
1178.5545347146208, 0.8964314505355663
1154.473492548866, 0.917659107701019
1116.2271314620793, 0.9352160143065099
1090.7295574042219, 0.946917180594721
1073.7311746989835, 0.9429922151553843
912.246538999218, 0.9433467431561646
898.0812200781857, 0.9466961068468791
881.0828373729473, 0.9405055088341201
858.4183270992962, 0.9356779503562879
835.7538168256447, 0.9078826951384912
752.1784351915558, 0.8373518025212188
722.4312654573882, 0.887279276213199
694.1006276153244, 0.7592946326475967
670.0195854495696, 0.9451552077763092
655.8542665285377, 0.9358603405372251
640.2724157154025, 0.9341659593011782
623.2740330101637, 0.9299699113642884
505.70188596559774, 0.8663247861570892
485.870439476153, 0.8993296664716437
##END=

##END=

