##TITLE=X7678
##JCAMP-DX=4.24
##DATA TYPE=INFRARED SPECTRUM
##DATE=29/10/2018
##SAMPLING PROCEDURE=Diamant-ATR
##ORIGIN=ComPlat
##XUNITS=1/CM
##YUNITS=TRANSMITTANCE
##RESOLUTION=4
##FIRSTX=3997.453
##LASTX=373.96442
##DELTAX=-1.4165319
##MAXY=0.96429169
##MINY=0.71823734
##XFACTOR=1
##YFACTOR=8.9806662e-010
##NPOINTS=2559
##FIRSTY=0.96056592
##XYDATA=(X++(Y..Y))
3997+1069593170+1070147359+1070759157+1070963842+1070832098+1070563167
3989+1070175831+1069796461+1069788364+1070327620+1071203238+1072126577
3980+1072823462+1072893681+1072158833+1071112112+1070498920+1070533366
3972+1070869132+1071124457+1071116028+1070862495+1070568343+1070414962
3963+1070371955+1070358681+1070447218+1070699092+1070884331+1070548167
3955+1069490827+1068180551+1067448424+1067667512+1068445434+1069168336
3946+1069580958+1069802500+1070139527+1070831500+1071666302+1072176421
3938+1072218168+1071871518+1071079127+1069932785+1069085506+1069156057
3929+1069765732+1070019995+1069647991+1069144110+1069102629+1069473505
3921+1069608302+1069012632+1067897351+1067093743+1067217855+1068110133
3912+1069352645+1070704004+1071769241+1071873774+1070761148+1069167539
3904+1068291124+1068482070+1069097651+1069738984+1070405206+1070930060
3895+1071097976+1070891897+1070535092+1070471510+1070902383+1071392061
3887+1071317528+1070352840+1068749607+1067189183+1066359692+1066780079
3878+1068101173+1069208755+1069341627+1068355834+1066706076+1065440534
3870+1065749818+1067711648+1069878959+1071026761+1070976851+1070198928
3861+1069290589+1068566625+1068149689+1068121084+1068372029+1068421541
3853+1068071306+1068421740+1069855265+1071434803+1072283940+1072018792
3844+1070772232+1069066657+1067546586+1066641498+1066482144+1067051333
3836+1068152079+1069324504+1069990394+1069826593+1069145902+1068666645
3827+1068843455+1069524742+1070095325+1069970881+1069016415+1067823481
3819+1067199139+1067277389+1067983300+1069156854+1070152469+1070385295
3810+1069817235+1068886396+1068374020+1068738789+1069266298+1068931859
3802+1067714170+1066776893+1067202391+1068839340+1070948245+1072664970
3793+1073510922+1073741823+1073707377+1073403734+1072821073+1072244716
3785+1071967489+1071920698+1071731012+1071094989+1070184194+1069649850
3776+1069803961+1070241007+1070513389+1070613475+1070759290+1070961453
3768+1071088352+1071322704+1071960852+1072785631+1073149869+1072639020
3759+1071419273+1070212932+1069712436+1069855132+1069906635+1069040573
3751+1067300220+1066047554+1065867824+1065883753+1065497015+1064951587
3742+1064744313+1064612303+1063842545+1062095886+1059973707+1058973843
3734+1059874617+1061820982+1063894512+1065706877+1066924367+1067344688
3725+1067132371+1066653312+1066126401+1065669378+1065490643+1065803179
3717+1066575726+1067410195+1067750540+1067354245+1066746496+1066859723
3708+1067738727+1068614943+1068918386+1068603461+1068085908+1067955358
3700+1068370768+1068929470+1069237294+1069278974+1069401626+1069961125
3691+1070883402+1071565950+1071356686+1070288793+1068878232+1067509883
3683+1066419557+1065758645+1065556881+1065684842+1065939039+1066344426
3674+1067011909+1067418292+1066916469+1065741057+1065341709+1066529864
3666+1068142588+1068818234+1068158185+1066694263+1065262596+1064374632
3657+1064293993+1065057646+1065903199+1065738668+1064364146+1062647753
3649+1061764037+1061787399+1062217675+1063115196+1064283042+1065130055
3640+1065455534+1065646745+1065858067+1065586747+1064365938+1062411144
3632+1060282327+1058337621+1057021107+1056945511+1057738499+1058603831
3623+1059432725+1060486083+1061862198+1063147120+1063577197+1062840491
3615+1061347167+1059929637+1059420049+1059915899+1060932355+1062253183
3606+1063723079+1064701637+1064659625+1063702039+1062311589+1061005295
3598+1060131734+1059627256+1059083951+1058420517+1058034709+1057962033
3589+1057741221+1057345722+1057576490+1058733651+1059976561+1060571567
3581+1060535661+1060391572+1060492521+1060598115+1060438031+1060311530
3572+1060488273+1060524113+1059899704+1058969397+1058642923+1058924995
3564+1059067292+1059085146+1059483034+1060310136+1061095094+1061420240
3555+1061168963+1060421107+1059535732+1059049903+1059028333+1058917296
3547+1058265079+1057274374+1056620829+1056905756+1058262225+1060087996
3538+1061258762+1061116730+1060138238+1059202753+1058576354+1058039686
3530+1057473750+1056970997+1056676846+1056749388+1057337426+1058376182
3521+1059323149+1059432792+1058571111+1057521403+1057146678+1057364106
3513+1057392181+1056902437+1056447006+1056657200+1057406981+1058039222
3504+1058123445+1057762061+1057354350+1057109710+1056867062+1056441365
3496+1055999806+1055936754+1056327009+1056718061+1056675186+1056400348
3488+1056516429+1057193403+1057874027+1057988449+1057554920+1056961241
3479+1056463002+1056160819+1056276900+1057002390+1057952144+1058267070
3471+1057588902+1056438776+1055404401+1054598338+1054091669+1054057422
3462+1054284607+1054324761+1054187773+1054256798+1054666831+1055206021
3454+1055615524+1055781117+1055813704+1055923547+1056101551+1056101683
3445+1055804014+1055376193+1055086887+1055046268+1055005318+1054577896
3437+1053847627+1053414762+1053614668+1054090475+1054356884+1054401949
3428+1054525198+1054836141+1055072485+1054875167+1054239342+1053612478
3420+1053428501+1053696436+1054179410+1054686145+1055039233+1055066312
3411+1054789616+1054431284+1054192419+1054171512+1054444094+1054995363
3403+1055555193+1055717335+1055337168+1054681234+1054110585+1053738448
3394+1053487238+1053303659+1053169525+1053033798+1052871989+1052710975
3386+1052532904+1052309105+1052265699+1052883670+1054261775+1055665168
3377+1056218959+1055943590+1055551012+1055447209+1055468381+1055325221
3369+1054919104+1054461748+1054283213+1054287593+1054072157+1053886586
3360+1054556657+1056034318+1057061459+1056749786+1055581078+1054520486
3352+1054045609+1054234166+1054915188+1055553667+1055646120+1055323761
3343+1055108789+1055210932+1055446877+1055553733+1055236485+1054330070
3335+1053245851+1052844976+1053565488+1054916581+1055993235+1056377451
3326+1056445347+1056760804+1057292427+1057455166+1056892482+1055959718
3318+1055348451+1055395308+1055912197+1056595210+1057265348+1057613857
3309+1057198845+1056071419+1055063989+1055034255+1055956665+1056938277
3301+1057111370+1056426963+1055485571+1054723445+1054153460+1053864883
3292+1054178946+1055092860+1056036375+1056481519+1056491275+1056420657
3284+1056361124+1056247830+1056308160+1056856310+1057623945+1057905353
3275+1057548349+1057206013+1057358996+1057724827+1057898119+1057900243
3267+1057805865+1057520076+1057239995+1057470763+1058239725+1058838316
3258+1058633233+1057766839+1056875159+1056346920+1056038300+1055699282
3250+1055479531+1055737379+1056406454+1056916707+1056888234+1056754233
3241+1057326076+1058582725+1059357263+1058766703+1057493395+1056866265
3233+1057168116+1057628591+1057603768+1057113228+1056583994+1056500368
3224+1057035044+1057814493+1058266406+1058256119+1058143754+1058167183
3216+1058135392+1057906349+1057773344+1058058602+1058613521+1058982604
3207+1058884576+1058433327+1057970197+1057664961+1057396760+1057189952
3199+1057437910+1058372863+1059597854+1060397944+1060348498+1059613783
3190+1058732854+1057999997+1057280480+1056666691+1056702995+1057487090
3182+1058271052+1058432132+1058152449+1057818873+1057438109+1057007169
3173+1056850469+1057165992+1057641002+1057906548+1058050903+1058320829
3165+1058666750+1058915438+1059020037+1058908535+1058460870+1057714341
3156+1056812771+1055968479+1055615789+1056091728+1057056482+1057759605
3148+1057853187+1057502023+1056983873+1056520080+1056151195+1055699614
3139+1055233830+1055284337+1056086352+1057008695+1057258777+1056824718
3131+1056334642+1056282409+1056681226+1057233822+1057642462+1057803675
3122+1057793387+1057727283+1057650426+1057527708+1057361651+1057241654
3114+1057152187+1056843965+1056115621+1055177814+1054575772+1054696631
3105+1055332389+1055832288+1055850938+1055731339+1055820939+1055825053
3097+1055385220+1054839791+1054743887+1054991380+1055079520+1054996093
3088+1055254537+1056103675+1057108914+1057595339+1057280613+1056415812
3080+1055483846+1054774483+1054131956+1053231116+1052167140+1051410655
3071+1051039315+1050527005+1049491700+1048140806+1046897697+1046057984
3063+1045783876+1046047829+1046662880+1047454541+1048161182+1048348743
3054+1047894043+1047325982+1047234325+1047583896+1047919595+1047984505
3046+1047909839+1047919396+1047994062+1047916276+1047643961+1047375760
3037+1047147314+1046757656+1046242094+1045975088+1046143535+1046458991
3029+1046558546+1046488924+1046646486+1047230874+1047939240+1048440865
3020+1048888132+1049498934+1049956024+1049848771+1049412388+1049203655
3012+1049333740+1049529066+1049651254+1049724592+1049695589+1049489045
3003+1049191044+1049013239+1049058968+1049148700+1048996978+1048616148
2995+1048316686+1048229277+1048108683+1047711791+1047088311+1046469610
2986+1046037144+1045698524+1045041462+1043705103+1041736039+1039382626
2978+1036841851+1034412047+1032371835+1030447239+1027926109+1024499296
2969+1020511589+1016338246+1012004355+1007467835+1002876229+998403424+994062564
2959+989849067+985955606+982682173+980225688+978688228+978169480+978714378
2949+980234714+982500253+985109721+987542578+989386667+990500488+990930167
2939+990783290+990282197+989843956+989841102+990142289+990129214+989403791
2929+988296408+987523397+987550940+988338553+989551464+991007023+992806313
2919+994874334+996693402+997864036+998627224+999533041+1000884997+1002607098
2910+1004358004+1005809582+1007008356+1008299384+1009833924+1011407888
2901+1012741791+1013688957+1014301153+1014854612+1015634858+1016632995
2893+1017671022+1018751657+1019984944+1021235487+1022188891+1022716466
2884+1022877148+1022656268+1022000400+1021001333+1019751985+1018116430
2876+1015886466+1013142533+1010391100+1008345578+1007434916+1007434252
2867+1007716059+1007921540+1008236266+1009025803+1010392759+1012108290
2859+1013817250+1015255155+1016371166+1017361273+1018532769+1019974457
2850+1021424110+1022656733+1023886701+1025524712+1027613640+1029760243
2842+1031607253+1033219379+1034920839+1036820149+1038662247+1040195525
2833+1041467439+1042623737+1043629574+1044380815+1044960424+1045581448
2825+1046286230+1046880374+1047226958+1047414984+1047546795+1047623850
2816+1047759378+1048173925+1048858597+1049546389+1050069252+1050493289
2808+1050932658+1051411783+1051867214+1052198732+1052333662+1052241673
2799+1051944203+1051615074+1051546049+1051864426+1052374479+1052771836
2791+1052938093+1053010237+1053212135+1053618252+1054084369+1054408188
2782+1054512919+1054482456+1054462345+1054510198+1054540197+1054437390
2774+1054182198+1053870126+1053678251+1053752121+1054080055+1054597342
2765+1055332987+1056220818+1056921021+1057141833+1056999735+1056810647
2757+1056694832+1056556119+1056293957+1055944851+1055687269+1055681893
2748+1055875362+1056054893+1056113431+1056119935+1056085887+1055848681
2740+1055355353+1054936492+1055022309+1055582737+1056116749+1056241591
2731+1056005513+1055578688+1055030937+1054515773+1054276244+1054325557
2723+1054435997+1054501769+1054629266+1054885321+1055229383+1055612670
2714+1055961311+1056191349+1056349708+1056591560+1056971196+1057372403
2706+1057632042+1057659917+1057483174+1057209332+1056903565+1056535677
2697+1056125577+1055881534+1056021442+1056444551+1056786754+1056854452
2689+1056758082+1056606560+1056420923+1056367031+1056669744+1057205350
2680+1057537996+1057429746+1057054690+1056691181+1056451055+1056331921
2672+1056306966+1056311811+1056291900+1056273714+1056282475+1056267807
2663+1056215840+1056192345+1056206083+1056207079+1056223008+1056322364
2655+1056521142+1056828169+1057195859+1057411959+1057327271+1057132940
2646+1057105994+1057222407+1057297604+1057298467+1057282803+1057214177
2638+1057021770+1056717132+1056371942+1056114957+1056149868+1056597998
2629+1057304241+1057978759+1058500028+1058839843+1058808914+1058282600
2621+1057609941+1057328665+1057463728+1057560628+1057413087+1057287117
2612+1057386473+1057588171+1057810776+1058171431+1058635821+1058951543
2604+1059051098+1059123441+1059183241+1058957848+1058386668+1057940596
2595+1058135591+1058839511+1059389187+1059362771+1058917495+1058422309
2587+1058091455+1057939401+1057863607+1057834006+1057989577+1058395429
2578+1058881058+1059297065+1059636747+1059844883+1059910324+1060029989
2570+1060212971+1060096027+1059746722+1060078903+1061620943+1063326651
2561+1063571821+1062136040+1060283057+1059057138+1058445008+1058107052
2553+1057992298+1058110901+1058326471+1058476998+1058425428+1058132073
2544+1057819404+1057810644+1058136653+1058527505+1058747323+1058831878
2536+1059074991+1059691701+1060408032+1060723156+1060656123+1060688843
2527+1060963482+1061203808+1061301770+1061239979+1060728732+1059704577
2519+1058834135+1058799490+1059405115+1059924195+1060037820+1060067023
2510+1060470552+1061321083+1062204667+1062633151+1062550985+1062246612
2502+1061784014+1060919147+1059714532+1058799821+1058734580+1059401332
2493+1060169830+1060384006+1059759730+1058698342+1058091057+1058492064
2485+1059706236+1061240112+1062582909+1063053472+1062252719+1060848131
2476+1060116535+1060514025+1061290885+1061620611+1061545746+1061597182
2468+1061923324+1062169424+1062076307+1061856357+1061845008+1061978146
2459+1061901754+1061544418+1061190534+1060920740+1060529157+1060152972
2451+1060295867+1060963283+1061481898+1061438890+1061109164+1060785544
2442+1060395621+1059921606+1059575089+1059407107+1059207930+1058919155
2434+1058816281+1059180984+1059967933+1060814282+1061272102+1061176729
2425+1060898174+1060981402+1061451102+1061882175+1062185818+1062662885
2417+1063214154+1063275214+1062678017+1061894321+1061412342+1061413935
2408+1061900493+1062660031+1063327049+1063691022+1063692748+1063208380
2400+1062285306+1061378626+1060907134+1060822114+1060932554+1061291283
2391+1061983057+1062817726+1063343111+1062963010+1061248475+1058434322
2383+1055343739+1052567218+1050017748+1047417904+1044761049+1042110631
2374+1039398621+1036597876+1033736799+1030717033+1027343514+1023519476
2366+1019574247+1016517976+1015284889+1015509949+1016015556+1016626358
2357+1018299081+1021457162+1025446130+1029428593+1032779147+1034882942
2349+1035221230+1033637045+1030662344+1027670983+1026029455+1025965541
2340+1026795630+1027797418+1028694342+1029630822+1030697520+1031688091
2332+1032463492+1033100975+1033490899+1033381123+1032938767+1032705742
2323+1033049074+1034068782+1035845638+1038263297+1040738764+1042579534
2315+1043514886+1043765234+1043815210+1044191263+1045253447+1047068865
2306+1049362611+1051502975+1052805287+1053202245+1053496331+1054590373
2298+1056459617+1058096034+1058528103+1057841439+1057105994+1057253667
2289+1058211784+1059319963+1060279871+1061211639+1061997061+1062253980
2281+1061961222+1061519463+1061145269+1060688910+1060087266+1059558297
2272+1059286048+1059206802+1059159414+1059097955+1059175674+1059658450
2264+1060552718+1061270642+1061051422+1059907005+1058672059+1057920419
2255+1057495121+1057286321+1057502222+1057962432+1058262623+1058704846
2247+1059789132+1060946292+1061169229+1060688113+1060684861+1061520459
2238+1062321279+1062276744+1061650411+1061342521+1061781757+1062502070
2230+1062731644+1062247608+1061696737+1061981199+1063173535+1064368726
2221+1064799798+1064516399+1063889667+1063224507+1062821443+1062779298
2213+1063003628+1063591932+1064635002+1065744641+1066364072+1066215071
2204+1065216668+1063642970+1062216281+1061343716+1060737891+1060177662
2196+1059849927+1059709754+1059241049+1058028204+1056240928+1054467257
2187+1053228860+1052851148+1053773824+1056374995+1060159344+1063813275
2179+1066332812+1067467141+1067000494+1064532792+1060636743+1057462865
2170+1056898057+1058407774+1059989370+1060872887+1061818062+1063642041
2162+1066782999+1070694645+1072971069+1071864881+1069128978+1067429044
2153+1067618929+1069249307+1071107666+1071652895+1070472572+1068518308
2145+1066535373+1064694005+1063190061+1061756935+1059875878+1058505139
2136+1059644180+1063288488+1066900540+1068550896+1068570276+1067954429
2128+1067005073+1065627631+1063895441+1062344973+1061904741+1062937856
2119+1064463568+1065250318+1065409738+1065826674+1066436083+1066293123
2111+1065153218+1063914622+1063401782+1063354128+1062893454+1061869631
2102+1061270178+1061889741+1063030110+1063256564+1062258625+1061138632
2094+1060869967+1061300509+1061791381+1062044450+1062073918+1062006220
2085+1062095953+1062369397+1062310195+1061659504+1061308938+1062262342
2077+1063886481+1064589937+1064209637+1064102980+1064847319+1065595309
2068+1065843997+1066191311+1067042705+1067776226+1067473977+1065782738
2060+1063092896+1060455619+1059208992+1060016781+1061845539+1062308005
2051+1059953663+1056307961+1054776342+1057046194+1061405705+1065054261
2043+1066904655+1067598487+1067652512+1066680391+1064710464+1063084533
2034+1062821443+1063165106+1063304815+1064004885+1065690749+1066904456
2026+1066656564+1066360687+1067429974+1068606049+1067601274+1064426534
2017+1061655654+1061771005+1064774180+1068005932+1068409793+1065800259
2009+1063202008+1062783081+1062941838+1061093302+1057752503+1055952816
2000+1057627529+1061601828+1064839820+1065415048+1063966324+1062304089
1992+1061368870+1060824371+1060018108+1058680488+1056912393+1055062131
1983+1053717608+1053628473+1055380242+1058957516+1063377490+1066791561
1975+1067708794+1066354647+1064192447+1062197366+1060383807+1058917628
1966+1058449919+1059038289+1059961030+1060869436+1062145929+1063977806
1958+1065656900+1065918730+1063912366+1060295800+1057382159+1057424769
1949+1060456814+1064232800+1066471857+1066709926+1065853820+1064813072
1941+1064089374+1064042185+1064759844+1065781145+1066399978+1066236907
1932+1065343169+1064100657+1063147386+1062818390+1062625120+1061988035
1924+1061288960+1061260023+1061603554+1061585966+1061608200+1062678946
1915+1064479099+1065607654+1065485533+1064840550+1064533257+1064598565
1907+1064734756+1064987559+1065371111+1065476706+1065032160+1064382796
1898+1063975417+1063828341+1063780223+1063801329+1063852832+1063771661
1890+1063477709+1063316098+1063969510+1065586548+1067141264+1067281371
1881+1066054788+1064946476+1065008665+1065820635+1066387169+1066392412
1873+1066296043+1066478228+1066575128+1065924637+1064812608+1064286228
1864+1064736415+1065653183+1066243013+1066088305+1065483343+1065101914
1856+1065329962+1065989281+1066597893+1066792822+1066588336+1066287216
1847+1066142927+1066181754+1066346949+1066603269+1066867953+1067051598
1839+1067122681+1067001157+1066483073+1065463697+1064114661+1062741334
1830+1061760784+1061711140+1062718569+1064206119+1065374164+1065818644
1822+1065651458+1065161979+1064743981+1064780020+1065209567+1065589070
1813+1065610176+1065249588+1064697987+1064312975+1064318550+1064536841
1805+1064574340+1064224172+1063697593+1063441338+1063593126+1063834646
1796+1063847721+1063537707+1063002301+1062595519+1062622930+1062898565
1788+1063077830+1062918940+1062235661+1061123235+1059994481+1059089460
1779+1058294945+1057473152+1056562026+1055434533+1053939549+1052069178
1771+1050068521+1048173460+1046240900+1043891934+1040847013+1036837073
1762+1031623182+1025604886+1019401950+1012789378+1005492798+998015956+990504271
1752+982054911+971922275+960996917+951005584+942260811+933936558+925553634
1742+917129560+908485470+899747135+892042180+886015722+881036382+876674283
1732+873656441+872347293+872511891+873983578+876432829+879769844+884201233
1723+889320813+894486453+900354088+908933733+920933422+933316596+943565843
1713+952182721+960054132+967271998+973779705+980080736+986486433+992124295
1703+996341243+999893297+1003596674+1006937672+1009799611+1012920194+1015878369
1693+1017830442+1019013420+1020021912+1020937154+1021483777+1021666029
1684+1022019382+1022973649+1024040945+1024736767+1024951275+1024562546
1676+1023395762+1021511586+1019160032+1016447624+1013715239+1011631488
1667+1009943036+1007571704+1003922816+999183470+994179706+989485293+984937491
1657+980345950+975570765+969812972+962371240+955679489+951097971+947088761
1647+942977473+939526501+937134129+934979893+932610088+930212340+928036733
1638+926164503+924791176+924155019+923772662+923042526+921946891+920804398
1628+919900108+919268797+918915775+918952942+919199241+919185635+918850135
1618+918768367+919560161+920777120+921623603+922206066+923010801+924201478
1608+925465096+926417439+927097399+927969036+929433688+931381845+933367833
1598+935190751+937140368+939661431+942766948+945956224+948781659+951164938
1588+953140042+954706771+956071337+957748108+960165169+963180821+966336380
1578+969757486+974350818+979909833+984450136+987385347+989856566+993027856
1568+996721410+999953096+1002399958+1003991841+1004458488+1003906025+1004069826
1558+1007749376+1012652324+1015768659+1017582617+1018852473+1019939414
1550+1021003192+1021839520+1022079779+1021769433+1021374864+1021224469
1541+1021674524+1023766372+1026944830+1029210965+1030182489+1030663007
1533+1031600815+1032967306+1034012434+1034471979+1034589388+1034596224
1524+1034472510+1034319992+1034515983+1035027496+1035494276+1036175099
1516+1037445818+1038828105+1039480721+1038983610+1037288521+1034780533
1507+1033157655+1034056902+1035180280+1034353642+1031386971+1026642913
1499+1021057549+1016501981+1014753465+1015543533+1017486314+1020023040
1490+1023403461+1027599702+1031679331+1034698699+1036332528+1036763800
1482+1036525864+1036002736+1034937963+1032789567+1029397731+1024983929
1473+1019883730+1014848639+1010544680+1006497705+1001663716+995142071+986741559
1463+977443924+968141179+958332893+946644480+933318388+923461453+920203551
1453+920440160+921544689+922498558+922953723+923141152+923506253+924109025
1443+924629299+924640715+923822041+922121709+919828561+917712886+916497453
1434+916084897+916418937+917999936+920892405+924118118+926914218+929440524
1424+931882142+933946248+935596869+937617104+940733771+944352327+947560916
1414+950199056+952502293+954733451+956944102+958986040+960896898+962964986
1404+965150416+966950502+968108657+968837798+969312874+969298472+968435330
1394+966624492+963911222+960215212+955512568+950455443+946618198+945183412
1384+945713840+947071903+948418284+949261248+949314610+948402487+946461166
1374+943789178+941172343+939379093+938818599+939650215+941708148+944727915
1364+948902386+954553589+961089769+967239078+972296270+976269441+979441062
1354+982055110+984095322+985394979+985921757+985811251+985261907+984488763
1344+983599339+982461958+980906047+979104500+977502330+976203270+974865717
1334+973231688+971263022+968945251+966363061+963864232+961817316+960253109
1324+958950134+957728330+956510374+955287641+954143024+953119732+952018389
1315+950567874+948826990+947185993+945886336+944781276+943717498+942885817
1305+942557750+942652460+942840884+942966390+943137823+943481022+943963134
1295+944442325+944826275+945162970+945522562+945803374+945788440+945441923
1285+944989545+944570751+943889529+942368131+939695744+936118935+932171117
1275+928306129+924860532+922087861+919946567+917946707+915493607+912478088
1265+909425534+907000443+905403648+904296331+903240850+902079110+900845359
1255+899467319+897701414+895335790+892381862+889087456+885795838+882771757
1245+880186382+878263379+877334863+877685894+879374279+882142769+885438967
1235+888639658+891415781+893851691+896168799+898400290+900384619+902002586
1225+903257442+904023285+903874749+902437707+899924011+897157180+895035930
1215+893995448+893849700+894035270+894092348+893986621+893935317+894005603
1205+894025381+893802511+893245269+892285824+890846658+888903147+886486019
1196+883644589+880488166+877231790+874109482+871249600+868627722+866041417
1186+863133550+859625500+855621400+851657786+848507005+846952421+847569861
1176+850542505+855699185+862721724+871191660+880450136+889643371+898043817
1166+905279403+911246394+915946715+919485694+922089852+923968719+925166697
1156+925666728+925668719+925676153+926247863+927711188+930169930+933702272
1146+938327329+943739401+949322309+954569850+959314173+963473446+966831567
1136+969214580+970756885+971880396+972996407+974190070+975190398+975657842
1126+975459396+974705300+973659708+972585643+971552462+970412956+969000935
1116+967272661+965282625+963151817+961022934+958979934+957087395+955478122
1106+954172028+952795913+950741232+947745359+944203194+940855626+938285847
1096+936728742+936178004+936509920+937548212+939133989+941161724+943462306
1086+945625834+947086769+947551094+947328754+947180417+947869072+949797783
1077+952816820+956211776+959041857+960740530+961485931+961948662+962630946
1067+963510148+964399639+965473571+967117621+969360196+971809778+974085936
1057+975990621+977388638+978249655+978694334+978784066+978357838+977185679
1047+975243760+972852052+970511184+968491214+966678916+964973872+963605456
1037+962788773+962291331+961618206+960465626+958898100+957326659+956314649
1027+956061315+956070673+955596128+954288043+952160288+949255142+945796206
1017+942523105+940476255+940348161+942059776+944939436+948297092+951720919
1007+954759004+956706033+957205932+956989566+957544485+959895707+963825140
997+968232238+972073798+974958303+977046633+978593916+979613691+979880697
987+979174653+977513413+975213230+972840039+971112695+970668680+971744802
977+974027730+976812281+979377281+981317408+982572463+983223619+983385031
967+983181872+982546778+981078542+978357905+974415994+969757354+964996570
958+960569495+956755346+953880465+952383490+952589835+954503745+957916422
948+962569155+968031536+973542831+978229081+981569348+983578566+984536815
938+984700152+984331865+983758893+983177227+982560915+981897282+981303005
928+980765210+980022198+978925501+977688365+976484944+974895649+972061387
918+967517699+961808356+956250005+952127435+950009968+949642610+950380910
908+951703464+953363907+955282331+957461589+959855088+962184409+964071904
898+965516844+967025765+969020514+971216829+972881388+973758599+974446590
888+975661028+977414058+979176910+980556609+981536229+982332470+983234106
878+984360935+985580018+986866467+988499234+990595928+992778305+994564055
868+995807629+996616413+997131577+997465285+997674018+997778087+997786316
858+997578313+996873929+995506442+993587421+991232880+988298598+984638361
849+980629483+977225832+975293537+974927507+975599503+976855222+978524493
839+980342698+981774630+982165217+980858725+977534851+972827495+968233234
829+964895157+962668113+960775175+959212627+959019557+961087645+965101833
819+969853789+974282325+977871612+980304602+981331412+981117833+980340641
809+979662074+979190051+978538763+977286163+975336877+973069878+971150725
799+969903036+968919964+967677651+966343217+965454058+964986482+964255151
789+962731961+960668718+958794895+957486345+956529423+955824109+955806056
779+956804991+958414595+959747370+959957763+958591537+955895457+952669545
769+949553210+946739920+944423808+942938514+942166963+941133650+938608074
759+934302256+929297098+925012320+921946360+919708166+917977171+916960250
749+916926933+917617977+918320569+918598925+918798632+919582859+921031185
739+922462121+923221991+923438357+923770804+924568372+925627835+926735417
730+928001690+929617599+931653431+934086288+936716994+939080030+940653330
720+941228492+941022214+940242102+938465445+934670278+927966381+917958521
710+904452898+887589353+868469496+848983276+830863348+815454168+804408216
700+799759531+802773922+812960582+828169258+845395714+861958735+876391613
690+888239912+897389409+904060519+909024992+913031613+916136267+918151724
680+919507463+921024282+922979607+924956105+926352728+926515865+924903606
670+922167837+921603294+926195033+932478144+936352690+938024549+939276817
660+941084005+943036410+944353854+944874460+944943551+944805236+944453807
650+944044304+944109745+945095007+946741712+948231253+949040701+949412771
640+949787031+950155318+950421860+950956271+952094316+953361584+953920950
630+953617573+952955533+952255131+951437918+950423519+949070169+946995245
620+944312240+942389502+942867233+945701031+948909023+950356618+949046741
611+944987421+938927910+932396310+927352127+925270765+926277730+929108209
601+931984816+933669750+934089540+934299535+935573971+938159280+941137565
591+943745639+946180023+948691197+950774085+951810850+951986133+952069760
581+952469572+952742618+951995956+949818291+946995511+945042774+944730370
571+945250578+944980652+943296381+941515609+941389705+942919267+944528141
561+945239959+945563512+946040978+946402495+946778348+948307446+951445616
551+954543567+955323016+953552133+951051113+949190763+947882678+946868014
541+946233849+945547119+944143328+942416050+941397404+941148981+940765363
531+939701187+938264543+937158421+937071344+938287440+940227368+941593129
521+941144269+938784352+936342601+936245967+938728734+941774651+943807032
511+944974280+946057504+947243203+948435407+950036781+952174823+953431074
501+952217632+949649247+948462486+949278770+950145097+949290252+947091349
492+945297236+945318076+947267628+949864883+951344070+951324890+951508801
482+953466250+956548471+958768944+958804319+956782823+953653081+950386153
472+947767924+946320661+946112857+946670497+947235040+947377403+947149024
462+946631870+945998833+946043367+947723125+950615660+953113494+954178068
452+953596136+951627138+949077802+947123605+946525479+946914075+947166546
442+946501187+944986027+943084528+941245417+940045514+940001776+940699059
432+940889408+940322941+940610256+942766351+944823753+943680066+938985984
422+932956871+927053329+922874876+923823900+929342296+934371945+935451186
412+932464339+927442390+921632297+915111250+909927490+909810347+915280759
402+922105316+925311317+922776449+917239402+915346266+918707904+922127218
392+922163987+919758673+915975387+909932203+902539718+899048791+903462857
382+912029892+918574235+920682941+917123521+905311128+887182306+875345822
##END=
