##TITLE=X8359
##JCAMP-DX=5.0
##DATA TYPE=LINK
##BLOCKS=1


$$ === CHEMSPECTRA SPECTRUM ORIG ===
##TITLE=X8359
##JCAMP-DX=5.00
##DATA TYPE=INFRARED SPECTRUM
##DATA CLASS=XYDATA
##ORIGIN=ComPlat
##OWNER=
##XUNITS=1/CM
##YUNITS=TRANSMITTANCE
##XFACTOR=1
##YFACTOR=8.9844038e-010
##FIRSTX=3997.453
##LASTX=373.96442
##MAXX=3997.453
##MAXY=0.9646930114780127
##MINX=373.96442
##MINY=0.3997729424316312
##NPOINTS=2559
##XYDATA= (X++(Y..Y))
2559G06857158G07337875G07836106G08303355G08673612G08743337G08552603G08498999
2551G08801719G09184514G09292851G09148490G08989799G08834956G08509812G08066579
2543G07800613G07776066G07762399G07710918G07786349G07950480G08006009G07929317
2535G07778919G07527548G07215141G06943005G06663770G06349042G06285420G06812510
2527G07807512G08688937G08956429G08678654G08346610G08293205G08499662G08807756
2519G09055478G09100790G08903289G08596389G08396500G08404129G08528985G08652183
2511G08781086G08909260G08878410G08558375G08128211G07967596G08203112G08573700
2503G08750237G08768813G08939512G09238052G09317995G09119232G09022373G09330002
2495G09859614G10111847G09754129G09054947G08583187G08492496G08546830G08590485
2487G08651984G08767353G08836217G08664191G08310719G08101475G08006340G07502138
2479G06454792G05513925G05006936G04648290G04419408G04571200G04933826G05127016
2471G05191501G05390859G05606671G05689068G05832102G06005521G05880532G05576353
2463G05654371G06213173G06976243G07861913G08813063G09146234G07990153G06485707
2455G06140860G06772041G07712444G08443536G08711360G08632612G08475248G08124761
2447G07108861G05496676G04206649G03833274G04191788G04927193G05835022G06704703
2439G07139047G06903133G06476353G06622505G07394067G08085288G08488782G09011294
2431G09441657G09346389G09099596G09152404G09331263G09336902G09177880G09133298
2423G09434028G09897827G09837853G08795018G07563505G07089290G07398578G08091457
2415G08877548G09598955G10121401G10383652G10374165G10033099G09430379G08944023
2407G08829582G08774120G08321798G07618569G07188405G07216137G07706539G08732789
2399G10075624G11080910G11389004G11181352G10551763G09670273G09147097G09423678
2391G10150127G10561781G10508508G10471025G10758951G11129274G10950083G10302116
2383G10167376G10657911G10709194G09538716G08300038G08187389G08840131G09581772
2375G10134735G10467243G10493117G10275050G10182834G10439910G10841812G10970914
2367G10738650G10599994G10769698G10798093G10433342G10077217G10134205G10649751
2359G11539601G12524719G12947386G12511251G11774387G11208354G10967664G11211206
2351G11920008G12712799G13262313G13582282G13681795G13550968G13417554G13512822
2343G13649354G13365342G12645926G11999088G11535289G11035996G10531595G10264435
2335G10405147G10969919G11775713G12237058G11876156G11285974G11096766G11150238
2327G11257580G11639778G12213507G12460101G12070074G11369433G10995726G11209017
2319G11695771G11920207G11675138G11200326G10744355G10348623G09967088G09840972
2311G10370317G11468349G12594975G13266890G13422264G13274321G12993626G12786439
2303G12984139G13750194G14864481G15763552G15577263G14137236G12825979G12542432
2295G13027594G13802539G14505369G14811805G14587700G14054308G13352472G12396014
2287G11393316G10930048G11261361G11967774G12517952G12881773G13232193G13472817
2279G13432614G13288916G13388164G13668195G13638275G13051676G12403445G12372994
2271G12953821G13287324G12651101G11690928G11267067G11180092G10939999G10673502
2263G10853090G11423900G11801521G11706585G11514325G11689203G12141525G12206939
2255G11417199G10402560G09965297G09868504G09551785G09090971G09038627G09513307
2247G10023678G10206916G10264103G10560056G11109039G11620141G11781021G11530778
2239G11247363G11400017G11996766G12624763G12900084G12733498G12295837G11906342
2231G11874298G12274276G12837390G13137457G12961450G12471645G11992388G11761981
2223G11891282G12407823G13235444G14159858G14884251G15185843G15076444G14802185
2215G14562623G14237678G13633366G12936307G12551985G12562733G12668350G12693892
2207G12779075G12985931G13080933G12861804G12551056G12620981G13218859G13993074
2199G14559571G14896657G15058068G14841062G14145197G13415232G13223038G13572729
2191G14058421G14463242G14829584G15116780G15201500G15175759G15285821G15581973
2183G15864127G15923304G15675582G15187568G14705723G14518173G14710566G15130845
2175G15556697G15819678G15859151G15761031G15704441G15850593G16278899G16918838
2167G17482018G17590554G17097166G16233853G15450814G15139470G15389381G15922110
2159G16353269G16573393G16806653G17261761G17809285G18086397G17894800G17433588
2151G17129209G17282925G17853004G18470652G18701390G18438874G18007448G17792964
2143G17860501G17961209G17828789G17499665G17348006G17673548G18314150G18879718
2135G19214283G19324212G19089427G18486507G17917622G17856321G18296039G18879519
2127G19389891G19828082G20138498G20132859G19690157G18909838G18071868G17499002
2119G17401346G17742213G18276268G18809263G19342921G19841085G20051789G19829011
2111G19460745G19356123G19536375G19690289G19604907G19334230G19035159G18803557
2103G18692699G18805946G19253491G19962492G20626114G20935535G20827264G20484606
2095G20178834G20097897G20230581G20392059G20434451G20427353G20530117G20723969
2087G20855526G20944160G21173306G21498782G21590931G21327618G21027751G21001479
2079G21156787G21258622G21314284G21466937G21670343G21682749G21321515G20638388
2071G19934761G19625141G19942125G20686022G21353094G21574346G21400595G21147698
2063G20994514G20819171G20494823G20198604G20184606G20376666G20496548G20504310
2055G20622730G20994049G21500042G21844558G21795465G21460967G21212382G21195531
2047G21141926G20810015G20356698G20135380G20312780G20753624G21184253G21420299
2039G21408490G21103050G20527397G19984186G19910281G20375075G20917689G21013886
2031G20574699G19901125G19307494G18940886G18854508G19047764G19434672G19877176
2023G20202452G20186066G19735999G19149002G18918064G19193053G19626136G19801280
2015G19648029G19387569G19224831G19219922G19383987G19729697G20162381G20414350
2007G20218573G19619834G19053137G18962315G19336950G19764792G19904774G19753116
1999G19510634G19372111G19393407G19434473G19279033G18860877G18319723G17866936
1991G17652717G17693650G17861828G18009173G18146702G18411740G18798914G19052275
1983G18949776G18570762G18175030G17946546G17939780G18107029G18301678G18399533
1975G18422819G18417312G18304000G18018794G17684893G17479099G17407714G17349466
1967G17261828G17204309G17173990G17058289G16797431G16518263G16491659G16936153
1959G17769811G18569900G18938630G18885490G18672730G18390377G17966450G17517113
1951G17346348G17566405G17981974G18394822G18767467G19004044G18866782G18313155
1943G17732394G17590554G17885180G18139603G17956697G17451832G17089006G17194955
1935G17701611G18294115G18691439G18794668G18661983G18440399G18308975G18352031
1927G18429785G18348714G18219413G18395618G18970475G19600860G19910015G19817136
1919G19435933G18941152G18559020G18418175G18395220G18296967G18138077G18072929
1911G18194734G18530492G19048626G19552032G19742368G19488675G18953358G18456587
1903G18248073G18332925G18536530G18777750G19110059G19443628G19505061G19189272
1895G18718639G18382483G18299488G18438343G18663641G18714924G18348582G17620872
1887G16903380G16501412G16387435G16404684G16503800G16596812G16438453G15937966
1879G15400261G15166869G15129120G14812999G13831862G12082082G09624762G06527503
1871G02650788F97501560F90580793F82116968F73340539F65891156F60943144F58811698
1863F59131866F61211367F64294495F67711325F70945580F73688969F75887754F77642907
1855F79030192F80129750F81162435F82332316F83570662F84700340F85771105F86971238
1847F88330062F89678205F90726016F91132496F90747975F89793309F88583357F87125816
1839F85175749F82624885F79667277F76568293F73400115F70125523F66904867F64173154
1831F62372225F61683790F62051924F63374525F65541001F68278419F71136713F73772096
1823F76159293F78438153F80659294F82760755F84693241F86474467F88092689F89404145
1815F90272831F90767414F91037493F91109939F91053615F91110868F91356733F91478272
1807F91174291F90534154F89843928F89240080F88598351F87568518F85755714F83030702
1799F79588330F75662190F71429349F67316389F64105220F62452765F62404335F63502301
1791F65218710F67206128F69319198F71523754F73766457F75999275F78294787F80691404
1783F82935832F84686540F85976567F87164162F88427652F89579156F90383756F90838267
1775F91017989F90788643F89867679F88162349F85894966F83456885F81299100F79839635
1767F79292443F79652947F80849034F82716637F84891605F86958301F88689107F90051580
1759F91115777F91999789F92778051F93444858F94019317F94569096F95085239F95468432
1751F95675885F95792316F95965934F96348265F97034377F97934842F98730419F99120181
1743F99173056F99304347F99854723G00787364G01807776G02676396G03364963G03936901
1735G04346233G04476529G04374893G04290505G04432876G04806317G05286105G05739290
1727G06063107G06198578G06167065G06093690G06120028G06251386G06340816G06264986
1719G06082545G06028144G06321244G06875137G07261249G07159016G06759900G06511183
1711G06574274G06755588G06854305G06868503G06929670G07147140G07495770G07841214
1703G08072086G08152227G08083762G07933297G07834248G07839423G07856738G07808574
1695G07731683G07686371G07730356G07962621G08402072G08854992G09083475G09060255
1687G08926840G08784735G08660343G08597981G08642630G08740949G08759591G08616358
1679G08360741G08155146G08186393G08492762G08859967G08999883G08845969G08580799
1671G08417995G08449175G08645151G08935929G09267110G09551520G09633585G09434227
1663G09082612G08779560G08599972G08507689G08491701G08610719G08884912G09137676
1655G09097871G08769941G08514058G08625049G09025889G09451343G09732369G09851586
1647G09897230G09999928G10210697G10413771G10427902G10227880G09986261G09820870
1639G09627217G09295372G08942895G08774518G08841458G09031993G09190551G09219410
1631G09152869G09110609G09158043G09282634G09476420G09747628G10034559G10170759
1623G10008287G09629472G09337168G09322241G09449485G09493006G09426067G09348977
1615G09310100G09337035G09481064G09724806G09987389G10252294G10540353G10762798
1607G10789999G10629915G10356186G09952427G09429384G08959149G08688804G08583320
1599G08619012G08895726G09375116G09762422G09852449G09780534G09782524G09912887
1591G10101962G10294289G10446080G10551631G10711715G11027173G11414413G11661472
1583G11680380G11597054G11579141G11678655G11863020G12093294G12332060G12564325
1575G12786638G12921512G12895705G12889270G13202207G13724586G13937744G13627594
1567G13180446G13012335G13110853G13242675G13251300G13069257G12718505G12358266
1559G12165209G12150946G12197717G12272618G12497452G12917200G13280159
1552G13257204G12923237G12772972G13090022G13546457G13653268G13380535
1545G13065740G12940552G13014590G13215210G13446745G13649619G13842676
1538G13993671G13965741G13741172G13520119G13466913G13501610G13400968
1531G13057846G12668217G12584824G12863264G13147010G13169168G13075957
1524G13082127G13183034G13362158G13703954G14164303G14514127G14573768
1517G14360809G14070960G13986970G14312579G15028943G15889138G16489669
1510G16479054G15901743G15246479G14995772G15213176G15615874G15911363
1503G15995949G15869633G15460500G14727948G13907691G13348160G13112114
1496G13039734G13100637G13356851G13734737G14072685G14246037G14186727
1489G13981398G13843405G13797364G13599597G13114966G12550592G12256098
1482G12480137G13210765G14046944G14433653G14247629G13927129G13884206
1475G14075405G14259306G14347408G14360212G14281199G14058620G13643649
1468G13080667G12632790G12618991G13015851G13416360G13503335G13424387
1461G13558133G13992145G14405524G14495816G14324719G14141482G14057957
1454G14009261G13886263G13643450G13364480G13192189G13157028G13175603
1447G13202207G13258929G13316846G13247717G12930468G12428920G12014347
1440G11912976G12063308G12205944G12149155G11934537G11815519G12008907
1433G12390243G12585156G12424873G12108618G11865740G11699884G11547827
1426G11472463G11577814G11869920G12300150G12844953G13446015G13950217
1419G14192366G14119522G13822110G13451720G13063020G12556364G11865740
1412G11136372G10630844G10553023G10913396G11376863G11538473G11591215
1405G12095086G12876665G13122596G12717509G12415983G12594046G12855037
1398G12879650G12802560G12693228G12293914G11340640G09970206G08748379
1391G08071621G07774076G07614323G07680798G08248822G09400790G10701498
1384G11453688G11452427G11185333G11153422G11390397G11699220G11902958
1377G11894068G11781021G11895063G12407890G13111848G13703025G14027439
1370G13966072G13393074G12463551G11720517G11646014G12185510G12857890
1363G13180977G12877527G11899707G10425315G08677393G06708485G04541014
1356G02464034G00934312G00196983G00158438G00544617G01071376G01613923
1349G02312906G03373919G04722659G06027481G07093934G08055964G09111206
1342G10161538G10797894G10678079G09933386G09155721G08928101G09339357
1335G09957203G10293758G10275779G10236173G10523369G11251211G12361384
1328G13699044G14963596G15804352G16120872G16155237G16120872G15863729
1321G15137944G14103003G13210566G12657403G12326620G12286948G12855568
1314G14016227G15269567G16179253G16615189G16534516G16127440G15996148
1307G16440509G16895618G16820253G16563309G16591505G16612999G16228745
1300G15724941G15547541G15596170G15603601G15766338G16453114G17519302
1293G18419568G18884960G19052872G19118883G19324942G19997189G21085933
1286G22047831G22548185G22848849G23303294G23910193G24539451G25229477
1279G25933038G26140424G25274789G23535160G21787238G20597057G19928591
1272G19668197G19762204G19979409G20053713G19869347G19295685G18205946
1265G16757626G15255900G13802406G12474497G11568526G11187920G10980468
1258G10798889G11061803G12120561G13859593G16084715G18615875G20864615
1251G22097389G22201015G21593320G20679321G19953867G20030095G20921006
1244G21870896G22355991G22571538G22589981G21923174G20455283G19126312
1237G18983146G19923018G20993651G21650308G22115301G22678680G23138566
1230G22988765G22017380G20708246G19905703G19983456G20504310G20775053
1223G20523217G19957516G19417224G19178657G19387038G19824765G19920962
1216G19456698G19064017G19478591G20551280G21502364G21894381G21956544
1209G22095067G22386376G22575518G22464660G22173616G21970409G21995089
1202G22183501G22266164G21941750G21337172G21101855G21677906G22687769
1195G23459264G23862560G23983369G23292812G21205947G18349975G16016515
1188G14299642G12160101G09497119G07738118G07937411G09178610G09651564
1181G09128057G09149021G10776001G13386771G15752738G17332615G18397211
1174G19531466G20743540G20890223G19160811G16950085G16469103G17808820
1167G19026733G18749555G17318020G15718174G14541791G13959637G13957912
1160G14317886G14719191G15158974G15879120G16610346G16521115G15466736
1153G14564945G14844511G16094468G17564548G19043186G20783412G22761011
1146G24427863G25031313G23989473G21534209G19207649G18724345G20140754
1139G21916871G22787615G22910680G23116540G23811144G24739738G25277907
1132G24943542G23906876G22818729G22029520G21297366G20403204G19679807
1125G19505260G19589383G19353204G18636176G17688409G16942323G16842677
1118G17399422G17989537G18035578G17678988G17427684G17450107G17504641
1111G17302230G16601721G15018129G12186174G08413284G04694597G01856006
1104G00104303F99306205F99303286F99867262G00715515G01775931G03158506
1097G04838427G06602470G08165628G09274275G09941082G10478256G11069366
1090G11473789G11445262G11217907G11293471G11928964G12906386G13797828
1083G14397298G14778567G15076710G15387192G15785379G16293495G16821447
1076G17241129G17570187G17982969G18523858G18950373G19051545G19001390
1069G19063089G19108533G18869767G18449356G18197852G18162956G18060921
1062G17798869G17662403G17921403G18566384G19446348G20271515G20508622
1055G19891837G18852983G17876755G17092522G16575848G16473415G16741040
1048G17155813G17649134G18299488G19030249G19625008G20021802G20370033
1041G20816915G21314947G21600949G21508070G21305991G21389914G21855372
1034G22445288G22800352G22813687G22640932G22472289G22497035G22857473
1027G23408645G23792635G23836288G23717535G23674877G23754289G23934209
1020G24201569G24450950G24535934G24449557G24309906G24177951G23995178
1013G23740755G23551547G23640114G24100331G24741463G25177598G25262715
1006G25247788G25320764G25333303G25080008G24708491G24581910G24689849
999G24767602G24751414G24796129G24955218G25024811G24845156G24537659
992G24279521G24047920G23659685G22799423G21134960G18776224G16210036
985G13854020G12136948G11387014G11605811G12564988G13879695G15186042
978G16355458G17319877G17961142G18295375G18518285G18866317G19423062
971G20005680G20415809G20681311G20965787G21333125G21649976G21785381
964G21839184G21978835G22191927G22349622G22477199G22657185G22738455
957G22581887G22315191G22132617G22032307G21933324G21859220G21823926
950G21701657G21393430G21027950G20672687G20190046G19433942G18300948
943G16631177G14222817G11300238G08673015G06754460G05197936G03779338
936G02971022G03104039G04045104G05524274G07272992G09183254G11128146
929G12829827G14183808G15393959G16636883G17857516G18976379G19924345
922G20593275G21008976G21397145G21965766G22681268G23392590G23929101
915G24170985G24311631G24617270G25053206G25390490G25581755G25894427
908G26478903G27194272G27805949G28033967G27692172G27380164G27575608
901G27966431G28155109G28013600G27919195G28114772G28428373G28663954
894G28799027G28890778G28958249G29090270G29362672G29617891G29697900
887G29657895G29689076G29823420G29924592G29980983G30130386G30415790
880G30744384G30959333G30934853G30833615G30908979G31151925G31428904
873G31655530G31793986G31816012G31771894G31791797G31928330G32084168
866G32171673G32253540G32457211G32789851G33096751G33229104G33203430
859G33160639G33214044G33379700G33609445G33833682G33996619G34096199
852G34135871G34009356G33592328G33168467G33194540G33599560G34060838
845G34372514G34550047G34662829G34678684G34601993G34500887G34306836
838G33796663G33311501G33606924G34302789G34854691G35133129G35213404
831G35124173G34853628G34504934G34228883G34081139G34055531G34236314
824G34654868G34996000G35107389G35118601G35137574G35230586G35429879
817G35653519G35705465G35429812G34957190G34589520G34420082G34382532
810G34446154G34525235G34463072G34226694G33927291G33614553G33222934
803G32641245G31725256G30587750G30030209G30235870G30564198G30709952
796G30667162G30552787G30553252G30787971G31161943G31517073G31810572
789G32125964G32609201G33319396G34196376G35150843G36077646G36880189
782G37543745G38124639G38627580G38944033G38938062G38643303G38390804
775G38443878G38690672G38944431G39161172G39410088G39707302G39946466
768G40021433G39860818G39414997G38758075G37926209G36656549G34505929
761G30783725G24458712G14968771G03686392F93352709F86101888F82937093
754F83655249F87234286F93025840G00421552G07531130G12983940G17207493
747G20916694G24271028G27081623G29253406G30873287G32072956G32933814
740G33511922G33955553G34512829G35297526G36264731G37382135G38594873
733G39765749G40751265G41515263G42147904G42766613G43394344G43980611
726G44537821G45152881G45838463G46453589G46919047G47402550G48078313
719G48875814G49665089G50450384G51305205G52231477G53172078G54046272
712G54752751G55267104G55693021G56160602G56756688G57528183G58419957
705G59292691G60066707G60762240G61441586G62164187G62949149G63734908
698G64399194G64850986G65051936G65002777G64817350G64740459G64987850
691G65612330G66565869G67757046G69002756G70087520G70937100G71645105
684G72328299G73041811G73788096G74543271G75297782G76055677G76776023
677G77363484G77761671G78056762G78471202G79163750G79988784G80567289
670G80645905G80251300G79498779G78435046G77131153G75851741G75062533
663G75158464G76153532G77750326G79609902G81454883G83109063G84585579
656G86009153G87415013G88736885G89961564G91175629G92462472G93802853
649G95100443G96303495G97442394G98524239G99474327H00234014H00863404
642H01564974H02606615H04132555H06032401H08065197H10085123H12133973
635H14373160H16915001H19662570H22385193H24977918H27533160H30134975
628H32716024H35185949H37588073H40019520H42489844H44983255H47579695
621H50377551H53354797H56402100H59443034H62473552H65533394H68669132
614H71936890H75462256H79436296H83995077H89136940H94779888I00852601
607I07335973I14225427I21396106I28513844I35188880I41269090I46932338
600I52463299I58065778I64009323I70811337I79027506I88879543A000153629
593A012313319A024650873A036494973A047338961A056808735A064607742A070440893
586A073741823A072906241A063963293A040641171I98563204I40836737H77378622
579H17014382G61396208G06996809F51037568E94921628E43893647E04247990
572D79619322D69006172D68215073D72892739D80248115D88916904D98135339
565E07114776E14928710E20844557E24711719E27103062E29158945E32164486
558E36986347E43686128E51604121E59832761E67663414E74713350E80849288
551E86103270E90574081E94294162E97132553E98756215E98616963E96034786
544E90609972E82984980E75256230E70134534E69275798E72422814E78112865
537E84902341E91887659E98541929F04507964F09612145F13913651F17593196
530F20769801F23489373F25868608F28123651F30416973F32759323F35092583
523F37380532F39566578F41549750F43302515F44890419F46289977F47370628
516F48151743F48865984F49703822F50703800F51906454F53394712F55160347
509F57048517F58864108F60531557F62148121F63820279F65479634F66953894
502F68191510F69355951F70725125F72464090F74457678F76460686F78413938
495F80419931F82420153F84174974F85628933F87045940F88677762F90488776
488F92323805F94164407F96039109F97839375F99425953G00803021G02023720
481G03036104G03740461G04081925G04007821G03408152G02152822G00123476
474F97114983F92707994F86483953F78663650F70541755F64100576F61056391
467F62016564F66208936F72004205F77997042F83694059F89193706F94509454
460F99423166G03746962G07431816G10493913G12994688G15063508G16863774
453G18529365G20119790G21594182G22809839G23552874G23644360G23158402
446G22558866G22492192G23353382G25065943G27249469G29530850G31749139
439G33934854G36076849G37914731G39071676G39406970G39108496G38401485
432G37355200G36099472G35061679G34745425G35299848G36473179G37965218
425G39657877G41514998G43441248G45316282G47066924G48617809G49849123
418G50722653G51393639G52080480G52895365G53915710G55238709G56758811
411G58100320G59048286G59872191G60966243G62341321G63725687G65010672
404G66358416G67915936G69567329G71007622G72085353G73037499G74264567
397G75907601G77802737G79754064G81634737G83312469G84736972G86075959
390G87587769G89389295G91434829G93646285G95941465G98180851H00240184
383H02187132H04270813H06671942H09362190H12262810H15396624H18781543
376H22291650H25768454H29238092H32894153H36845437H41030909H45446324
369H50270275H55619658H61342283H67187110H73074794H79152417H85650584
362H92607441H99678209I06457203I13092167I20224700I28138280I36299782
355I43867653I50163874I54273782I54549236I49087867I36954183I19154929
348H98762087H79918737H66006614H58384144H56999048H62063557H74477802
341H94138357I17980404I39901575I52352839I48012789I21441816H71515218
334H03335386G26884585F52613133E87757715E35842273D97757652D72361834
327D56988853D48631939D45063086D44963240D47324265D51106442D55558810
320D60536808D66201615D72540892D79329937D86311474D93190910D99618124
313E05384203E10636958E15784096E21120176E26620919E32147038E37683638
306E43287212E48972718E54764173E60730639E66885550E73057246E78883962
299E84023703E88419746E92292348E95873308E99219152F02223465F04770083
292F06979615F09288527F12089103F15252771F18184904F20420641F21999390
285F23156069F23861885F23881058F23093773F21467324F18803214F14822674
278F09640275F04109313E99559488E97064021E96962119E99001218F02642948
271F07202989F12053743F16802926F21190211F24987781F28089286F30465337
264F32103595F33257686F34489398F36120093F37905101F39496786F40943248
257F42555500F44540861F46898071F49480514F52025870F54263797F56193364
250F58177730F60511256F62967979F65039718F66543832F67756504F69024969
243F70446819F71873179F73134546F74285918F75516104F76739258F77522296
236F77564158F77061416F76525171F76379019F76757834F77564026F78600625
229F79646247F80557923F81423824F82445230F83546911F84341427F84504298
222F83786606F81692908F77780501F72426342F66885827F62540469F60333923
215F60674989F63444649F67954602F72954161F77222296F80533377F84068495
208F88853835F93532364F96775907F98713900F99902556G00823587G01850898
201G03197648G04627325G05602624G06073854G06527967G07058441G07293358
194G07378543G07996256G09322241G10791193G11872175G12550857G13053533
187G13404883G13507514G13600659G14144202G15140929G16138519G16850704
180G17209882G17140886G16882084G17065255G18002938G19375429G20774257
173G22055925G23123970G23775120G23937792G23975541G24572754G26079456
166G28051615G29671827G30516100G30742128G30732907G30774902G30953694
159G31170634G31307962G31490669G32097237G33327025G34800224G35793501
152G35855133G35160131G34419551G34292705G34823974G35742418G37035629
145G38656970G39975856G40242419G39580920G38972759G39195470G40041800
138G40695338G40780588G40578443G40390031G40475612G41322871G43034238
131G44750050G45531828G45454606G45202438G45123756G45284570G45923115
124G47110511G48052174G47442090G44869864G41492707G39011968G38227602
117G38719597G39779350G41356042G43727316G46316857G47643240G46863319
110G44725570G42688727G41654715G41709248G42660996G44398237G46835522
103G49834063G53082118G55981478G58024491G59319029G60432651G61754257
96G63285770G65005563G66972083G68929514G70195525G70230886G69285175
89G68208837G67850655G68710717G70505344G72110961G72699882G72834425
82G73609303G75104395G76414722G76678765G75718658G74156296G73073921
75G73275469G74761670G76810322G78527925G79540243G80289845G81292344
68G82490288G83941461G86144027G89083855G91810459G93363932G93596395
61G93109973G92915788G93743608G95435074G97495866G99544319H01125788
54H01880564H01908826H01758959H02090604H03156859H04546399H05891424
47H07704361H10609559H13767853H15245695H14724775H14297928H15724355
40H18214979H19564582H18786187H17237823H17815068H22539771H30291211
33H36463305H37535795H36404857H35775335H34964830H33930487H34148620
26H35557997H35752447H33676130H31932720H33696895H38365340H41579494
19H39318149H33158594H30391454H34276993H41963484H50514614H58483193
12H66143678H74890120H84068783H88986476H86056134H79713209H76619532
5H78235101H83848394H94625642I09386682I16950904
##END=


$$ === CHEMSPECTRA PEAK TABLE EDIT ===
##TITLE=X8359
##JCAMP-DX=5.00
##DATA TYPE=INFRAREDPEAKTABLE
##DATA CLASS=PEAKTABLE
##$CSTHRESHOLD=0.93
##MAXX=3997.453
##MAXY=0.9646930114780127
##MINX=373.96442
##MINY=0.3997729424316312
##$CSSOLVENTNAME=- - -
##$CSSOLVENTVALUE=0
##$CSSOLVENTX=0
##NPOINTS=19
##PEAKTABLE= (XY..XY)
678.5187768021888, 0.5932706607070107
760.6776265441749, 0.5363348730399652
831.5042211493351, 0.3997729424316312
862.6679227756317, 0.7780553113646733
974.573942251784, 0.6645385040818732
1035.4848136121968, 0.5939197551314686
1137.4751098436277, 0.5114603642799233
1179.971066606724, 0.42066332810784773
1318.7911920328602, 0.700333179214296
1442.0294666458167, 0.6135782613510153
1698.421739116497, 0.6315775521346684
1933.566033205629, 0.6282823100090886
2051.1381802502115, 0.6358605036764048
2163.044199726364, 0.642614782593242
2289.115538123534, 0.6290506130969264
2875.559741454261, 0.6103037606200483
2912.3895706489443, 0.5951308024510473
2964.801250656763, 0.5944834357274402
3012.963334988272, 0.5919030322995652
##END=


$$ === CHEMSPECTRA PEAK TABLE AUTO ===
##TITLE=X8359
##JCAMP-DX=5.00
##DATA TYPE=INFRAREDPEAKTABLE
##DATA CLASS=PEAKTABLE
##$CSTHRESHOLD=0.93
##MAXX=3997.453
##MAXY=0.9646930114780127
##MINX=373.96442
##MINY=0.3997729424316312
##NPOINTS=210
##PEAKTABLE= (XY..XY)
3987.5372767552776, 0.6365441098911796
3970.5388940500393, 0.6358360660980689
3954.9570432369037, 0.6345553411332596
3945.0413199921813, 0.6363592162516178
3935.125596747459, 0.63645202065067
3922.3768097185302, 0.6360666759779264
3909.628022689601, 0.6370143302266217
3899.7122994448787, 0.6365382673333885
3878.4643210633308, 0.632878840602895
3862.8824702501956, 0.6339182867083342
3850.1336832212664, 0.6344254625919268
3834.5518324081313, 0.6323522341492042
3824.636109163409, 0.6347268830503341
3813.3038540265834, 0.6370837104880864
3806.2211945660674, 0.6371139897257733
3797.722003213448, 0.6352775704015302
3776.4740248319, 0.6353666193197939
3762.308705910868, 0.6371263873045768
3755.226046450352, 0.6383158576799894
3748.1433869898356, 0.6380430471570429
3741.0607275293196, 0.6362641468843678
3731.1450042845972, 0.6380569352484369
3724.0623448240813, 0.6384317286373578
3718.3962172556685, 0.6379620446708224
3705.6474302267397, 0.6387620582118723
3694.315175089914, 0.6409631383144305
3681.566388060985, 0.6381302488818853
3671.6506648162626, 0.6388780486618111
3660.318409679437, 0.6387872702458158
3647.5696226505083, 0.6377497926232494
3636.2373675136823, 0.6403961191140068
3624.905112376857, 0.6401768933722042
3610.739793455825, 0.6387282624785382
3599.4075383189993, 0.640847564740828
3590.90834696638, 0.6400246634310978
3579.576091829554, 0.6384977711928107
3572.493432369038, 0.6392532005284435
3558.328113448006, 0.6370289334765582
3544.1627945269743, 0.639013351087718
3532.8305393901483, 0.6395766148073533
3522.914816145426, 0.6394757046791928
3504.4999015480844, 0.6401854761731542
3493.167646411259, 0.6401846415220412
3479.002327490227, 0.6407883772854744
3469.086604245504, 0.6425427806827484
3457.7543491086785, 0.6419519788670257
3447.838625863956, 0.6430177699397276
3435.0898388350274, 0.6425101771797986
3419.507988021892, 0.6442978390430594
3409.5922647771695, 0.6448941833374863
3402.5096053166535, 0.6444944151028823
3389.7608182877248, 0.644951105824642
3374.1789674745896, 0.6445423379127515
3361.430180445661, 0.6462985885034467
3351.514457200938, 0.6457025415927856
3338.7656701720093, 0.6469650282178808
3333.0995426035965, 0.6472610247917141
3318.934223682564, 0.647776842773322
3304.768904761532, 0.6465402851375935
3289.187053948397, 0.6470429310847903
3267.939075566849, 0.6469987044586444
3255.1902885379204, 0.6467964664275467
3243.8580334010944, 0.645847917332233
3232.525778264269, 0.6459050186090243
3222.6100550195465, 0.6461762200252503
3211.277799882721, 0.6459447754942796
3202.7786085301013, 0.6463129527682422
3192.862885285379, 0.6447681797695125
3175.8645025801407, 0.6450260887603164
3150.366928522283, 0.6437250383787904
3136.2016096012508, 0.6444929254887323
3123.452822572322, 0.6447123300201705
3116.370163111806, 0.6442617190444623
3105.0379079749805, 0.6453577884564105
3099.3717804065673, 0.645277322339097
3080.9568658092257, 0.645145715198473
3068.208078780297, 0.6453030716403877
3054.042759859265, 0.6453492649525254
3042.7105047224395, 0.6436313993286253
3012.963334988272, 0.5919030322995652
2964.801250656763, 0.5944834357274402
2937.8871447068022, 0.6208704724609737
2912.3895706489443, 0.5951308024510473
2875.559741454261, 0.6103037606200483
2825.981125230649, 0.6327630289425918
2814.6488700938235, 0.6343830831592022
2806.149678741204, 0.6343241939860547
2797.6504873885847, 0.6347581757287696
2779.2355727912427, 0.6359468707501342
2772.1529133307267, 0.635814012082061
2757.987594409695, 0.6366330393168728
2749.4884030570756, 0.6362351784711955
2739.5726798123533, 0.6364713326266381
2722.574297107115, 0.6365375530732864
2714.075105754496, 0.636557639504862
2689.994063588741, 0.6367916472862368
2681.494872236122, 0.6370936050119914
2667.3295533150895, 0.6372837437464915
2660.2468938545735, 0.637272835781838
2638.9989154730256, 0.6366198672824616
2630.4997241204064, 0.637695492683563
2612.084809523065, 0.6393114338401136
2599.336022494136, 0.6404885066367226
2590.836831141517, 0.6405990732020873
2579.504576004691, 0.6398251665415995
2568.1723208678654, 0.6403840198174093
2559.673129515246, 0.6405345804562897
2545.507810594214, 0.6410074844331469
2538.425151133698, 0.6402149800567931
2532.759023565285, 0.6406562337759436
2518.593704644253, 0.6414747246418486
2507.2614495074276, 0.6423810730940733
2491.6795986942925, 0.6406236895700589
2473.2646840969505, 0.6399196393444372
2463.348960852228, 0.6413823973146383
2449.183641931196, 0.6402456770692566
2443.517514362783, 0.640969277357547
2425.1025997654415, 0.6407290712359907
2412.3538127365127, 0.6396113646843709
2405.2711532759968, 0.6395238053802572
2392.522366247068, 0.6392155900172559
2369.857855973417, 0.6383895279942687
2357.1090689444877, 0.6400632864845935
2340.110686239249, 0.6357492812495628
2328.7784311024234, 0.6389289506999803
2321.6957716419074, 0.639492810984028
2307.5304527208755, 0.6393715152436453
2289.115538123534, 0.6290506130969264
2266.451027849883, 0.6369296324551184
2259.3683683893664, 0.6381048571598658
2236.7038581157153, 0.6399473562301602
2225.3716029788893, 0.6432798512876562
2219.7054754104765, 0.6437894116320174
2212.6228159499606, 0.6428768046441056
2174.3764548631743, 0.6465789683865949
2154.5450083737296, 0.6386104239367378
2138.963157560594, 0.6468356258499495
2124.797838639562, 0.6459634909058355
2110.6325197185297, 0.6467923533674871
2100.7167964738073, 0.6461391458829696
2093.6341370132914, 0.6460361486778065
2078.0522862001562, 0.6486473686107154
2069.553094847537, 0.6478670246249049
2051.1381802501955, 0.6358605036764048
2045.4720526817825, 0.6371092809997416
2028.473669976544, 0.6437047731575791
2017.1414148397184, 0.6414486177612866
2005.8091597028927, 0.6419940007204791
1988.8107769976543, 0.6457309736370511
1966.146266724003, 0.6464325792063987
1957.6470753713836, 0.6440404071240973
1950.5644159108676, 0.6445660010354799
1933.566033205629, 0.6282823100090886
1913.7345867161844, 0.6389868866278846
1888.2370126583264, 0.6459798820521282
1875.4882256293977, 0.6447768820630332
1859.9063748162625, 0.6437086472324977
1841.491460218921, 0.6480504286503166
1831.5757369741982, 0.6490982778686298
1821.6600137294758, 0.6501787314883333
1806.0781629163407, 0.6500679268362679
1797.5789715637216, 0.6515918982448794
1790.4963121032056, 0.6509936465615258
1786.246716426896, 0.6511459357996973
1764.9987380453476, 0.6391388191852253
1698.421739116497, 0.6315775521346684
1651.6761866770912, 0.6535077109486224
1644.5935272165752, 0.6539919981650941
1629.01167640344, 0.6555541164538001
1614.8463574824077, 0.6566104307773737
1604.9306342376854, 0.6574534185186797
1589.3487834245502, 0.6587011231042028
1575.1834645035183, 0.6587081560954975
1558.1850817982795, 0.6588366636168104
1542.6032309851444, 0.6595051302127418
1521.3552526035965, 0.6597989211154421
1505.7734017904609, 0.6558886183854394
1498.690742329945, 0.656358123562339
1471.7766363799842, 0.6634001145342655
1442.0294666458167, 0.6135782613510153
1354.2044893354182, 0.6870737085853345
1313.1250644644251, 0.6963474766722826
1179.971066606724, 0.42066332810784773
1137.4751098436277, 0.5114603642799233
1035.4848136121968, 0.5939197551314686
1002.9045800938229, 0.649116159527513
980.2400698201718, 0.6601249588402615
859.8348589913994, 0.7699625503447582
831.5042211493351, 0.3997729424316312
760.6776265441749, 0.5363348730399652
702.5998189679435, 0.6076862228543872
678.5187768021888, 0.5932706607070107
624.6905649022669, 0.6440758119641519
602.0260546286158, 0.6565199506435847
583.6111400312743, 0.6597182169114278
572.2788848944483, 0.6639229664056084
563.7796935418291, 0.6651963007998518
552.4474384050036, 0.6694492704876672
539.6986513760748, 0.6632534872673688
525.5333324550429, 0.6663325439733917
497.2026946129786, 0.6898680342614489
480.20431190774025, 0.69456082735133
457.5398016340887, 0.7123875618787194
446.20754649726314, 0.7203326237923644
432.0422275762312, 0.7315981398655327
424.95956811571523, 0.7342394602464928
412.2107810867865, 0.749236823633865
405.12812162627006, 0.7474419490912336
396.6289302736509, 0.7460572134805125
381.04707946051576, 0.7875903854455022
##END=

##END=

