##TITLE=X7455
##JCAMP-DX=4.24
##DATA TYPE=INFRARED SPECTRUM
##DATE=29/10/2018
##SAMPLING PROCEDURE=Diamant-ATR
##ORIGIN=ComPlat
##XUNITS=1/CM
##YUNITS=TRANSMITTANCE
##RESOLUTION=4
##FIRSTX=3997.453
##LASTX=373.96442
##DELTAX=-1.4165319
##MAXY=0.94952458
##MINY=0.60159212
##XFACTOR=1
##YFACTOR=8.8431368e-010
##NPOINTS=2559
##FIRSTY=0.93401825
##XYDATA=(X++(Y..Y))
3997+1056206951+1056172037+1056152827+1055886521+1055656275+1055706625
3989+1055802066+1055700896+1055657893+1056043164+1056793350+1057519675
3980+1057889107+1057796698+1057392353+1056972909+1056730868+1056626866
3972+1056495095+1056246246+1056000296+1055934377+1055950621+1055762029
3963+1055428793+1055477053+1056244427+1057331623+1057906766+1057377726
3955+1055815075+1053985915+1052891641+1053058664+1054166486+1055304571
3946+1055706557+1055385588+1055126562+1055715589+1056965764+1058002814
3938+1058389163+1058152784+1057314840+1056164622+1055461416+1055516281
3929+1055648929+1055321826+1054831880+1054654814+1054845832+1055105532
3921+1055127169+1054797168+1054243055+1053802514+1053852796+1054591052
3912+1055962079+1057629339+1058906879+1059003331+1057629945+1055386330
3904+1053461190+1052664698+1052972794+1054138379+1055776049+1057197223
3895+1057898206+1057785779+1057038694+1056136718+1055560767+1055257659
3887+1054944104+1054560182+1054119439+1053508843+1052923320+1053134896
3878+1054416615+1055865761+1056496915+1055978188+1054747694+1053766252
3870+1053928084+1055214050+1056506149+1056867020+1056277723+1055461551
3861+1055129123+1055260962+1055484063+1055611183+1055576067+1055064148
3853+1053998250+1053557170+1054355751+1055736214+1056954643+1057449712
3844+1056841070+1055205625+1053290797+1052057742+1052110990+1053429376
3836+1055219981+1056481884+1056729790+1056221645+1055780498+1055990995
3827+1056592626+1056907596+1056710445+1056321063+1055934579+1055409584
3819+1054791641+1054527289+1055108835+1056501835+1057847991+1058353979
3810+1057858439+1056675935+1055572023+1055330588+1055583211+1055147928
3802+1053736258+1052655464+1053142917+1054798920+1056747044+1058292980
3793+1058930470+1058632620+1057839836+1057147346+1056953969+1057258290
3785+1057724780+1057945657+1057692023+1056970280+1056057723+1055419357
3776+1055274847+1055511900+1055978188+1056484917+1056729722+1056527853
3768+1056117576+1055962214+1056300370+1056895936+1057200594+1056864459
3759+1056038378+1055224093+1054742167+1054409133+1053754928+1052428858
3751+1050906985+1050418589+1050893842+1051083376+1050384214+1049508795
3742+1049725358+1050770361+1051327911+1050497652+1048598192+1047302385
3734+1047840794+1049594059+1051690737+1053777845+1055496330+1056509587
3725+1056720151+1056262625+1055459057+1054751199+1054446272+1054513742
3717+1054684471+1054606824+1054015033+1053108879+1052829968+1053946889
3708+1055852348+1057468652+1058257729+1058186687+1057584449+1056982211
3700+1056704986+1056710849+1056883534+1057194864+1057686900+1058363483
3691+1058944894+1058875874+1058061252+1057224724+1056726554+1056303134
3683+1055834891+1055426434+1055078369+1054627449+1054082705+1054023661
3674+1054860256+1055437892+1054537804+1052770520+1052605654+1055035636
3666+1057984885+1059478854+1059185250+1057953341+1056708423+1055836172
3657+1055700019+1056728239+1058172802+1058327018+1056435444+1053377948
3649+1051278775+1051406300+1052972052+1055070686+1057076034+1058374132
3640+1058890096+1059186733+1059549828+1059503658+1058611321+1057198841
3632+1055801123+1054432657+1053207353+1052972187+1053694064+1054355144
3623+1054691077+1055152512+1056021460+1056951610+1057419246+1057329871
3615+1056803325+1056035278+1055478064+1055585166+1056554746+1058278489
3606+1060013353+1060764415+1060303452+1059167254+1057981110+1057071788
3598+1056502240+1056119059+1055649468+1055094411+1054743583+1054636009
3589+1054563754+1054641401+1055408842+1056897014+1058266491+1058702044
3581+1058149953+1057481054+1057516103+1057922875+1058002949+1057993512
3572+1058380131+1058698809+1058221804+1057240563+1056799618+1057067676
3564+1057327175+1057424773+1057608848+1057918022+1058273636+1058641045
3555+1058855923+1058676768+1058214389+1057893285+1057736710+1057279993
3547+1056339464+1055353775+1054936555+1055527066+1057297046+1059661176
3538+1061210213+1060959207+1059499681+1058198752+1057658456+1057660411
3530+1057905350+1058143819+1058040155+1057495141+1057016720+1057333106
3521+1058415517+1059296261+1059247529+1058724489+1058674679+1059203179
3513+1059519969+1059081720+1058273703+1057884658+1058128452+1058457374
3504+1058362337+1058048310+1058100210+1058564880+1058907149+1058789869
3496+1058418887+1058214457+1058434390+1059033662+1059707617+1060193384
3488+1060635138+1061364227+1062246184+1062677558+1062347489+1061622309
3479+1061001401+1060604874+1060424304+1060580744+1060998031+1061187229
3471+1060730444+1059726759+1058579979+1057664253+1057245551+1057291317
3462+1057333106+1056989625+1056562295+1056607522+1057093020+1057409473
3454+1057117891+1056390689+1055669891+1054994926+1053875578+1052047766
3445+1050129029+1049081735+1049309487+1050481543+1051839629+1052709993
3437+1053050845+1053418457+1054237932+1055339688+1056300573+1056927682
3428+1057343351+1057766772+1058152986+1058078304+1057290373+1056272399
3420+1055830308+1056217196+1057036132+1057779645+1058167006+1058182441
3411+1057996141+1057815638+1057832691+1058215535+1058947725+1059713818
3403+1060122679+1060018003+1059499479+1058735678+1057858371+1057031077
3394+1056521247+1056479323+1056638190+1056570451+1056303336+1056243955
3386+1056499207+1056776432+1057038154+1057696673+1058915304+1060158267
3377+1060743318+1060603256+1060211919+1059956398+1059841545+1059687261
3369+1059441378+1059304821+1059425876+1059474540+1059034673+1058527809
3360+1058916113+1060213335+1061201248+1061002412+1060082036+1059343510
3352+1059073969+1059095807+1059259999+1059494761+1059734982+1059903487
3343+1059846398+1059441715+1058832265+1058304439+1057907642+1057503971
3335+1057200459+1057381973+1058181430+1059158963+1059749810+1059938065
3326+1060202079+1060788477+1061356004+1061386132+1060719929+1059710447
3318+1058984998+1058964036+1059563848+1060427741+1061221806+1061553492
3309+1061050200+1059878616+1058884569+1058846621+1059657672+1060384065
3301+1060262336+1059520576+1058894881+1058557601+1058182238+1057849744
3292+1058052422+1058872369+1059824762+1060454095+1060629274+1060394310
3284+1059902274+1059471507+1059474001+1059994817+1060613232+1060769605
3275+1060448164+1060183813+1060302778+1060563894+1060687239+1060756933
3267+1060892546+1060985764+1061018454+1061207314+1061544123+1061626825
3258+1061229422+1060658122+1060297722+1060114658+1059826716+1059386782
3250+1059138675+1059460520+1060235847+1060811664+1060708741+1060319426
3241+1060490425+1061343130+1062020252+1061854712+1061243914+1060917350
3233+1060926921+1060867271+1060548256+1060047054+1059578272+1059534326
3224+1060178690+1061187296+1061909780+1062096416+1062019578+1061905938
3216+1061663829+1061271684+1061034091+1061201248+1061615906+1061981091
3207+1062245510+1062493348+1062638667+1062465376+1061957905+1061488853
3199+1061571084+1062376337+1063532217+1064398537+1064536037+1064026005
3190+1063320911+1062666099+1061934718+1061225985+1061082553+1061713235
3182+1062555357+1062986259+1062984103+1062840738+1062640958+1062321876
3173+1061980822+1061835300+1061982102+1062394806+1063025353+1063694117
3165+1064112415+1064245332+1064346570+1064472949+1064351490+1063800073
3156+1062946897+1062166582+1061939908+1062409836+1063071793+1063334863
3148+1063164673+1062790254+1062288984+1061792635+1061482046+1061222547
3139+1060826357+1060587012+1060913171+1061613075+1062085160+1062055571
3131+1061788186+1061695306+1061966330+1062461938+1062884550+1063092890
3122+1063203227+1063349153+1063475127+1063450525+1063288828+1063126523
3114+1063023061+1062876259+1062535474+1062019241+1061660055+1061867586
3105+1062586228+1063246297+1063467713+1063466500+1063505997+1063468994
3097+1063316395+1063402266+1063922610+1064495933+1064644959+1064406625
3088+1064273169+1064673942+1065552664+1066416692+1066838023+1066823194
3080+1066618224+1066333315+1065969142+1065694613+1065832855+1066461919
3071+1067147870+1067244862+1066434688+1064872980+1062981339+1061256181
3063+1060073610+1059548547+1059724804+1060691284+1062166784+1063358522
3054+1063796838+1063931238+1064394627+1065088870+1065465782+1065373441
3046+1065194152+1065210935+1065190849+1064788054+1064173818+1063839031
3037+1063848400+1063800343+1063450458+1062787895+1061533339+1058949208
3029+1054006406+1045589090+1033094686+1017495536+1001936693+990811159+987170162
3019+990309485+996430544+1002299586+1007784571+1014473830+1022822126+1031495502
3009+1038871724+1044320986+1048185960+1051056685+1053214161+1054659600
3000+1055390576+1055416526+1054743718+1053598892+1052371769+1051154486
2992+1049635646+1047479788+1044452959+1040260411+1034561963+1026980502
2983+1017078856+1004897804+991826505+980596363+973956375+972831433+975270784
2973+977268854+975236005+968248087+958350755+949085183+943541491+943062059
2963+947136048+954087973+961758473+968032467+971278353+970468381+965217349
2953+956134976+945003241+934170502+925480882+919327403+914406641+908653867
2944+900789856+891043370+880544811+870308783+860859339+852650026+846463587
2934+843039086+842502093+844626272+849429484+856911190+866266407+875805429
2924+883810782+889493053+893120368+895249939+896083501+895730516+894715103
2914+893833348+893636668+894180873+895156047+896262251+897544106+899279509
2904+901517395+903878088+905892941+907457412+908825810+910138400+911085468
2894+911021503+909266755+905442492+899879658+893715124+888321604+884543309
2884+882477500+881825587+882251636+883484286+885410438+888243148+892299814
2874+897340214+902379266+906372035+908820283+909710531+909327687+908193646
2864+906761148+905113772+903242351+901617892+901333994+903646629+909238042
2854+917684273+927508878+936735424+943472538+946254090+944306033+937933295
2844+928722319+919077947+911328520+907103416+906978317+910152824+914708670
2834+918731433+921160943+921495056+919486404+916044513+914069630+917073138
2825+926259647+939356356+952648937+963708349+971986480+977801735+981652824
2815+984091502+985558038+986392274+987142460+988593089+991325235+995282146
2805+999759941+1003867226+1007101046+1009505483+1011374882+1012988017
2796+1014566171+1016227769+1017913025+1019464218+1020835919+1022145678
2788+1023466962+1024704736+1025780002+1026769466+1027731025+1028593974
2779+1029325557+1029985896+1030565757+1030976641+1031213020+1031402622
2771+1031705527+1032174983+1032739005+1033382830+1034215786+1035180108
2762+1035915196+1036177930+1036201790+1036412287+1036940653+1037534870
2754+1037860220+1037863186+1037838247+1038081434+1038571785+1039092129
2745+1039534422+1039924276+1040207635+1040212623+1039936004+1039731573
2737+1039966268+1040535546+1040982153+1041042410+1040799224+1040385846
2728+1039881408+1039455292+1039298447+1039396787+1039586389+1039816837
2720+1040184718+1040710994+1041247717+1041606364+1041701132+1041606904
2711+1041542332+1041724790+1042189123+1042767501+1043242821+1043477785
2703+1043450083+1043236216+1042961889+1042743910+1042671925+1042789339
2694+1043008868+1043115027+1043007520+1042880737+1042931895+1042983929
2686+1042754223+1042412359+1042415460+1042806055+1043149402+1043181013
2677+1043052680+1042888286+1042534896+1041902866+1041236933+1040877545
2669+1040922030+1041211590+1041531818+1041771297+1041950722+1042099613
2660+1042157377+1042120778+1042197212+1042616925+1043370885+1044274276
2652+1045119230+1045679476+1045840972+1045805249+1045917136+1046280232
2643+1046747666+1047179781+1047498997+1047582441+1047299824+1046647843
2635+1045804238+1045098200+1044864045+1045150235+1045576688+1045686891
2626+1045463452+1045244395+1045150841+1044971956+1044659682+1044514295
2618+1044768873+1045328581+1045979281+1046544381+1046851061+1046879235
2609+1046932280+1047362643+1048137026+1048912488+1049437686+1049622030
2601+1049376821+1048753284+1048169986+1048151989+1048778762+1049583544
2592+1050079421+1050239367+1050333528+1050424183+1050276910+1049823158
2584+1049463905+1049662539+1050275494+1050640005+1050498932+1050430654
2575+1050968793+1051780382+1052274440+1052496597+1052751849+1052950146
2567+1053072279+1053636031+1054878657+1056020651+1056088930+1055065159
2558+1053607520+1052142264+1050860747+1050144869+1050336830+1051293806
2550+1052465458+1053211195+1053113462+1052398932+1051877980+1052062056
2541+1052653914+1053152757+1053376802+1053235258+1052713430+1052184728
2533+1052108563+1052547351+1053374106+1054474581+1055438634+1055744370
2524+1055455147+1055040557+1054594085+1054010180+1053667508+1054064169
2516+1054957720+1055589480+1055655669+1055566091+1055810155+1056388869
2507+1056877805+1056935299+1056666297+1056395610+1056168060+1055760007
2499+1055176103+1054768926+1054768050+1055000115+1055140245+1054981715
2490+1054473098+1053782698+1053325576+1053502170+1054396125+1055727857
2482+1056929232+1057355753+1056822198+1055952980+1055610307+1055937275
2473+1056313446+1056289182+1056161859+1056444948+1057052174+1057359528
2465+1057083988+1056751426+1056990231+1057584516+1057733812+1057175048
2456+1056431265+1055912404+1055491882+1055107083+1055032199+1055309424
2448+1055523291+1055374804+1055023976+1054755783+1054689729+1054833026
2439+1055104656+1055292034+1055209804+1054927928+1054715678+1054760703
2431+1054989264+1055147052+1055048915+1054827499+1054862548+1055304571
2422+1055813794+1056063047+1056252852+1056648165+1056928828+1056641223
2414+1056041277+1055814670+1056181743+1056802045+1057334252+1057690135
2405+1057962575+1058297968+1058651829+1058664433+1058056129+1057058847
2397+1056187067+1055716937+1055646704+1055991736+1056826309+1058036111
2388+1059114275+1059284870+1058150492+1056329151+1055003149+1054624214
2380+1054522234+1053982343+1053160239+1052647848+1052633559+1052777799
2371+1052624122+1052052080+1051347795+1050649509+1049708642+1048688982
2363+1048396524+1049046551+1049822147+1050198454+1050569233+1051210362
2354+1051703004+1051615247+1051108113+1050711317+1050797524+1051309039
2346+1051791234+1051827698+1051558427+1051355479+1051245681+1051239749
2337+1051676852+1052711610+1053934218+1054877444+1055457237+1055599051
2329+1054955226+1053502574+1051973354+1051190478+1051190478+1051384597
2320+1051564763+1052136198+1053175741+1054003372+1053978029+1053220968
2312+1052324587+1051740884+1051699163+1052328159+1053447642+1054426995
2303+1054666003+1054255120+1053954978+1054460966+1055705816+1056814110
2295+1056774140+1055394553+1053642367+1052804356+1053287022+1054450721
2286+1055536030+1056331645+1056886567+1057111690+1056958485+1056634281
2278+1056335217+1055967673+1055334498+1054429421+1053468199+1052775373
2269+1052601340+1052890765+1053326520+1053744279+1054265769+1054828847
2261+1055009889+1054628730+1053981871+1053159767+1051988183+1050993529
2252+1051176661+1052426297+1053669327+1054801077+1056614397+1058687687
2244+1059433222+1058575665+1057677262+1057797574+1058128789+1057443983
2235+1055897777+1054754637+1054837811+1055836239+1056882792+1057370582
2227+1057405092+1057720264+1058892455+1060606357+1061884639+1061872034
2218+1060443446+1058483054+1057422953+1058028225+1059784657+1061496604
2210+1062227783+1061945031+1061462432+1061374337+1061215403+1060270762
2201+1058682834+1057178283+1056353348+1056420414+1056983761+1057116071
2193+1056087851+1053841742+1050896672+1048169110+1046590753+1046564804
2184+1047987259+1050527511+1053420681+1055592985+1056548747+1056608668
2176+1056044175+1054711432+1052878363+1051618752+1051802962+1053182414
2167+1054760231+1055507317+1054934533+1054264758+1056188752+1061189790
2159+1065372902+1065466052+1063445605+1062600247+1063530667+1065095003
2150+1066130098+1066239492+1065934295+1065579894+1064535296+1062219021
2142+1058993019+1055402372+1052069133+1050546114+1052393270+1056973583
2133+1061619546+1064248028+1064735413+1063912702+1062400265+1060533158
2125+1058872369+1058389702+1059698248+1061968420+1063359600+1063088711
2116+1062329965+1062442324+1063174042+1063363846+1062702766+1062014051
2108+1062092844+1062784255+1063219538+1062833931+1061932764+1061114030
2099+1060478630+1059748530+1058927908+1058446994+1058623655+1059259190
2091+1059893107+1060250069+1060293072+1060096257+1059763897+1059196304
2082+1058148807+1057027909+1057096390+1058948736+1061307609+1062400804
2074+1062075117+1061482046+1061324190+1061548167+1062213157+1063573804
2065+1065384428+1066682593+1066422691+1064272360+1060855677+1057486042
2057+1055788114+1056872817+1059826110+1061517162+1059555692+1055359773
2048+1052916985+1054370310+1058226656+1062132072+1065563583+1068903562
2040+1071031448+1069722296+1065040003+1060423697+1058801260+1059386917
2031+1060243464+1061558008+1063884056+1065866151+1066379890+1066807490
2023+1068822073+1071360842+1071770782+1069365873+1066409413+1065530758
2014+1066981320+1068577133+1067939981+1065085028+1062728177+1063011063
2006+1064472814+1064056134+1061492021+1059469417+1060050896+1062576589
1997+1064754892+1064932227+1063307768+1061367192+1060403813+1060541449
1989+1060954691+1060555199+1058715322+1056050982+1054148354+1054115799
1980+1056033390+1059767065+1064908097+1069749931+1072153694+1071584348
1972+1068950069+1065200353+1061302688+1058824783+1058969630+1060941076
1963+1062607257+1063019354+1063369710+1065089611+1067622584+1068854695
1955+1067424893+1064236435+1061851342+1062312979+1065273888+1068340484
1946+1069517663+1068913200+1067816163+1067050003+1066850020+1067451787
1938+1068793292+1070064159+1070309031+1069378477+1067885048+1066547520
1929+1065859141+1065869521+1066021446+1065760532+1065399122+1065626739
1921+1066209026+1066410491+1066512268+1067434869+1068813378+1069200266
1912+1068169148+1066969255+1066992441+1068122371+1069219813+1069670261
1904+1069547724+1068923850+1067943688+1067096308+1066732336+1066738402
1895+1066963660+1067387216+1067786371+1067804704+1067378790+1067003495
1887+1067499642+1069110756+1070841980+1071320131+1070513193+1069639728
1878+1069391082+1069338373+1068943868+1068323094+1068005765+1068276183
1870+1068706006+1068546263+1067974221+1067985612+1068859818+1069889251
1861+1070226868+1069648221+1068630920+1067890507+1067899741+1068582593
1853+1069336351+1069580684+1069315658+1068923985+1068618653+1068412604
1844+1068450889+1068922030+1069697829+1070482457+1071048837+1071210670
1836+1070822164+1069929962+1068828408+1067884037+1067443362+1067827958
1827+1069037220+1070563003+1071747596+1072327591+1072486188+1072493400
1819+1072640337+1073089977+1073586731+1073741823+1073425302+1072672420
1810+1071721983+1071122036+1071207502+1071667859+1071891634+1071535818
1802+1070840565+1070426176+1070536581+1070793248+1070805179+1070424963
1793+1069686370+1068994083+1068768151+1068720835+1068336777+1067418895
1785+1066077592+1064781785+1064131085+1064277482+1064870756+1065539925
1776+1066041599+1066154632+1065818026+1065271799+1064964513+1065238705
1768+1065935508+1066394921+1066048002+1064718225+1062539585+1060132452
1759+1058009419+1055753739+1052767487+1048945111+1043836904+1035764552
1751+1021773618+999026336+967209487+927553498+881431823+832113197+784172406
1741+740986903+706650967+686158084+680292681+686890341+703253966+722605865
1731+739393180+754406133+768590713+781240277+792392166+802853923+812721396
1721+821957850+831739991+844078495+859292239+874299260+886965742+897949260
1711+907984969+916948511+924645702+931490121+937924061+943596963+948148698
1701+952024995+955823848+959324514+962019589+963662651+964111617+963843760
1691+963946009+965455548+968369747+971645222+974910520+979017468+983920907
1681+988176342+991346197+993651351+995383249+997035276+998930692+1000743810
1672+1002223961+1003898163+1006287030+1008694770+1010244345+1010954023
1663+1011138974+1010374634+1007363577+1001497366+993792963+986421190+982913110
1653+987530629+995996609+1001021709+1003794566+1007185636+1011990196+1016312831
1643+1018872967+1020103393+1020665729+1020856612+1020649957+1020155090
1635+1019864520+1019819832+1019618906+1019227434+1019009389+1019367294
1626+1020372530+1021944213+1024063741+1026316658+1027986209+1028885287
1618+1029476875+1030439176+1031769357+1032798925+1033234815+1033292781
1609+1033344815+1033544932+1033773425+1033981226+1034327202+1034933484
1601+1035670526+1036277752+1036663899+1036993226+1037463356+1038030478
1592+1038454707+1038627459+1038733819+1039045217+1039606340+1040207500
1584+1040657612+1040977839+1041246235+1041372209+1041267534+1041325837
1575+1042136617+1043211142+1043672577+1043506768+1043473943+1044104895
1567+1044897140+1045250866+1045007612+1044040997+1042130079+1039936139
1558+1040063933+1042323186+1044022327+1044896466+1045466216+1045912149
1550+1046221861+1046321145+1046025317+1045231454+1044064251+1042627911
1541+1041267399+1041538693+1043663074+1045366730+1045664985+1045226197
1533+1045327570+1046225029+1047002783+1047203304+1047077060+1046823897
1524+1046173062+1045058568+1044218130+1044227230+1044651459+1045229432
1516+1046126690+1047071668+1047456399+1046856790+1045052165+1042342598
1507+1040927355+1043317233+1046860699+1048877708+1049413623+1049148193
1499+1048817316+1048984069+1049509132+1049708036+1049152507+1047863036
1490+1046428179+1045987706+1046912531+1048230648+1048936483+1048676109
1482+1047667435+1046239184+1044235924+1041068158+1036078377+1028190168
1473+1015988087+1000739159+986824524+976318820+969058934+965943742+968650882
1463+975987134+984108757+990511759+994007234+993025522+987439097+980414310
1453+973725118+967251074+960401465+951678481+939724642+926524133+917392152
1443+916896881+925738358+940087670+954861345+967169113+974742554+974425224
1434+965596486+951058381+936673751+930436827+935790446+949150159+965470309
1424+980700297+992166549+999815143+1005447334+1010506674+1014954745+1018315281
1414+1020421531+1021161067+1020277088+1017205640+1011111811+1001709009
1405+991024217+983546623+982277844+986573990+994090611+1001940670+1007672886
1395+1010482140+1010567134+1008133647+1003440098+997255883+991473183+988606502
1385+988964879+989468576+985574282+973075631+951370520+926607374+908645442
1375+904451411+914464337+933220671+954244953+973767581+989642945+1000600782
1366+1007026634+1010016796+1009815870+1006413746+1001240361+997051250+996412143
1356+1000080303+1006244634+1011929264+1015129855+1015350867+1013301235
1347+1010743121+1009614135+1010403751+1011681022+1011587805+1009517750
1339+1006155663+1002227601+998319826+995772497+996198276+999921571+1005679332
1329+1011910189+1017579991+1021776988+1023528838+1022596261+1020230176
1320+1018761820+1020000268+1023702735+1027993624+1031319043+1033410937
1312+1034682680+1035454974+1035867071+1036093408+1036297299+1036328978
1303+1035503167+1032783086+1027564204+1020715067+1014629934+1011475783
1295+1011233067+1012169216+1013236799+1015068789+1018530631+1023222630
1286+1027761895+1030968417+1032451063+1032494133+1031685105+1030338073
1278+1028098299+1024507989+1020200991+1017079193+1016734431+1018749216
1269+1020872047+1020609111+1016324963+1007646801+996014538+984600860+976485641
1259+972525966+971570676+972562364+975379773+979665944+983853437+985884668
1249+984928839+982340933+980639029+981408559+984530829+989267987+995065044
1239+1001029595+1005592518+1007189073+1004946806+999033750+991236601+985036952
1230+983848045+988417574+996194704+1003307653+1006900188+1006210529+1002854778
1220+1000250493+1001350901+1006171840+1012041624+1016203774+1017674287
1211+1017180701+1016231072+1016039043+1016661974+1016843488+1014680148
1203+1009035690+1001193584+995008830+994347143+999864818+1008611730+1016717244
1193+1021928711+1023759690+1022493204+1018724817+1012662330+1003071543
1184+988955645+973915664+966233234+971519113+986629664+1003155998+1015278612
1174+1022346739+1025996767+1027396036+1026747493+1024015481+1020022982
1166+1016825626+1016455251+1019251767+1023744322+1028016001+1030924673
1157+1032314304+1032613771+1032384806+1032021576+1031684094+1031471912
1149+1031564792+1032079340+1032815910+1033283412+1033061726+1032109873
1140+1030636529+1028760323+1026477951+1023838416+1020882022+1017532810
1132+1013873479+1010405504+1007710294+1005908634+1004736039+1004158133
1123+1004622399+1006457153+1009081052+1011037197+1010838765+1007665472
1115+1001543873+993335100+984371558+975639272+967586063+961163446+958391668
1105+960913317+968182639+977797084+987380457+995619696+1001922134+1005911398
1095+1007429834+1006806499+1005007872+1003318437+1002624802+1002989649
1086+1003910363+1004843411+1005413431+1005251126+1003993133+1001922741
1078+1000567081+1001843476+1006110100+1011541432+1015825446+1018042707
1069+1018579430+1017816977+1015618319+1011880937+1006711057+999392262+987398790
1060+967618888+940085446+910999125+890745722+886905283+898421277+916827794
1050+932809585+941616620+944150806+944937457+948726401+957400924+969346809
1040+981516874+991729850+999238450+1004131240+1006786817+1007561470+1006465848
1030+1002943412+995992632+984877882+970637830+957281419+950070535+950785537
1020+954736651+953314668+939444114+911566988+875609154+844152974+829993400
1010+837079725+858247842+882643782+904209909+922917241+940377836+956466595
1000+969507900+977760485+980421117+978560009+975569848+975432617+979447830
990+985005947+988335208+988439277+987802327+989231253+992732660+995725720
980+995533960+991393177+985019494+979687512+977699014+978094463+977698205
970+974807597+970628865+966683413+962690038+957989479+952902436+947410037
960+941137728+936383113+938278057+949489663+966544228+982902797+994058123
950+999053364+999434793+998177540+998217779+1000547063+1003857789+1006289996
941+1006974734+1005827887+1003161390+1000343037+999718690+1002690923+1008360927
931+1014596839+1019737197+1022973174+1024149679+1023819745+1022696556
922+1020525600+1016310135+1010339450+1005041775+1002639900+1002567914
914+1002108232+998868480+992333841+984584683+979997023+982312557+991018556
904+1001576159+1009304490+1012406606+1011992825+1010232887+1008007672
895+1004003984+996961605+988889591+984610026+987351744+995687907+1005350073
885+1013131651+1018379313+1021700285+1023660541+1024645624+1024831923
877+1024048104+1022294502+1020356488+1019177692+1018576599+1017243520
868+1014335521+1010766914+1008626896+1009346077+1012526380+1016478236
860+1019512748+1020388639+1018015274+1011976311+1003903016+997487342+996087939
850+1000185316+1007433473+1014912888+1020869688+1024691727+1026326701
841+1026066057+1023993036+1019052256+1009571470+995921658+982348078+974659514
832+975359688+981486948+987171645+987712413+982034590+973101783+966248871
822+965580444+970934062+978585015+985053735+989677927+993566559+997356852
812+1000777511+1003452365+1005002143+1004893288+1003233308+1001335803
803+1000694674+1001757269+1004060670+1006844581+1009295053+1011079391
795+1012838115+1015431952+1018736882+1021756363+1023765689+1024902493
786+1025785394+1026792854+1027601613+1027280644+1024438362+1016856901
778+1001980370+980040632+957260255+943677980+945722490+961081283+981334147
768+998833094+1010796302+1018425079+1023888563+1028296057+1031590405+1033588204
758+1034734445+1035767248+1036928116+1037819779+1038049688+1037850919
749+1037919130+1038608654+1039491083+1039934656+1039845348+1039419097
741+1038496227+1036774371+1034456344+1032199248+1030561848+1029629272
732+1028733834+1026512866+1022085892+1016708818+1013619238+1015278140
724+1020778628+1026575752+1029468315+1028152086+1022487542+1013155512
715+1002850734+996301132+997125999+1004512332+1014082493+1021975622+1027339755
705+1031206617+1034265124+1036281931+1036885450+1036248163+1035107988
697+1034251374+1033921373+1033772212+1033399276+1032870237+1032654415
688+1032842400+1032703618+1031531967+1029491906+1026986298+1023594555
680+1018044729+1009279146+997832711+985836341+975021059+964732727+950499011
670+921319204+864003582+792936236+748217941+742317287+767459773+813477648
660+866108686+912028761+946006320+969351055+985303123+996199085+1002987964
650+1006113941+1005730288+1001099356+990930731+975731613+960410160+952820610
640+957638853+972102411+989011993+1002982235+1012714365+1019058390+1023042801
630+1025573751+1027569192+1029569486+1031482089+1032979158+1033734063
622+1033314080+1031775221+1030386535+1030741407+1033046291+1036024590
613+1038281753+1039013134+1037934699+1035483553+1032845500+1031057456
605+1029956037+1028118048+1023742435+1015744967+1004655157+992821833+983403056
595+978788637+979619167+984645749+991161515+995415670+992317462+976518061
585+948285322+919162402+906224222+917255798+943742551+970384667+988238419
575+997225417+1000957407+1002176375+1001494333+998644098+994806354+993073647
565+995678066+1001632575+1008044541+1013149378+1017107569+1020273381+1022310611
555+1023292323+1024113349+1025051991+1025062978+1023395516+1021179873
547+1020338020+1021347637+1023114045+1024624797+1025594040+1025719745
538+1024434655+1021207170+1015452510+1007238007+999083830+995550204+999495859
528+1009581917+1021738097+1031799216+1037358411+1038315993+1035884798
520+1031978843+1029360472+1030222276+1033791826+1037141241+1038569089
511+1038726001+1038675719+1038146612+1036157642+1032362496+1026597590
503+1018122646+1007619975+999155411+997098027+1001896858+1010157194+1017966205
493+1023584647+1027138560+1029465080+1031594651+1033701912+1034614065
484+1033682500+1032580138+1033428394+1035955368+1038068762+1038396741
476+1037350188+1035959816+1034632331+1033313204+1032082508+1031036898
467+1030151773+1029594964+1029592470+1029769535+1029315245+1028443870
459+1029177947+1033039618+1037650262+1039233202+1037568975+1035014097
450+1032954152+1031172848+1030055523+1030960329+1034016343+1037246389
442+1038353536+1036668820+1033142609+1029337555+1027066709+1027465662
433+1028995219+1027771668+1021493158+1012603960+1006017422+1004324010
425+1006565940+1010170473+1012999273+1014370705+1015882670+1020369294
416+1026714802+1030942737+1031122903+1027797214+1022266058+1015080652
408+1007033779+1000468607+997686718+998792517+1001211244+999889083+989725378
398+974955544+971659579+983491218+996414907+1001129620+999623047+995998361
388+990454332+983659386+982165957+993234940+1013606230+1031807372+1039039286
378+1032543134+1015880783+1000935636+998873400
##END=
