##TITLE=STM157
##JCAMP-DX=5.0
##DATA TYPE=LINK
##BLOCKS=1


$$ === CHEMSPECTRA SPECTRUM ORIG ===
##TITLE=STM157
##JCAMP-DX=5.00
##DATA TYPE=INFRARED SPECTRUM
##DATA CLASS=XYDATA
##ORIGIN=Lara
##OWNER=
##XUNITS=1/CM
##YUNITS=TRANSMITTANCE
##XFACTOR=1
##YFACTOR=8.9933766e-010
##FIRSTX=3997.453
##LASTX=373.96442
##MAXX=3997.453
##MAXY=0.9656564585409542
##MINX=373.96442
##MINY=0.748246549875201
##NPOINTS=2559
##XYDATA= (X++(Y..Y))
2559I60621014I60488395I60858481I61674208I62407223I62492719I61900674I61186482
2551I60854637I60873858I60906731I60776100I60594371I60555997I60657731I60703793
2543I60676819I60880220I61494600I62242725I62704007I62732970I62455936I62086115
2535I61857793I61900343I62033955I61930896I61643523I61650018I62187186I62880898
2527I63213141I63037244I62580933I62203954I62092610I62125085I62157627I62270097
2519I62484037I62537919I62235104I61668840I61019996I60490914I60425831I61032920
2511I61947730I62579143I62800439I62960761I63270470I63433310I63161976I62668152
2503I62319473I62150999I62050856I62114216I62408084I62727668I62816147I62641840
2495I62352412I62095460I61924070I61804507I61745986I61895770I62380845I63053283
2487I63549956I63569441I63137850I62752985I62865787I63203928I63258209I63074359
2479I63130693I63410379I63407330I63070382I62884279I62991049I63177749I63436028
2471I63836601I64126559I64019258I63719424I63576864I63555192I63454585I63284388
2463I63230439I63347019I63512510I63555523I63219967I62174726I60824747I60526040
2455I61333814I62319937I62951416I63143021I63082378I63101664I63353050I63531200
2447I63303011I63052090I63384465I63950927I63943769I63297113I62776977I62951217
2439I63618486I64267396I64569416I64430965I64030458I63851314I63864569I63300890
2431I62081078I61403802I62020766I63179671I63944697I64050606I63858803I63959808
2423I64399749I64580816I64114497I63493091I63424893I63726383I63860725I63672832
2415I63396196I63308512I63515625I63965176I64547545I65121364I65422655I65175313
2407I64391663I63409053I62721637I62670140I63142093I63804125I64485510I65205071
2399I65902163I66170847I65582646I64402400I63498195I63410511I63754352I63804656
2391I63401299I63078600I63258010I63711206I63951722I63651955I63055072I63086089
2383I64024891I64987884I64917764I63692649I62694662I62826221I63729366I64754393
2375I65150988I64414794I63252443I62931467I63587667I64568621I65358633I65626388
2367I65189098I64320019I63709748I63863177I64736101I65892089I66871187I67371572
2359I67169496I66088532I64405979I63171784I63143418I63984396I64930953I65505898
2351I65714867I65770671I65752379I65795194I66205708I66949128I67450706I67254527
2343I66567112I65941266I65631492I65517364I65524389I65571313I65433856I65061517
2335I64829484I65037193I65308594I65181410I65244505I66079916I66913736I66888353
2327I66263302I65911243I65997999I66283251I66667255I67066304I67278653I67070016
2319I66439464I65984942I66472205I67651920I68316869I67245382I64700908I63078534
2311I63445041I64534555I65205270I65231714I64971447I64862357I65114007I65764442
2303I66707750I67619577I68154757I68171789I67728469I67166447I66859191I66700924
2295I66401488I65899579I65439224I65341335I65577211I65777896I65738262I65599016
2287I65719440I66382599I67461973I68342915I68441402I67933461I67447922I67286805
2279I67316762I67386882I67500744I67544221I67366071I67197000I67394901I67792558
2271I67861751I67432480I67025412I67112896I67444873I67634423I67639129I67578619
2263I67418628I67021568I66437277I65925625I65691869I65702738I65738329I65610548
2255I65503446I65858686I66518134I66762958I66321161I65721826I65524323I65596962
2247I65622147I65751451I66206636I66680179I66704304I66276756I65715795I65243776
2239I64907093I64745711I64877932I65345245I65940471I66306912I66277154I66056255
2231I65984611I66171244I66441452I66627556I66798151I67088705I67448055I67686251
2223I67631375I67221457I66589977I66033324I65774052I65815010I66043862I66349726
2215I66688199I67117072I67627597I67979126I67952151I67703616I67579282I67599893
2207I67522814I67344796I67376476I67795010I68350007I68651696I68586348I68353056
2199I68187233I68137724I68115787I68148196I68483156I69219219I69895434I69877407
2191I69173621I68489253I68362136I68593970I68715056I68569911I68220039I67709117
2183I67187258I66950652I67135364I67566093I68010342I68401238I68734210I68907986
2175I68821297I68595295I68537635I68802275I69200794I69393194I69181574I68644604
2167I68141171I68089409I68491440I68840848I68749586I68446770I68406077I68673103
2159I68884259I68888368I68988114I69422156I69922409I70070337I69883438I69726231
2151I69782168I69919360I70002802I70051250I70124086I70194804I70115803I69725370
2143I69064331I68410119I68015312I67933130I68126457I68545654I69055252I69479949
2135I69770239I69966416I70011617I69776999I69295569I68842373I68690534I68877234
2127I69268197I69722719I70085912I70193810I70080345I70023480I70212301I70509483
2119I70684386I70713547I70743040I70906411I71270996I71786757I72199989I72207213
2111I71813599I71311491I70888649I70569065I70510940I70900115I71511910I71803923
2103I71498390I70820517I70233575I70064770I70254055I70446852I70411792I70247029
2095I70123027I70057877I70033685I70112224I70336834I70650386I70921588I70987533
2087I70773461I70474223I70432868I70677095I70822969I70624207I70298659I70090286
2079I69854542I69279795I68279224I67040456I65848016I64895627I64190913I63632735
2071I63143352I62732837I62470251I62379387I62359968I62307742I62267910I62364276
2063I62700892I63409318I64583798I66033589I67245051I67776122I67745834I67756305
2055I68181666I68737656I68944106I68736993I68420459I68307325I68548968I69075731
2047I69648821I70058739I70230394I70192617I70094528I70136148I70400724I70859554
2039I71448219I72003414I72325582I72413663I72412802I72299138I71871524I71105107
2031I70330007I69932151I69928771I70010225I70014002I70083858I70291700I70484497
2023I70611416I70828404I71174497I71474265I71604100I71596279I71488382I71296048
2015I71126580I71157001I71488581I72064587I72686986I73129645I73302161I73271144
2007I73116721I72877795I72612823I72357329I72066045I71719288I71391552I71158194
1999I71053809I71104444I71265098I71396656I71434301I71483610I71657121I71911157
1991I72113101I72223583I72362233I72643907I72980391I73186974I73286785I73494296
1983I73857357I74156262I74202854I74011581I73650111I73163578I72688312I72431757
1975I72493725I72809332I73245760I73668934I73915879I73767685I73122752I72304109
1967I71932300I72236375I72763734I73016511I73020554I73040967I73146744I73234096
1959I73124740I72584722I71581235I70530227I70011948I70217404I70778631I71119555
1951I70956913I70481249I70002139I69485980I68697095I67732578I66988032I66549085
1943I66077861I65427957I64868322I64535218I64145713I63440667I62554687I61860842
1935I61671292I62041577I62685450I63152896I63160252I62698573I61969601I61352769
1927I61226182I61645776I62349297I63133145I63983734I64846252I65563095I66090454
1919I66519327I66850045I66987966I66981802I67002348I67038402I66896239I66585007
1911I66397180I66503619I66776545I67107660I67547800I68012595I68176098I67858702
1903I67310200I66943428I66900680I66982332I66908964I66525822I65824156I64934797
1895I64078376I63365443I62700760I62005655I61402410I61046176I60953190I61131539
1887I61667780I62514789I63370149I63940323I64212386I64379071I64602819I64919089
1879I65265051I65547652I65729448I65825084I65802948I65642891I65531348I65754964
1871I66271918I66664074I66707087I66726572I67142654I67871427I68454061I68690335
1863I68847873I69205433I69644314I69839696I69692298I69416457I69294906I69462982
1855I69855337I70243517I70337695I69918035I68935093I67543691I66028552I64627739
1847I63415747I62350689I61367085I60390042I59328496I58155673I57029642I56283969
1839I56178457I56608059I57185391I57659994I58092247I58593228I59142525I59725954
1831I60424240I61277281I62216149I63148588I64008786I64739414I65297460I65655351
1823I65791880I65724742I65562962I65495228I65696840I66195966I66814388I67283822
1815I67438842I67284154I66905253I66385780I65814878I65317011I65004784I64838232
1807I64560866I63917126I62982301I62164453I61868928I62263735I63276898I64588702
1799I65665690I66057183I65743233I65125473I64643049I64391200I64135241I63704512
1791I63224872I62893425I62761270I62832914I63088807I63351525I63440137I63449946
1783I63612786I63962393I64335594I64601361I64781235I65034675I65515773I66183042
1775I66840170I67379128I67853400I68300896I68638109I68761648I68656799I68383476
1767I68044010I67755245I67566822I67431552I67334060I67329818I67396624I67456737
1759I67579679I67863209I68132224I68144352I68037979I68189155I68692721I69302660
1751I69781506I70055955I70129456I70038392I69874425I69750820I69732528I69792574
1743I69831345I69775143I69672945I69643585I69692033I69689978I69621184I69683086
1735I69989281I70346576I70534602I70625201I70801231I71012585I71048109I70854185
1727I70598492I70468392I70517105I70649988I70727266I70734424I70805936I71009139
1719I71222018I71337206I71435825I71625905I71848527I71952911I71864035I71642540
1711I71454515I71464788I71678593I71933294I72091164I72158368I72185143I72183619
1703I72207478I72350104I72579685I72711575I72639134I72456809I72289197I72133713
1695I71972728I71919309I72109853I72473577I72778911I72954211I73173519I73519282
1687I73767950I73650774I73196849I72721118I72554036I72778248I73159469I73370227
1679I73288509I73042624I72810591I72665446I72596917I72626277I72829480I73193734
1671I73549372I73743627I73791545I73792804I73820839I73901762I73983016I73950541
1663I73770601I73536912I73339740I73171796I72990531I72809928I72706007I72706803
1655I72696464I72533226I72269778I72110582I72130465I72198862I72213310I72234320
1647I72324124I72407632I72402264I72363559I72371247I72376416I72320148I72324853
1639I72580016I73041696I73405685I73446047I73270084I73162849I73284466I73602194
1631I73992759I74296238I74386970I74305848I74240035I74338389I74600180I74897164
1623I75045556I74949588I74711391I74515545I74445226I74497386I74659895I74865682
1615I74979147I74936399I74854680I74940177I75278782I75719916I75992046I75958377
1607I75740130I75558600I75486557I75428831I75356192I75414118I75680879I75973820
1599I76084435I76048380I76010404I75992907I75958245I75936638I75953274I75938163
1591I75800839I75554557I75318415I75221188I75335912I75636673I75923582I75906351
1583I75541567I75139867I74967416I74981334I75108584I75416702I75802231I75901115
1575I75554027I75081610I74890668I75029451I75300321I75602872I75934452I76212613
1567I76371477I76516423I76743418I76961600I77125964I77418839I77928900I78353465
1559I78338487I77995972I77783291I77930358I78258822I78513920I78571646
1552I78385742I78066821I77929033I78138266I78433195I78473690I78285333
1545I78144496I78198246I78361882I78486548I78555541I78729384I79117497
1538I79525692I79633324I79426741I79202595I79096686I78918602I78574231
1531I78338023I78485554I78906407I79303335I79555184I79623913I79283916
1524I78354393I77218884I76695567I77153999I78053102I78602796I78607899
1517I78420205I78341204I78380373I78457254I78610749I78964266I79507996
1510I80038404I80399278I80663587I80968258I81291819I81464468I81331584
1503I80924914I80469928I80137222I79868538I79594950I79405864I79317916
1496I79162432I78902364I78779621I78999591I79518136I80171288I80759091
1489I81023665I80812045I80288927I79838250I79734660I79985052I80471320
1482I81099088I81716781I82038817I81863450I81328005I80765122I80355999
1475I80105144I80092618I80453491I81018695I81275051I80947249I80426119
1468I80290054I80554298I80757036I80691754I80670347I81030889I81669394
1461I82163681I82240628I82012174I81734146I81492834I81268423I81146210
1454I81209172I81333506I81387919I81535185I81995539I82587584I82858388
1447I82619860I82062610I81455057I81007626I80877062I81074234I81470764
1440I81945964I82345278I82386436I81933836I81313889I81070986I81356504
1433I81717974I81606432I81055610I80643306I80742389I81098358I81240256
1426I81000469I80576500I80338966I80534746I80987876I81254704I81179481
1419I81033143I81073704I81317335I81773978I82514017I83361358I83819525
1412I83552167I82805500I82166266I81952526I81994412I81943114I81622006
1405I81106709I80532029I79928253I79467700I79695491I80858505I82147311
1398I82509047I82046704I81677148I81849002I82282912I82514945I82423683
1391I82244870I82124313I82027484I81993352I82085144I82206430I82232609
1384I82213587I82290667I82453640I82497978I82333481I82265482I82716955
1377I83590475I84215392I84190075I83894748I83877583I84179139I84430724
1370I84288826I83754109I83217870I83113021I83459248I83879770I84061566
1363I84025710I83919271I83733300I83351814I82785683I82246328I82028014
1356I82288479I82841554I83260022I83343198I83357448I83662053I84276963
1349I84917853I85240088I85028535I84374588I83677429I83366262I83652310
1342I84436689I85280185I85621441I85316306I84843757I84788416I85247445
1335I85857252I86180083I85967734I85340960I84852704I85041922I85778913
1328I86362806I86310514I85749686I85180042I85114694I85724169I86626254
1321I87206899I87123193I86431468I85538331I85113434I85615079I86814014
1314I88059741I88884614I89131360I88831792I88257111I87820153I87713448
1307I87885899I88363021I89173711I89960475I90199798I89861989I89351861
1300I88835901I88157631I87300680I86422587I85648150I85290325I85911201
1293I87633718I89600198I90693688I90787204I90746775I91056484I91155500
1286I90493932I89421450I88472111I87640014I86958364I86869024I87493345
1279I88357851I89087419I89650700I90104824I90776003I92012584I93199457
1272I93068893I91565418I90149958I89742493I89640825I88946185I88028856
1265I87816773I88142321I87879934I86856696I86422587I87328649I88616593
1258I89338208I89575543I89745475I89974327I90017141I89621605I89195383
1251I89652556I91238478I93136760I94332514I94264051I93024355I91506300
1244I90757843I90933475I91452418I91913965I92256546I92442981I92390755
1237I91967582I91158151I90459269I90653591I91833108I93064055I93354212
1230I92685684I91818660I91255776I90843472I90413141I90225580I90469675
1223I90819679I90863024I90631455I90472525I90648819I91152717I91755896
1216I92190469I92304199I92069449I91586892I91092472I90814907I90832272
1209I91158880I91869692I92973190I94226804I95207823I95506265I94827862
1202I93218942I91394426I90394849I90572005I91364204I92266554I93289261
1195I94264515I94636589I94254905I93560662I92898828I92390822I92396323
1188I93326906I94848474I95865681I95654326I94648519I93784212I93410480
1181I93518510I94562559I96816478I99239535A000252566I99476406I97734204
1174I95828897I94256628I93468472I93614876I94502380I96012018I97802336
1167I98820073I98319091I97239387I97248268I98422814I99113212I98264745
1160I96675575I95504143I94736931I93844788I93087715I93333600I94690604
1153I95928046I95696345I94140380I92777477I92790467I93865996I94904743
1146I95398831I95635835I95936530I96144637I95770441I94618960I93238494
1139I92550547I93041322I94447702I96020833I96987736I97170857I97104780
1132I96987139I96172605I94431199I92653474I91793541I92117764I93474503
1125I95302333I96632164I96913573I96584777I96407687I96597568I96944060
1118I97370812I97812410I97921700I97521789I96999997I96761535I96707653
1111I96631104I96649197I96967455I97611461I98467152I99312969I99846691
1104I99863392I99408340I98781633I98370919I98299142I98296955I98120793
1097I97907583I97912553I98199993I98774409I99663901A000637498A001219866
1090A001314376A001297940A001189909A000576524I99568662I99037591I99472297
1083A000314667A000793909A000748842A000509055A000456498A000780720A001445272
1076A002230180A002751575A002657529A002014385A001327631A001126218A001552109
1069A002322900A003029272A003343553A003144592A002689938A002540551A003001237
1062A003669698A003928241A003811397A003861965A004273607A004670203A004655092
1055A004323049A004042104A003929368A003726232A003095879A002145015A001481392
1048A001489478A001843525A002055741A002164368A002465792A002896123A003161957
1041A003265878A003486577A003926319A004334382A004494174A004521943A004668546
1034A005015767A005392281A005611325A005653675A005577988A005497926A005576198
1027A005778075A005832554A005560822A005093310A004707980A004550972A004577019
1020A004671131A004787644A004920130A004965463A004752452A004239739A003667180
1013A003396640A003606935A004214024A005040886A005948604A006857383A007779019
1006A008733594A009606982A010244359A010611330A010807044A011023502A011414133
999A011952627A012527175A013104838A013677133A014116146A014330218A014451040
992A014661268A014990196A015394945A015907922A016632586A017513131A018336082
985A019129209A020123815A021314267A022391984A023071712A023364918A023573290
978A024034506A024912599A026090392A027314115A028362074A029052539A029486780
971A030071402A030952080A031954507A032871702A033427163A033304552A032516330
964A031387249A029779058A026622789A020851726A013486655A005801471I96942138
957I86227669I74180652I61223398I47645468I34541611I22448664I09495321
950H92454528H71705451H53888365H43765543H41457609H45991958H55406553
943H67080502H79351333H91139940I01016082I08833885I16235606I24066200
936I30850427I35986498I40284308I43841813I46683536I49385151I52302031
929I55153430I57499606I59323261I61045645I63054211I65184459I67188915
922I68947221I70298791I71109415I71496335I71783907I72215166I72945529
915I74019004I75260357I76542668I77925321I79463326I81007096I82304916
908I83312976I84171120I84986847I85771822I86529159I87262373I87948861
901I88647213I89426223I90169046I90727489I91211835I91730181I92247730
894I92684690I92960730I93056831I93214634I93689304I94430404I95351974
887I96383430I97348941I98099320I98699251I99298852I99912503A000377563
880A000459878I99963072I98911401I97325214I94558383I89587539I81825209
873I71793120I61216572I52312834I47007427I46322264I49668017I54800178
866I59196541I61600973I62403312I63097621I65078881I68496080I72441102
859I76041885I79025704I81536245I83785658I85854932I87664934I89087949
852I90035102I90362042I89838858I88642971I87437209I86457250I85527395
845I84573615I83711163I82908095I81992556I81006897I80089834I78902563
838I76452665I73206259I71963184I72866131I74765937I76978500I79123528
831I81132424I83086577I85033307I86989779I88861086I90427788I91718251
824I93140206I94687887I95973777I96899125I97496737I97869143I98223455
817I98681423I99291628A000146458A001208334A002145280A002618227A002699415
810A002831437A003148768A003442371A003635831A003786477A003914390A004056950
803A004283482A004569263A004807130A005019611A005303472A005665340A006128875
796A006680425A007143961A007237874A006890852A006361836A005888558A005563871
789A005553134A006162477A007451349A009003736A010065347A009493450A006056501
782I99430476I90583868I80936247I71791662I64406377I60193467I60285723
775I63839649I68802143I74087534I79486986I84674289I88997284I92204122
768I94311041I94668137I92058778I87813326I85743522I86644878I89435965
761I93121781I96653174I98796147I98560668I95476242I89282337I80445008
754I71146993I64605470I63642478I68843367I76656862I83471111I89050768
747I94075230I98452373A001793884A004203155A006198863A008202590A010191272
740A011909879A013208693A014011430A014292109A014075320A013272650A011623301
733A008789598A004475219I98365485I90080501I80019714I70424186I63964580
726I61674474I63162042I67076643I71603305I75524600I78340011I79935079
719I80660141I81232899I82486248I84907249I88142918I91501793I94678807
712I97580377A000012447A001821256A003081762A003874624A003909353A002553144
705I99105988I92890875I83960561I74206831I66786420I64444618I68213942
698I76054942I84091920I89983406I93332341I94198769I92516282I88601814
691I83787646I80134836I79147851I80775991I83911715I87606478I91569859
684I95851564A000377695A004800038A008817102A012452880A015842773A019016208
677A021955025A024656176A027089572A029223598A031107564A032814241A034360530
670A035776255A037118281A038166902A038019372A035027136A027324057A014152466
663I97574280I82671357I75145368I77853743I88744771A002207182A012968972
656A018721544A019560401A016037227A008159908I95833735I79869532I62520886
649I46832657I34988975I26953123I20646351I13467847I03896046H92161057
642H79845820H68833572H60278580H54201984H49776327H45932376H41922072
635H37671716H33914918H31997350H33242215H38203847H46359592H56426278
628H66974924H76831381H85138236H91352289H95339131H97427559H98298825
621H98754474H99503262I01015949I03449808I06716958I10672054I15233245
614I20318085I25696594I30968332I35753404I39906401I43484187I46562250
607I49170814I51270045I52576083I52568129I51065185I48860906I47475668
600I48084349I50720880I54391983I57650848I59195281I58545311I56525678
593I54902243I55211819I57839072I62124687I67094339I71992810I76400439
586I80183284I83413650I86251529I88815753I91110300I93002087I94172192
579I93950101I91288450I85486569I77427057I69574061I63723268I58621462
572I50545580I36799176I18926484I02687036H94480855H96973103I07653440
565I21378238I34048649I44110099I51702231I57400920I61648294I64681820
558I66612909I67525598I67561851I66982730I66195966I65731502I66143276
551I67791432I70607969I74119877I77770964I81177625I84104049I86357372
544I87768656I88197529I87654926I86556730I85627472I85137824I84127974
537I80614675I72885815I60922968I46743582I33304301I22987953I17006133
530I15710765I18763644I24866750I31823825I37342640I39868226I38677972
523I33542962I24877222I14418247I05207320H99991717H99125488I00155154
516H99867516H96971844H92936620H90550281H91849029H97057473I04915902
509I13752835I22349184I30130535I36949424I42837464I47818647I51839754
502I54841137I56792373I57555410I56816696I54488415I51440109I49565090
495I50546309I54464622I59914908I65334110I69870382I73311109I75827018
488I77788660I79446359I80758958I81719565I82763878I84558836I87278213
481I90320487I92950126I95066722I97118234I99396941A001702821A003667644
474A005184042A006422147A007513318A008348530A008692702A008289080A006722709
467A003424079I98045835I90545428I80673992I68013921I53297233I39388386
460I30052130I27469481I31108970I38772880I48266144I58055265I67005463
453I74355223I80093943I84795309I88814626I91722692I92125651I88023952
446I78716327I67206544I59334991I59014082I64762810I71532588I75116935
439I74489035I71262380I67966666I66322553I66294982I66343099I64305571
432I58466244I49102682I39570049I34785441I37576595I46652320I58271856
425I69146116I77032648I79007147I71006355I51216759I24185895H99546010
418H85273506H82853630H88938312H99610431I12164991I24762100I36262140
411I46216753I54468002I60979237I66088598I70449702I74517799I78238940
404I81280883I83495368I85118074I86484887I87579703I88029055I87635772
397I86764572I86017507I85606927I85246451I84674753I84161179I84418264
390I85999215I88760214I91941403I94797839I97078601I98891850A000325801
383A001379260A002098092A002567062A002820436A002855297A002668398A002319587
376A002071316A002361871A003448071A005131087A006962231A008653201A010166153
369A011477295A012419410A012796257A012546329A011774477A010811484A010214601
362A010226730A010048778A008248652A004414708A000013706I97012126I95865349
355I95460269I94898380I94558185I95151025I96243587I96072860I92907908
348I86976391I81214938I79413950I83003931I89907321I96553495A000384455
341A000552863I97551282I92881133I88378529I85224381I83687901I83696119
334I85209999I88099308I92071304I96796132A001928491A007020488A011566370
327A015200225A017780290A019147700A018885776A016679310A013066862A009536530
320A007649515A008095090A010420323A013402485A015678143A016152216A014045695
313A008972188A000979814I90024100I75634685I58250647I41127804I29332305
306I24996320I23639514I17349973I03329650H88234857H82166214H89052904
299I04506383I21597347I35901928I45654930I50239782I49648068I44694986
292I37966100I34433979I39120432I52796981I70978188I87878940A000502626
285A008811866A013597137A015289499A014362694A012111889A010486201A010575011
278A011116752A008807492A000260718I84125522I62278647I39239265I19626559
271I05740644H97782600H95734203H99631970I07950622I17114494I23503383
264I25709054I24707820I22540722I21029824I20612285I19576388I15390187
257I07532884H98037631H89019368H81395224H76482636H76610085H82746992
250H92657531I02468788I09842674I15455867I21754952I30236113I39822429
243I48253618I54302444I57129520I54235704I42770724I23309923I00088414
236H77577253H59436475H49961436H52228479H64247063H80013366H94879837
229I08130363I20674584I32476313I42724861I50974121I57235628I61600443
222I64389145I66313142I68015379I69784289I71972264I75042176I78823164
215I82399558I85163208I87425014I89771257I92401293I95165407I97553337
208I98919620I99712084A000880002A002110750A001014410I94317867I82071027
201I70044026I65539633I70555081I80636679I90185880I96838747A000800471
194A002577865A002540750A001274942I99487341I97702259I95422359I90600504
187I81962666I72670550I69247784I75156370I87182775I99245500A007899774
180A013369346A017105466A019868585A021487182A021404270A019593539A017324575
173A016569557A018228250A021397245A024594075A026967822A028357368A029034909
166A029432898A029688790A029659960A029519189A029800532A030682071A031717967
159A032431496A032854338A033415034A034495004A036113932A037927248A039442785
152A040195748A039835139A038392838A036625915A035775261A036578528A038551834
145A040464962A041256100A040324854A037664728A034018214A030288324A026565460
138A022051722A016230356A010233821A006891250A008625034A014820794A022151534
131A027784875A031048313A032212122A031743881A030914700A031291811A033160070
124A035306821A036415687A036258215A035661398A035582331A036217588A036795516
117A035853202A032020054A025497883A018666203A014249494A013222942A015076421
110A018938731A023463139A027036816A029519653A032312067A035985224A039490305
103A041647726A042267209A041868359A041321913A041675628A043338630A045271309
96A045658163A043788910A040723836A037631656A034436946A030823769A027338637
89A024541187A022386350A021014301A020917406A021894184A022679158A022210255
82A021079384A021358076A024719735A030432143A035872687A039693640A042888548
75A046221377A048876400A050389286A051797124A053802508A055493942A056006588
68A055742146A055267940A054862794A054779750A054552489A052580575A047283917
61A038516642A028528294A021529002A020349021A024391403A030613541A035829011
54A039564600A043699901A049027311A053979002A057029296A058630925A060196302
47A062261467A063861108A063221079A060174099A057748922A059159942A063769382
40A067654623A068115574A066293377A065027304A065416676A066486705A067583111
33A068876424A069544223A069267785A069905560A072129722A073741822A072866845
26A071293913A071371324A071922344A070496147A067150261A063487708A060194181
19A056747556A052569639A048991920A048414721A049963064A049690139A045080301
12A037237247A028378444A019669956A013500640A014103289A020630761A025497154
5A023180339A015329663A008890271A009764520A014443484
##END=


$$ === CHEMSPECTRA PEAK TABLE AUTO ===
##TITLE=STM157
##JCAMP-DX=5.00
##DATA TYPE=INFRAREDPEAKTABLE
##DATA CLASS=PEAKTABLE
##$CSTHRESHOLD=0.93
##MAXX=3997.453
##MAXY=0.9656564585409542
##MINX=373.96442
##MINY=0.748246549875201
##NPOINTS=202
##PEAKTABLE= (XY..XY)
3996.036468107897, 0.8638033856164558
3986.1207448631744, 0.8641327608397295
3979.0380854026585, 0.8638641826409471
3974.788489726349, 0.8639728424157036
3963.456234589523, 0.8650349368093844
3957.79010702111, 0.8648422357289762
3946.4578518842845, 0.8652461165806926
3932.2925329632526, 0.8637471194550955
3915.2941502580143, 0.865208565636037
3901.128831336982, 0.8649343845636328
3891.2131080922595, 0.8658400166879151
3885.5469805238467, 0.86612904042906
3878.4643210633308, 0.8659580943266472
3861.465938358092, 0.8662694090510328
3851.5502151133696, 0.8638372411826665
3844.4675556528537, 0.8661362522177555
3837.3848961923377, 0.8661090130787095
3830.3022367318217, 0.8658615935970538
3820.3865134870994, 0.8668277853206853
3814.7203859186866, 0.8646266456057834
3807.6377264581706, 0.866834520460421
3799.138535105551, 0.8664442888563704
3792.055875645035, 0.866339623040162
3777.890556724003, 0.8657655110594724
3763.725237802971, 0.8664313545821443
3758.0591102345584, 0.866132854520076
3750.976450774042, 0.8661116949036115
3742.477259421423, 0.865787564617571
3732.5615361767004, 0.8660005322721472
3722.645812931978, 0.8667004696855097
3708.480494010946, 0.8661911477885219
3699.981302658327, 0.8685374846692931
3687.2325156293978, 0.8683261268291282
3680.149856168882, 0.8677074904395675
3675.900260492572, 0.8680239907449007
3667.401069139953, 0.8686803570473114
3656.0688140031275, 0.8687466373335158
3647.5696226505083, 0.8661327951637905
3639.0704312978887, 0.8677370543664646
3619.238984808444, 0.8681678173201761
3613.572857240031, 0.8683995595477426
3602.2406021032057, 0.8699174517575763
3593.7414107505865, 0.8698366876383576
3586.6587512900705, 0.8696823711886159
3572.493432369038, 0.8684830657474866
3566.8273048006254, 0.8683136098475764
3558.328113448006, 0.8683323853199042
3542.746262634871, 0.8676321502257763
3532.8305393901483, 0.8687463396527503
3515.83215668491, 0.8685569760143984
3501.666837763878, 0.8701804873383602
3497.4172420875684, 0.8699696052478174
3484.6684550586397, 0.8706629864896385
3473.336199921814, 0.8708845374228418
3463.4204766770913, 0.8696151367051543
3450.6716896481626, 0.8710423702828342
3440.75596640344, 0.870639263760843
3433.6733069429242, 0.8709240552189599
3420.924519913995, 0.8721113194281594
3403.9261372087567, 0.8704987161706759
3388.3442863956216, 0.8711798781117105
3378.428563150899, 0.8723786466482568
3357.180584769351, 0.872817038683338
3347.2648615246285, 0.8724157803002383
3337.349138279906, 0.8723878252884147
3326.0168831430806, 0.872746824694209
3297.6862453010162, 0.8654037704724906
3286.3539901641907, 0.8703302738243085
3276.4382669194683, 0.8708352438263596
3266.522543674746, 0.8724425427903245
3246.691097185301, 0.8722934712778159
3226.859650695856, 0.8733707060210029
3204.1951404222045, 0.873305260320147
3171.614906903831, 0.8745445008500686
3158.8661198749023, 0.874095320360418
3141.8677371696635, 0.8723682754863618
3113.5370993275997, 0.8648672094364568
3102.204844190774, 0.8644669052506142
3086.6229933776385, 0.8696431510732634
3079.5403339171226, 0.8691173784917988
3065.3750149960906, 0.8695701950036089
3048.3766322908523, 0.8642213932641354
3025.7121220172007, 0.8683387031669657
3003.0476117435496, 0.87172341261196
2977.5500376856917, 0.8599272960607907
2950.635931735731, 0.8683062190906865
2926.5548895699767, 0.8650449509342285
2906.7234430805315, 0.8658474677004282
2868.477081993745, 0.8699561349683459
2858.5613587490225, 0.8705930108249892
2844.3960398279905, 0.8721169825574046
2837.3133803674746, 0.8720369927679111
2833.063784691165, 0.8720168467049895
2817.48193387803, 0.8727787727652427
2796.2339554964815, 0.873665630316535
2786.318232251759, 0.8743213410017916
2772.1529133307267, 0.874083637064877
2756.5710625175916, 0.8746544709597958
2745.238807380766, 0.8746930354579943
2719.7412333229086, 0.8747911442033237
2712.6585738623926, 0.8742556560771182
2701.326318725567, 0.874483167820332
2697.076723049257, 0.8744441266731737
2687.1609998045346, 0.8752019994185933
2677.2452765598123, 0.8761707533552181
2665.9130214229863, 0.8763552893490112
2657.413830070367, 0.8767235267512489
2643.248511149335, 0.8771745553797907
2630.4997241204064, 0.8776965732265247
2622.0005327677873, 0.8770531411983401
2612.084809523065, 0.8768249144816866
2600.7525543862394, 0.876755892114957
2578.088044112588, 0.8793573369150391
2568.1723208678654, 0.8794884081842829
2561.0896614073495, 0.8796821821745194
2541.2582149179043, 0.8798562282938462
2528.5094278889756, 0.8783791057581533
2520.0102365363564, 0.8798590890869427
2488.846534910086, 0.8802533740058269
2476.097747881157, 0.8811122765452957
2460.515897068022, 0.8814342016553939
2452.0167057154026, 0.8816117632856337
2446.3505781469894, 0.881953775102368
2433.6017911180606, 0.8823817366192687
2416.6034084128223, 0.8821396816867549
2405.2711532759968, 0.8823140848431328
2398.188493815481, 0.881929456112704
2389.6893024628616, 0.8816557516892596
2382.6066430023457, 0.8822800512080654
2368.4413240813133, 0.8831068869639292
2358.525600836591, 0.880872189363582
2350.0264094839717, 0.8828592291577937
2338.6941543471457, 0.8831436033232364
2333.028026778733, 0.8833416689527864
2325.945367318217, 0.8833883400806521
2317.446175965598, 0.8848381632216759
2308.9469846129787, 0.8841505638216709
2294.7816656919467, 0.8831747761652072
2276.366751094605, 0.884378312990027
2266.451027849883, 0.8856573096405466
2257.9518364972632, 0.8857151262600327
2248.036113252541, 0.8859507437335761
2238.1203900078185, 0.8859496105681245
2225.3716029788893, 0.8882879010748517
2206.956688381548, 0.8861086953061396
2198.4574970289286, 0.8910158862810466
2187.125241892103, 0.8875284787706439
2164.460731618452, 0.8883808251385712
2158.794604050039, 0.8871269811637265
2146.04581702111, 0.8896206610300238
2134.7135618842844, 0.8910258401502674
2121.9647748553552, 0.8907573213077706
2107.7994559343233, 0.8905471559893429
2100.7167964738073, 0.8907692429277916
2087.9680094448786, 0.8910771599544977
2072.3861586317435, 0.8906993859757134
2058.2208397107115, 0.8924944396629566
2046.8885845738857, 0.8934114565026768
2032.7232656528536, 0.8934636108922556
2022.8075424081312, 0.8968549367644144
2010.0587553792022, 0.8931211817828469
2001.559564026583, 0.8928421730658839
1985.977713213448, 0.8926380863707001
1970.3958624003126, 0.8919572823660541
1960.4801391555902, 0.8961069576325924
1946.3148202345583, 0.8963078849545767
1926.483373745113, 0.8974558705914758
1712.587058037529, 0.7567545170672549
1603.5141023455822, 0.8510632505116623
1556.7685499061763, 0.8741230955047095
1473.1931682720874, 0.8635381457590673
1454.7782536747459, 0.8865162724356386
1437.779870969507, 0.8666399712411215
1400.950041774824, 0.8648700711288909
1364.1202125801406, 0.8673613659517139
1348.5383617670054, 0.8805845371123687
1308.8754687881155, 0.8769849534169589
1269.2125758092257, 0.748246549875201
1223.883555261923, 0.8521005501660569
1212.5513001250974, 0.8587795487483714
1177.1380028225171, 0.8044403190504993
1155.8900244409692, 0.8685187091969654
1123.3097909225953, 0.82353317663191
1106.311408217357, 0.8086174124242781
1099.228748756841, 0.8009054058268825
1075.1477065910867, 0.8539796460582895
1022.7360265832681, 0.8341082327639545
1000.0715163096165, 0.8624774804129282
988.739261172791, 0.8690254679816222
980.2400698201718, 0.8406877511110081
963.2416871149335, 0.7939835186260434
927.8283898123532, 0.8850932117847011
872.5836460203282, 0.8944436308317472
862.6679227756058, 0.880823849964357
848.5026038545734, 0.8846675750556517
798.9239876309616, 0.7933652986298193
784.7586687099292, 0.8403716680983492
753.594967083659, 0.805567502107985
730.9304568100074, 0.7882538428908717
704.0163508600467, 0.7644023289424798
655.8542665285377, 0.8683461541794788
634.6062881469898, 0.8716810340227454
##END=

##END=

