##TITLE=NiW- X15730
##JCAMP-DX=4.24
##DATA TYPE=INFRARED SPECTRUM
##DATE=20/5/2020
##SAMPLING PROCEDURE=Diamant-ATR
##ORIGIN=Fabienne
##XUNITS=1/CM
##YUNITS=TRANSMITTANCE
##RESOLUTION=4
##FIRSTX=3997.453
##LASTX=373.96442
##DELTAX=-1.4165319
##MAXY=1.0129956
##MINY=0.52894801
##XFACTOR=1
##YFACTOR=9.4342567e-010
##NPOINTS=2559
##FIRSTY=0.99985337
##XYDATA=(X++(Y..Y))
3997+1059811496+1059388513+1059327419+1059680716+1060243261+1060799109
3989+1061251218+1061442777+1061207751+1060651650+1060064465+1059599088
3980+1059313077+1059320659+1059577165+1059740356+1059560865+1059238147
3972+1059137124+1059289954+1059399443+1059258870+1058993139+1058853703
3963+1058911638+1059022138+1059030351+1058967299+1058988464+1059115201
3955+1059167702+1059010450+1058750658+1058620699+1058788945+1059242696
3946+1059740609+1059966916+1059777506+1059273148+1058701126+1058304236
3938+1058180152+1058192914+1058101874+1057889087+1057855728+1058212753
3929+1058670926+1058774287+1058471913+1058110340+1057969577+1057981139
3921+1057949107+1057832352+1057773090+1057964207+1058373354+1058668020
3912+1058617856+1058359960+1058114004+1057823886+1057346948+1056882836
3904+1056955049+1057801142+1059003311+1059882130+1059966916+1059329188
3895+1058477536+1058056637+1058289262+1058643254+1058369184+1057440137
3887+1056347015+1055609906+1055559363+1056103081+1056855985+1057306261
3878+1057144649+1056664995+1056407161+1056562455+1056804052+1056756351
3870+1056503888+1056439256+1056768924+1057371904+1057954919+1058305436
3861+1058537303+1058795642+1058940574+1058809036+1058484359+1058164421
3853+1057831531+1057364765+1056938939+1056780486+1056919606+1057169289
3844+1057263489+1057084945+1056725520+1056317258+1055993466+1056002879
3836+1056487715+1057192792+1057709785+1057814346+1057542993+1057079891
3827+1056652043+1056448796+1056431169+1056369254+1056195006+1056134544
3819+1056252120+1056277139+1056017284+1055616666+1055448610+1055697472
3810+1056242454+1056860786+1057412465+1057805564+1057918149+1057721852
3802+1057296342+1056701638+1056034595+1055524488+1055423465+1055759388
3793+1056335453+1057052092+1057863120+1058478357+1058516391+1057963069
3785+1057210798+1056603332+1056189257+1056000731+1056201135+1056801272
3776+1057537559+1058109645+1058290968+1057994659+1057401598+1056829197
3768+1056383532+1056040408+1055903878+1056000415+1056185593+1056469140
3759+1057001170+1057613058+1057864573+1057586586+1056863377+1055885872
3751+1055165758+1055229632+1055798116+1056365084+1056709220+1056472488
3742+1055474893+1054281506+1053491642+1053349490+1053893966+1054868628
3734+1055523856+1055286872+1054651797+1054573392+1055367931+1056524611
3725+1057271260+1057285854+1056746306+1055898002+1055045592+1054568528
3717+1054588050+1054922835+1055385558+1055839056+1056043566+1055895601
3708+1055699747+1055701137+1055836719+1056002184+1056177822+1056260018
3700+1056095626+1055844363+1055835960+1055965225+1055629049+1054515899
3691+1053281256+1053093489+1054111238+1055036936+1055123744+1054755221
3683+1054361427+1054071183+1053952406+1054229952+1055233549+1056820731
3674+1057766899+1057240429+1055990496+1055198674+1055503576+1056431738
3666+1057119757+1057143133+1056555379+1055855988+1055585330+1055722681
3657+1055732473+1055213585+1054391311+1053708472+1053325987+1053323713
3649+1053894282+1054924035+1055888462+1056431991+1056431801+1055942733
3640+1055333309+1055091776+1055237782+1055259579+1054805196+1054063665
3632+1053308613+1052598608+1052257505+1052861622+1054058294+1054944632
3623+1055120080+1054678775+1054151420+1054352961+1055580086+1057136246
3615+1058163220+1058229685+1057353140+1055952462+1054627979+1053919932
3606+1053953165+1054292435+1054536748+1054772469+1055250165+1055821619
3598+1056030109+1055664240+1054903123+1054158812+1053836726+1054003455
3589+1054374252+1054682692+1054921571+1055078824+1054985698+1054629369
3581+1054195203+1053806021+1053454683+1053171830+1053017674+1052968773
3572+1052985768+1053068027+1053130954+1053017484+1052794778+1052806340
3564+1053112000+1053332621+1053124509+1052550781+1052045918+1052010475
3555+1052494868+1053226922+1053786498+1053853215+1053460116+1052944386
3547+1052677771+1052866613+1053459295+1054185663+1054717124+1054818969
3538+1054468326+1053904517+1053473889+1053328072+1053338244+1053345888
3530+1053364526+1053501688+1053767797+1054032201+1054153884+1054067518
3521+1053727995+1053131522+1052513758+1052312786+1052671137+1053107704
3513+1052997393+1052321505+1051732424+1051819485+1052400668+1052770391
3504+1052549707+1052015466+1051584712+1051270207+1050888354+1050512944
3496+1050469730+1050955450+1051722695+1052256557+1052348925+1052302678
3488+1052386895+1052403638+1052107391+1051671141+1051394291+1051295226
3479+1051286444+1051431819+1051727686+1051892204+1051641699+1051090779
3471+1050690351+1050755931+1051142333+1051450836+1051501758+1051431882
3462+1051357394+1051246452+1051175881+1051370851+1051863458+1052356380
3454+1052504092+1052185102+1051532589+1050843812+1050419755+1050376983
3445+1050645999+1051102404+1051603350+1051992279+1052168043+1052064935
3437+1051640120+1051001823+1050391767+1049923548+1049548770+1049338448
3428+1049502397+1050055276+1050699006+1051083008+1051071257+1050822458
3420+1050721182+1051087620+1051791813+1052267108+1052078771+1051470105
3411+1051181567+1051678406+1052659828+1053358461+1053229450+1052337868
3403+1051193571+1050287901+1049766611+1049518065+1049446863+1049477820
3394+1049368900+1048921972+1048431893+1048428987+1048862900+1049090976
3386+1048813178+1048482499+1048593757+1049041317+1049385200+1049420391
3377+1049297444+1049225231+1049251513+1049361697+1049570125+1049779310
3369+1049787966+1049617572+1049556731+1049701600+1049749111+1049438839
3360+1048957542+1048721316+1048884759+1049217144+1049420707+1049456782
3352+1049520466+1049768064+1050115612+1050319048+1050298262+1050276276
3343+1050416596+1050491779+1050190921+1049604494+1049124271+1048965123
3335+1048993743+1048976559+1048877747+1048835164+1048880463+1048854497
3326+1048679933+1048483763+1048381097+1048421216+1048756127+1049480158
3318+1050272296+1050598489+1050347226+1049909017+1049595712+1049370163
3309+1049211268+1049299529+1049701411+1050217456+1050621865+1050789858
3301+1050638607+1050206274+1049723523+1049423107+1049317535+1049255304
3292+1049180627+1049274637+1049722765+1050350827+1050741589+1050746517
3284+1050589580+1050421272+1050094321+1049485781+1048799405+1048413065
3275+1048485911+1048854244+1049312544+1049792704+1050207853+1050403834
3267+1050348426+1050096595+1049581750+1048777608+1048029253+1047862587
3258+1048406495+1049215501+1049740455+1049868393+1049902130+1050053001
3250+1050165776+1050023560+1049727377+1049582255+1049674307+1049717964
3241+1049404785+1048785632+1048189412+1047877750+1047948827+1048395944
3233+1048959816+1049103990+1048548584+1047742105+1047446364+1047909403
3224+1048717651+1049331814+1049507262+1049297823+1048934292+1048727254
3216+1048925004+1049561343+1050366053+1050850762+1050660783+1049975670
3207+1049396509+1049303952+1049490393+1049522677+1049249555+1048829288
3199+1048489449+1048428228+1048733699+1049222767+1049512000+1049406491
3190+1049106518+1048948254+1049073917+1049409334+1049801233+1050105250
3182+1050262440+1050325998+1050360241+1050330420+1050168682+1049923232
3173+1049771223+1049861569+1050138862+1050332189+1050183719+1049739128
3165+1049355443+1049353421+1049714994+1050155667+1050384122+1050244434
3156+1049766169+1049136591+1048532284+1048036329+1047794291+1048030580
3148+1048728139+1049467775+1049740771+1049356011+1048575814+1047934864
3139+1047807242+1048091737+1048437895+1048676774+1048818358+1048784431
3131+1048453184+1047905549+1047382490+1047030584+1046830622+1046789872
3122+1047053075+1047667238+1048304271+1048499937+1048224729+1047933095
3114+1047894556+1047819310+1047391462+1046810910+1046469997+1046357412
3105+1046106718+1045492871+1044634080+1043792410+1043112162+1042588661
3097+1042265690+1042277189+1042525608+1042548542+1042011142+1041137567
3088+1040368679+1039807208+1039271766+1038687866+1038122415+1037582930
3080+1037040665+1036572130+1036263184+1035977616+1035357135+1034055901
3071+1031942818+1029189353+1026293735+1023904750+1022402544+1021663224
3063+1021377655+1021484364+1022081405+1023101998+1024399315+1025976640
3054+1027795246+1029551305+1030958932+1032055656+1033009532+1033855245
3046+1034538210+1034981599+1035104040+1034980904+1034870215+1034914440
3037+1035042251+1035275761+1035807980+1036669046+1037607759+1038373867
3029+1038870453+1039045396+1038906213+1038644399+1038512102+1038566879
3020+1038671945+1038731586+1038809738+1039009763+1039298807+1039518606
3012+1039588672+1039631823+1039827804+1040199044+1040583172+1040778079
3003+1040704475+1040451444+1040139276+1039777071+1039338294+1038934391
2995+1038767409+1038882457+1039071362+1039084441+1038885111+1038600553
2986+1038283458+1037916388+1037598282+1037433385+1037286115+1036960301
2978+1036536370+1036233111+1036060380+1035877414+1035667786+1035563225
2969+1035675557+1035960305+1036199121+1036178398+1035945458+1035810318
2961+1036026706+1036532074+1037038517+1037335837+1037454550+1037559869
2952+1037743151+1037935594+1038002311+1037906848+1037771013+1037755029
2944+1037901225+1038082233+1038078063+1037748838+1037175425+1036585018
2935+1036097213+1035604038+1034922338+1034057986+1033295669+1032920702
2927+1032852342+1032770336+1032594825+1032529940+1032652444+1032814877
2918+1032907245+1032933148+1032941930+1033079534+1033522797+1034272226
2910+1035200199+1036270829+1037434206+1038369823+1038691404+1038456315
2901+1038220911+1038473374+1039142692+1039749209+1039969072+1039953530
2893+1040084563+1040509442+1041009566+1041311435+1041382259+1041360525
2884+1041333358+1041285595+1041192469+1041051833+1040818640+1040401974
2876+1039810746+1039231837+1038827049+1038506606+1038039650+1037327118
2867+1036459481+1035596773+1034908944+1034539473+1034491331+1034586415
2859+1034645045+1034678530+1034793200+1034946788+1034967637+1034809247
2850+1034629124+1034651995+1035025825+1035700639+1036388595+1036790034
2842+1036868565+1036815811+1036849991+1037125324+1037649267+1038212255
2833+1038555064+1038649201+1038692794+1038838801+1039043627+1039184390
2825+1039227099+1039232279+1039271829+1039381824+1039531558+1039624557
2816+1039639657+1039746745+1040147679+1040838857+1041633143+1042330954
2808+1042800247+1042996987+1042985299+1042915359+1042955604+1043178689
2799+1043466533+1043625175+1043632883+1043648867+1043785397+1044040829
2791+1044429317+1044948205+1045412002+1045547268+1045314327+1044960778
2782+1044707430+1044554221+1044426031+1044331895+1044325640+1044427800
2774+1044591055+1044688350+1044609377+1044402718+1044201936+1044011957
2765+1043729168+1043368732+1043121007+1043130863+1043311681+1043416242
2757+1043257916+1042866648+1042469695+1042317687+1042464325+1042746672
2748+1043031798+1043377261+1043814712+1044141284+1044169019+1044076399
2740+1044242939+1044786215+1045450352+1045875862+1045842630+1045405116
2731+1044908276+1044716844+1044842128+1044971455+1044861524+1044558707
2723+1044310351+1044351480+1044649748+1044859944+1044720761+1044399433
2714+1044215456+1044199851+1044196565+1044206484+1044362094+1044666680
2706+1044952944+1045069635+1045011637+1044870811+1044735419+1044690814
2697+1044806621+1045011574+1045092253+1044960336+1044810791+1044898231
2689+1045247737+1045640773+1045808071+1045642795+1045298280+1045055925
2680+1045076206+1045319508+1045642795+1045861836+1045826709+1045587829
2672+1045382308+1045349455+1045394754+1045391658+1045325257+1045213178
2663+1045093201+1045082334+1045248748+1045459260+1045523829+1045460839
2655+1045463619+1045603624+1045689989+1045508982+1045114998+1044756331
2646+1044577850+1044556433+1044632121+1044728974+1044739336+1044666490
2638+1044677989+1044870116+1045087894+1045118789+1044980679+1044851668
2629+1044803462+1044796955+1044866010+1045043858+1045182157+1045109880
2621+1044895830+1044706230+1044533183+1044290765+1044048158+1043991992
2612+1044207179+1044566541+1044853690+1044981122+1045095602+1045468231
2604+1046272563+1047334664+1048079165+1047965190+1047073482+1046078414
2595+1045615122+1045826835+1046444283+1047091551+1047506195+1047593508
2587+1047382680+1047038607+1046814512+1046792273+1046742930+1046432595
2578+1045956162+1045604698+1045533053+1045668698+1045853939+1046026544
2570+1046295433+1046774709+1047332516+1047625793+1047443079+1046930003
2561+1046459256+1046352294+1046705212+1047338202+1047866694+1047982501
2553+1047772052+1047601405+1047601785+1047502909+1047115054+1046683289
2544+1046565523+1046805730+1047168503+1047374783+1047254363+1046877691
2536+1046513464+1046288547+1046017699+1045542909+1045060980+1044912952
2527+1045177924+1045640141+1046087385+1046491225+1046851661+1046992613
2519+1046700284+1046058512+1045493061+1045439738+1045997418+1046858295
2510+1047609808+1048182905+1048830110+1049533734+1049832254+1049496900
2502+1048929301+1048558061+1048345022+1048201290+1048362206+1048972894
2493+1049685490+1049976871+1049665462+1049008022+1048447245+1048255434
2485+1048275462+1048107153+1047659467+1047341929+1047555853+1048182462
2476+1048767057+1049073222+1049242668+1049461141+1049705138+1049923737
2468+1050249172+1050749486+1051126222+1051001697+1050425315+1049788219
2459+1049315640+1048848305+1048095275+1047089466+1046380788+1046525089
2451+1047358925+1048226624+1048878378+1049499364+1049930055+1049707792
2442+1048935492+1048355952+1048434420+1048923678+1049409587+1049847228
2434+1050378626+1050903264+1051108595+1050898462+1050555527+1050347731
2425+1050147580+1049651499+1048883749+1048263395+1048181325+1048642910
2417+1049282281+1049698252+1049821451+1049900993+1050119023+1050394800
2408+1050583642+1050639176+1050582631+1050512502+1050556538+1050660404
2400+1050586611+1050214487+1049688459+1049257199+1049077392+1049118332
2391+1049174372+1049058818+1048785379+1048500379+1048282980+1048089716
2383+1047857154+1047622002+1047541954+1047793469+1048414582+1049279565
2374+1050280951+1051482299+1052850818+1053818277+1053600563+1052280944
2366+1051100382+1051190918+1052294275+1053080537+1052599492+1051169374
2357+1049865107+1049341859+1049271541+1048882990+1047935559+1046928866
2349+1046457487+1046711530+1047404919+1047968791+1048037593+1047793090
2340+1047683159+1047920270+1048252654+1048215631+1047649169+1046885083
2332+1046373333+1046158651+1045863416+1045233522+1044452946+1043865634
2323+1043690692+1044061173+1045035266+1046391781+1047642472+1048353614
2315+1048381223+1047899357+1047320701+1047013399+1046980735+1046981936
2306+1046960960+1047085549+1047372445+1047597615+1047588454+1047371434
2298+1047121119+1047134703+1047596541+1048257582+1048691179+1048852159
2289+1048929237+1048851275+1048559704+1048487553+1049056606+1049910533
2281+1050285058+1050017558+1049697999+1049867824+1050451724+1050985902
2272+1051132351+1050888922+1050530003+1050468214+1050944141+1051723832
2264+1052330919+1052614276+1052797242+1053047747+1053420503+1054088494
2255+1055052794+1055699494+1055298939+1054045532+1053067396+1053295914
2247+1054610162+1055961181+1056129743+1054661653+1052311649+1050355060
2238+1049455771+1049438460+1049907690+1050721056+1051923730+1053366043
2230+1054525124+1055040032+1055278912+1055775245+1056337412+1056460611
2221+1056192985+1055849607+1055390675+1054721484+1054088052+1053808864
2213+1054007562+1054664307+1055594427+1056469203+1057025367+1057222170
2204+1057349665+1057862299+1058612296+1058580201+1057173396+1055320420
2196+1054330090+1054296289+1054435409+1054301217+1054000991+1053815940
2187+1053949879+1054229699+1054224771+1053974582+1054021714+1054532200
2179+1055145667+1055608643+1055769875+1055248965+1053906854+1052396056
2170+1051593936+1051617502+1051735710+1051265026+1050377804+1049932203
2162+1050726236+1052997709+1056153308+1058855978+1059966916+1059420102
2153+1057964396+1056408299+1055062397+1053892576+1053181560+1053528665
2145+1054930290+1056463454+1057185463+1056876518+1055953979+1055136506
2136+1054925994+1055062145+1054930290+1054579963+1054578636+1054920118
2128+1054833058+1053708030+1051796614+1050031078+1049345966+1049970427
2119+1051183715+1051959490+1051890498+1051207091+1050140504+1048936250
2111+1048239576+1048524134+1049295865+1049759030+1049914640+1050159332
2102+1050381153+1050239632+1049780068+1049285061+1049069242+1049459372
2094+1050363652+1051037898+1050838632+1049997720+1049321642+1049345776
2085+1050037396+1051104552+1052206330+1052839951+1052444578+1051021282
2077+1049478515+1048880400+1049331940+1049989507+1050134123+1049814880
2068+1049541631+1049840215+1050945531+1052439397+1053405656+1053267167
2060+1052240320+1051022103+1050267178+1050060899+1049822967+1049335604
2051+1049617572+1051618702+1054181241+1054942168+1053522916+1051892836
2043+1051630517+1052704812+1054570739+1056804431+1058697525+1059508047
2034+1059102755+1057677058+1055403753+1052957843+1051563105+1051961259
2026+1053736587+1055728367+1056897114+1057018291+1056709409+1056717244
2017+1057356994+1058524414+1059661193+1059966916+1059325903+1058579001
2009+1058508936+1058711803+1058312828+1057394585+1056720782+1056272022
2000+1055093481+1052776899+1050392778+1049549592+1050997590+1054253328
1992+1057876893+1059966916+1059243517+1055921821+1051821759+1048937261
1983+1048133246+1049260990+1051641257+1053842980+1054239239+1052993792
1975+1052086037+1052553688+1053416396+1053517735+1053102965+1053376909
1966+1054880632+1056687613+1057665181+1057962817+1058459024+1059380679
1958+1060286728+1060737699+1060351297+1059046652+1057536801+1056752308
1949+1056776442+1056974129+1056818835+1056057150+1054663233+1053224585
1941+1052599492+1052695082+1052481158+1051409454+1050188457+1049903773
1932+1050751761+1052018751+1052974586+1053353344+1053206073+1052787450
1924+1052531828+1052699757+1053061204+1053216308+1053025571+1052626533
1915+1052244806+1052041433+1052031829+1052109666+1052162736+1052194136
1907+1052354737+1052823399+1053579587+1054366544+1054934650+1055187492
1898+1055142192+1054972494+1054959858+1055165505+1055313534+1055160388
1890+1054845946+1054773922+1055043760+1055226979+1054968577+1054589377
1881+1054695707+1055264191+1055637958+1055443177+1055001114+1054711754
1873+1054487153+1054070993+1053618442+1053573585+1053975404+1054436926
1864+1054710112+1054731529+1054477550+1054028537+1053560191+1053190721
1856+1052922653+1052726861+1052615982+1052579591+1052508641+1052358275
1847+1052313102+1052532396+1052788271+1052698557+1052296865+1051882411
1839+1051600128+1051366113+1051007635+1050533225+1050203367+1050354302
1830+1051208671+1052579528+1053859091+1054632465+1055067515+1055629239
1822+1056471478+1057254897+1057517405+1057169731+1056602953+1056184645
1813+1055922516+1055723628+1055621405+1055692039+1056020696+1056685654
1805+1057592272+1058463636+1059030541+1059197333+1059141483+1059124551
1796+1059135165+1058992570+1058767527+1058763231+1058984989+1059113621
1788+1058982335+1058673643+1058444240+1058485054+1058651973+1058707128
1779+1058682614+1058754133+1058996993+1059386112+1059779338+1059966916
1771+1059947647+1059796838+1059502993+1059135481+1058881881+1058873731
1762+1059131880+1059479301+1059642303+1059616589+1059569710+1059508806
1754+1059385923+1059245476+1059055370+1058809036+1058716542+1058750595
1745+1058602377+1058254451+1057941020+1057651408+1057175228+1056491758
1737+1055722744+1054836596+1053473447+1051285370+1048389247+1044831514
1728+1040500281+1035460243+1029679243+1023006156+1015873505+1008977143
1720+1002085457+994330051+986041162+978614855+971734667+963639106+952525613
1710+937090047+917003879+893650980+871558817+856252579+849093708+848222218
1700+852118338+861256415+878337034+903490028+929266787+949338234+965383351
1690+980141701+992882368+1002521139+1010468419+1018312149+1024787802+1028632368
1680+1030904851+1032696101+1034410272+1036125012+1037722808+1038936539
1672+1039758370+1040534777+1041322429+1041786983+1042147862+1043083289
1663+1044848193+1046871436+1048487743+1049628881+1050466381+1051120410
1655+1051709617+1052365730+1052944197+1053182824+1053181560+1053286500
1646+1053695394+1054047870+1054028790+1053694320+1053175558+1052638600
1638+1052232675+1051829973+1051059569+1049897076+1048495640+1046799665
1629+1044798092+1042813705+1041373540+1040803413+1041017590+1041544566
1621+1041932295+1042017018+1041673451+1040720523+1039141554+1037032072
1612+1034501692+1031906933+1029989262+1029668250+1031540747+1035459295
1604+1040577233+1045720758+1049889368+1052749795+1054641941+1055970658
1595+1056781181+1057001359+1056712632+1055987211+1054777523+1052994803
1587+1050571701+1047487620+1043570841+1038291039+1031233887+1022516076
1578+1012633119+1003786297+1000586726+1004192664+1011518832+1020441975
1570+1029153594+1034860422+1036445708+1034796675+1030988247+1025662451
1561+1017420883+1001484562+979155667+964360167+959950845+962053946+969206498
1551+980303818+993063818+1004581278+1013439472+1020367487+1026385092+1031757325
1541+1036842662+1041585316+1044554980+1045500832+1044946057+1042444108
1533+1037131516+1029016369+1018350562+1005273719+991951300+982858459+980260351
1523+982192995+985265830+988040712+992530146+1001000042+1012450532+1023547410
1513+1032379322+1038902864+1043414536+1046283240+1047853869+1048132867
1504+1047525907+1046501207+1044833599+1041723109+1035827439+1026088783
1496+1014383871+1005115898+1000796480+1001365532+1004735877+1005807897
1487+999697103+986754263+971373536+959588767+957066347+965291615+980174428
1477+996119405+1009781158+1020447913+1028806046+1035101513+1039062454
1469+1041264557+1042454406+1042573372+1041361789+1039693865+1038922639
1460+1039530547+1041712748+1045906883+1051181125+1055289842+1057803037
1452+1059301263+1059966916+1059544186+1057735246+1055014129+1052604357
1443+1051460755+1051621229+1052316703+1052493604+1051177208+1047811160
1435+1042864121+1036870587+1029062869+1017964349+1003150464+986080143+968411518
1425+951442157+937594594+930013120+931146803+942393920+961006692+979976109
1415+995703688+1008485421+1018425429+1024859510+1027446625+1026568311
1407+1022936280+1017327568+1010785198+1004050196+996506882+986756853+974477582
1397+961025519+948339312+938353752+932133216+929292374+929600751+934122279
1387+943593688+956030591+967803673+976001647+978734263+975205277+965928585
1377+951788820+933189694+911695457+891918866+878738915+873705953+875193502
1367+879821613+884844276+890464107+899203715+912388530+927900163+942197370
1357+952469131+957105392+956144692+951296908+944899471+938832270+934107306
1347+930943177+929166522+928615602+929229638+930904954+933116154+934520180
1337+933484298+929304315+922479599+914049947+904993055+896124878+888439032
1327+883269541+881707505+883665357+887703819+892170697+896662152+902183297
1317+909728507+918989467+928552233+936744142+942163317+943916091+941467969
1307+934255334+921827718+904756071+885491734+868074498+856372113+852046756
1298+854149857+860664365+870218096+882251349+895969458+909743354+921707868
1288+930816630+937361148+942559386+947527083+952486568+956882054+960098431
1278+961909203+962460313+962283538+962263890+963078266+964457463+965230584
1268+964199187+960837941+955226323+947556904+937881679+926342739+913399393
1258+899519609+884787794+869059837+852336684+834802503+816681706+798230293
1248+779765486+761611836+744116068+727825818+713636331+702631947+695642586
1238+692793784+693331310+695921521+699313978+702796844+706007598+708414274
1228+709156374+707441571+703088226+696684217+689161816+681149777+672735225
1218+663791170+654389068+644808044+635253807+625784229+616542665+607832689
1208+599847690+592524681+585827397+580044817+575660008+572944387+571781452
1198+571941042+573509080+576984491+582899558+591273738+601357351+611935530
1188+621975297+631009318+639030771+646310629+653399623+660975158+669340494
1179+678085029+686412268+693843565+700586465+707284319+714475410+722261142
1169+730408763+738692029+747011370+755023788+761542971+764283042+760361272
1159+747588889+725976127+698322953+669139648+642591157+621008280+604775838
1149+593316314+586412244+584824620+589360363+599033882+610447223+619455278
1139+623559888+622925571+619715386+616481887+614328180+612420175+610158432
1129+609804630+615504193+629030554+647420177+665292113+678674868+686332030
1119+688859441+688030976+686804483+688640652+695988744+709286017+727183351
1109+747399541+767501441+785463027+800119976+811546142+821062092+830469438
1099+840853846+852051557+863190196+873442687+882212936+889040685+893695837
1089+896235315+896765197+895238225+891663939+886571210+881274476+877621090
1079+877196527+880436913+886416358+893585147+900757854+907477251+913720469
1069+919491803+924618459+928670125+930933764+930537379+926863649+920286468
1060+912777144+907432900+906670077+910508514+916705990+922570639+926603415
1050+928757628+929721486+930103529+929948741+928787575+926319489+923236546
1040+921145006+921294361+923417427+926095330+928158439+929491135+930741068
1030+932607500+935181853+937629216+938650820+937454084+934206560+929638911
1020+924418940+918709711+912004339+903547710+893215551+881925409+871170203
1010+862424594+857003903+855940475+859539211+867168259+877671128+889806477
1000+902271874+913915060+924409400+934382260+944445593+954278765+962814115
990+968994154+972149437+971811809+967179844+956579048+937516568+907947618
980+868871942+826745039+792385356+775128530+776786915+791607370+811940694
970+833110445+853523248+872443512+888776976+901042412+907912744+909503274
960+908335790+908114537+911168545+917451439+925620919+934120131+941375412
950+946198430+948766086+951010013+955502163+963481854+973799040+983897626
941+991845854+997352721+1001143269+1003882140+1005727091+1006528200+1006251287
931+1005161261+1003394272+1000423724+995467335+988483281+980180745+971394386
921+963654143+959924942+962768816+971549174+983011478+994575754+1005650392
911+1016083006+1024940632+1030962028+1033279558+1031613403+1026507849
902+1019887769+1015027791+1014882101+1019748143+1026912510+1032998538
894+1036505223+1038097522+1039070604+1040024354+1040793810+1040939564
885+1039893131+1037053616+1032376163+1026877130+1022217556+1019655523
877+1019337859+1020395159+1021521577+1021559610+1020071809+1017769379
868+1016079594+1015976297+1017507186+1020345564+1023962243+1027047839
860+1027306052+1021834502+1007520742+982036185+946270770+906828277+875229767
850+862316494+871542453+897243777+929297682+959370799+983710111+1002025816
840+1015269135+1024485743+1030642216+1034467070+1036326363+1036584449
832+1035956640+1035338687+1035531699+1037111930+1040134601+1043995972
823+1047935243+1051540992+1054592536+1056825090+1058211173+1059174020
815+1059966916+1059652411+1055715478+1046359307+1033485775+1023030669
806+1020666765+1026830251+1036757433+1045185632+1049938395+1051401872
798+1050729711+1049375786+1048745829+1049008780+1048821075+1046882303
789+1043269414+1038754015+1033293331+1025685069+1014509976+999481220+982473067
779+967095058+956206734+949122478+941163636+926018883+898920168+858350057
769+806187113+748205831+694272866+654170090+630038763+614275552+597370696
759+577673079+562540014+560667390+574481215+599714130+630599097+663476792
749+695534992+723410872+745703502+765189470+785835846+807901158+827276753
739+839405974+843461937+843216866+844037876+848367909+853712785+855487355
730+852193836+847266510+845428571+848091122+853113469+858161467+862993710
720+868688534+875567521+882334935+887168630+888907820+886126430+875440595
710+853506505+822785108+793773081+778766690+782893097+801747971+826707700
700+850797329+870580743+885680702+897954098+910217512+924322086+939673877
690+953511141+962728002+965912032+964601637+962865164+964671197+970821984
680+978368457+982853026+981202349+973498940+962820560+953055874+946177076
670+941778999+938462926+935018915+931015075+926058181+919250396+909911599
660+898723807+887907887+879941147+875888849+874772098+874734191+874628745
650+874481538+874970796+876652557+879480320+883078109+887427095+892981852
640+899966348+907920072+916281807+924938018+933487583+940468352+944567150
630+946628742+949127596+953009500+956049292+955467351+951877712+949420367
620+951845554+959407948+968989858+974733140+968803922+946763566+914956754
611+887721383+873260036+866950228+862096568+860639220+868238826+884468362
601+903315717+920067679+933676046+944280380+951915051+957583530+963284988
591+969989033+976699775+982295661+987049435+991631172+995713607+998299900
581+998904839+997859732+995570064+991949405+986960416+981473134+976881793
571+973774273+971399945+968600928+964935791+960436312+954651142+946762555
561+936660304+925537397+915449487+908270589+904709887+904069063+904998362
551+906739131+909672214+914324523+919660301+922714751+920139640+910452411
541+895970974+882787675+876644533+877522657+879649450+877327055+869628321
531+859966995+852849571+850942198+854380334+862271448+873870914+887775337
521+901102369+910495499+913641179+909502958+897893889+879976085+859230392
511+841284285+831653032+832662000+842431172+857096460+874009086+892010854
501+909146313+922651635+931824081+938913581+947033530+957550740+968788949
492+977464493+982126973+984703853+988232145+993987431+1000698868+1005974942
482+1008501279+1007904680+1002023668+986617291+960451728+930389098+909757443
472+908220804+921752472+938590989+951819335+961295672+969145657+976925071
462+985311445+994399674+1003939443+1013329288+1021767785+1029034059+1035364717
452+1040280102+1042470011+1041154120+1036412982+1027496852+1012381667+991867335
442+973758479+967652802+975178742+989756147+1003519998+1012799470+1018747578
432+1024169849+1030666351+1037492205+1042054736+1042244968+1038522022
424+1033564053+1030516617+1032400802+1040108887+1047136661+1046541073
415+1041697143+1038902738+1039920930+1042297722+1044127132+1046347619
407+1049961897+1054187685+1057826792+1059966916+1060676037+1056496181
398+1050262819+1048762319+1051970672+1053914752+1052897634+1051805586
390+1052841405+1055575158+1058343091+1059568320+1059662962+1061576590
381+1066369092+1071322069+1073741823+1073152111+1068749043+1059966916
##END=
