##TITLE=JMB-202
##JCAMP-DX=4.24
##DATA TYPE=INFRARED SPECTRUM
##DATE=3/4/2019
##SAMPLING PROCEDURE=Diamant-ATR
##ORIGIN=Angelika Moesle
##XUNITS=1/CM
##YUNITS=TRANSMITTANCE
##RESOLUTION=4
##FIRSTX=3997.453
##LASTX=373.96442
##DELTAX=-1.4165319
##MAXY=0.94992983
##MINY=0.52945113
##XFACTOR=1
##YFACTOR=8.846911e-010
##NPOINTS=2559
##FIRSTY=0.88567072
##XYDATA=(X++(Y..Y))
3997+1001107305+1001369455+1001726803+1001998789+1002040089+1001906623
3989+1001743444+1001595897+1001374642+1001023896+1000674700+1000488884
3980+1000456814+1000544265+1000847109+1001335566+1001690017+1001688063
3972+1001578986+1001802329+1002451134+1003186987+1003610563+1003630708
3963+1003481476+1003427240+1003454863+1003303947+1002844730+1002321710
3955+1002101669+1002262961+1002599827+1002930968+1003130393+1002983856
3946+1002415629+1001782858+1001583769+1001926633+1002500789+1003030680
3938+1003422591+1003608609+1003600457+1003557540+1003615077+1003784184
3929+1004054756+1004385155+1004643128+1004755439+1004768106+1004597718
3921+1004012109+1003041460+1002174499+1001925420+1002258918+1002702505
3912+1002886030+1002762265+1002511434+1002378304+1002519923+1002828291
3904+1002932719+1002743131+1002823372+1003573979+1004502722+1004918079
3895+1004788924+1004538766+1004460074+1004412037+1004097269+1003646675
3887+1003492660+1003711489+1003852703+1003756696+1003909162+1004567198
3878+1005234868+1005409568+1005029919+1004186808+1003273696+1003122510
3870+1004196038+1005676636+1006457830+1006453990+1006005216+1005314504
3861+1004749510+1004707537+1005046021+1005252857+1005128284+1005089746
3853+1005598752+1006057969+1005750814+1004837972+1003735002+1002881246
3844+1002712745+1003392206+1004537756+1005530031+1006065987+1006183621
3836+1005994369+1005707762+1005587636+1005620312+1005586086+1005577597
3827+1005871210+1006256788+1006237721+1005948083+1006089904+1006756294
3819+1007146184+1007032728+1006907009+1006955046+1006876219+1006526147
3810+1006133966+1006035871+1006307520+1006528505+1006376645+1006287713
3802+1006807027+1007554534+1007739811+1007522128+1007366630+1007173471
3793+1006748277+1006363710+1006314056+1006437820+1006442537+1006377117
3785+1006392074+1006341679+1006096103+1006022463+1006642029+1007742574
3776+1008454778+1008329194+1007619954+1006790588+1006124938+1005707762
3768+1005672863+1006242572+1007274261+1008119393+1008373593+1008302581
3759+1008237768+1008088267+1007729705+1007276417+1006788499+1006391535
3751+1006564348+1007398161+1008154764+1008631296+1009324568+1010191934
3742+1010360839+1009725238+1009023140+1008832204+1009222228+1009739993
3734+1009883768+1009612792+1009127703+1008674819+1008512315+1008697255
3725+1008991407+1009155865+1009206395+1009224047+1009224452+1009217040
3717+1009112949+1008772107+1008359175+1008436991+1009269457+1010054694
3708+1009932209+1009074344+1008084696+1007471059+1007580877+1008334786
3700+1009092871+1009325781+1009061610+1008545867+1007923875+1007291576
3691+1006886190+1007122941+1008141559+1009319313+1009990352+1010088717
3683+1009800494+1009250323+1008519254+1007827127+1007674661+1008514538
3674+1009789782+1010423226+1010450243+1010482178+1010667994+1010685848
3666+1010337460+1009627277+1008729392+1008085774+1008139201+1008895063
3657+1009867126+1010380107+1010170374+1009575804+1008921675+1008340445
3649+1008207585+1008895198+1009966569+1010731055+1010840941+1010321695
3640+1009700377+1009718029+1010472072+1011259937+1011420083+1010927988
3632+1010186139+1009672754+1009808781+1010514180+1011165546+1011494396
3623+1011571539+1011541086+1011710799+1012211788+1012516922+1012185378
3615+1011627930+1011401421+1011481123+1011544791+1011598016+1011825267
3606+1012066800+1011978945+1011567429+1011218906+1011325356+1011804920
3598+1012065992+1011697392+1011075468+1010963696+1011485705+1012106551
3589+1012493005+1012685558+1012623911+1012194069+1011684524+1011475195
3581+1011546947+1011597073+1011482269+1011340717+1011323470+1011469468
3572+1011779588+1012208217+1012650793+1013061097+1013478206+1013773571
3564+1013646909+1013035293+1012226408+1011608257+1011320236+1011179223
3555+1011026757+1011001829+1011290053+1011699885+1011875258+1011888463
3547+1012102778+1012429269+1012242173+1011279003+1010058534+1009302066
3538+1009358120+1010020199+1010613152+1010561005+1010111018+1010129344
3530+1011015775+1012210171+1012998372+1013290167+1013242466+1012833510
3521+1012214011+1011825738+1011875527+1012126628+1012319855+1012483505
3513+1012705635+1012872788+1012850084+1012758186+1012790862+1012880469
3504+1012856080+1012734134+1012538684+1012095973+1011377099+1010768919
3496+1010729910+1011335125+1012238670+1012903106+1012921028+1012389047
3488+1011866634+1011737816+1011847635+1011939060+1012062286+1012327131
3479+1012578636+1012625932+1012576211+1012703883+1013045129+1013305662
3471+1013225219+1012890912+1012599859+1012536393+1012681178+1012912876
3462+1013052877+1012924060+1012507961+1012012093+1011716257+1011770964
3454+1012151556+1012739726+1013355653+1013753157+1013813927+1013776805
3445+1013979127+1014334993+1014448719+1014180775+1013783946+1013586609
3437+1013755717+1014175183+1014463542+1014349950+1013967134+1013574819
3428+1013257625+1013111560+1013357877+1014031813+1014770360+1015097930
3420+1014928688+1014708511+1014869197+1015231935+1015285362+1014981576
3411+1014773931+1014878494+1015008525+1014895809+1014669502+1014612504
3403+1014777300+1014947081+1014925454+1014768406+1014669165+1014655488
3394+1014565949+1014339979+1014127348+1014038079+1014018810+1014060379
3386+1014270921+1014633862+1014922691+1014935088+1014648010+1014171208
3377+1013687198+1013380919+1013343594+1013611942+1014260007+1015292234
3369+1016438795+1017204494+1017241212+1016675276+1015974929+1015488291
3360+1015207344+1014959208+1014693285+1014521685+1014560357+1014842786
3352+1015349502+1015931877+1016263624+1016163103+1015909307+1015906478
3343+1016163709+1016390151+1016386311+1016152391+1015874543+1015841934
3335+1016126317+1016468911+1016631213+1016605881+1016477130+1016349458
3326+1016328303+1016384155+1016386850+1016291517+1016136086+1015966171
3318+1015894418+1016095123+1016662475+1017470888+1018118481+1018126633
3309+1017390579+1016351007+1015636782+1015654703+1016425724+1017580572
3301+1018582482+1019119582+1019240315+1019133866+1018932284+1018704764
3292+1018499949+1018318108+1018100762+1017837130+1017646598+1017613113
3284+1017600447+1017408972+1017038822+1016647181+1016356734+1016213027
3275+1016203123+1016258773+1016323788+1016417842+1016587421+1016849773
3267+1017226323+1017750218+1018316087+1018581202+1018248646+1017492447
3258+1016869850+1016746759+1017052634+1017587377+1018261245+1019002622
3250+1019675615+1020087603+1019989508+1019280537+1018321073+1017742470
3241+1017819882+1018288329+1018763042+1019052478+1019096608+1018915913
3233+1018669663+1018591308+1018813505+1019249748+1019625759+1019719340
3224+1019601976+1019539925+1019663420+1019874367+1020050817+1020185025
3216+1020315932+1020445154+1020550593+1020641884+1020725360+1020738026
3207+1020663713+1020726977+1021249390+1022179210+1022984120+1023230303
3199+1023095354+1023070493+1023330420+1023698076+1024057648+1024406777
3190+1024621968+1024571775+1024413851+1024423823+1024534248+1024381849
3182+1023906664+1023582733+1023845152+1024490253+1024943810+1024964966
3173+1024734077+1024413380+1024013788+1023612647+1023333856+1023125874
3165+1022834686+1022488387+1022298663+1022378501+1022641998+1022978326
3156+1023333519+1023592367+1023594321+1023345309+1023081340+1023038087
3148+1023189475+1023251862+1022983716+1022456991+1021979650+1021793026
3139+1021908369+1022155899+1022302975+1022182242+1021778271+1021236791
3131+1020834976+1020867653+1021385080+1022061442+1022480909+1022507319
3122+1022249683+1021847262+1021470173+1021344993+1021549269+1021892671
3114+1022137372+1022213099+1022110624+1021749907+1021122189+1020434374
3105+1019944165+1019706539+1019581562+1019462715+1019387931+1019404370
3097+1019454024+1019481108+1019529684+1019594767+1019472754+1018928175
3088+1017989394+1016973605+1016211544+1015813637+1015689468+1015675589
3080+1015589149+1015290281+1014813210+1014340518+1013934121+1013383950
3071+1012442609+1011153756+1009833507+1008729190+1007788388+1006869819
3063+1006070703+1005606702+1005445343+1005388749+1005477076+1005909411
3054+1006531537+1006813629+1006498322+1005977458+1005845069+1006249714
3046+1006877701+1007423358+1007783739+1007854009+1007495852+1006799683
3037+1006135920+1005820276+1005797167+1005671718+1005095271+1004200754
3029+1003514017+1003299837+1003263455+1003079863+1002846818+1002725412
3020+1002490076+1001807921+1000741669+999711867+999072426+998854271+998849959
3010+998874146+998884724+998844839+998661583+998382320+998207688+998149545
3000+997967570+997630837+997542780+998089179+999229069+1000716876+1002447496
2990+1004327686+1006074206+1007411433+1008260675+1008539601+1008081260
2982+1006979839+1005688426+1004560124+1003545144+1002430451+1001120173
2973+999647795+998097600+996495461+994757160+992862485+991006752+989398549
2963+988024536+986748147+985482673+984223666+983114498+982433690+982312620
2953+982550987+982836111+983013236+983053996+982943908+982713424+982476539
2944+982343814+982322928+982358299+982465018+982712481+983035334+983188406
2934+982997672+982584337+982267682+982306287+982750075+983439507+984098217
2924+984523410+984761710+985060039+985588921+986241162+986775299+987142012
2914+987552249+988180438+988904298+989407106+989494354+989306383+989253562
2904+989676936+990475985+991156052+991348268+991212780+991238584+991765848
2894+992794842+994147767+995659626+997207935+998659764+999916615+1001055764
2884+1002306888+1003771990+1005216947+1006236980+1006600595+1006380755
2876+1005860430+1005399394+1005279065+1005525585+1005936225+1006348281
2867+1006782637+1007261595+1007671495+1007952981+1008279674+1008845544
2859+1009531000+1009996483+1010135677+1010219489+1010474161+1010729641
2850+1010662537+1010189912+1009389651+1008179423+1006292227+1003493670
2842+999698325+994951128+989446991+983670126+978540046+975261320+974759658
2832+977122982+981570502+986941105+992248040+996923821+1000745779+1003699833
2822+1005943704+1007735095+1009248167+1010494171+1011451210+1012167928
2813+1012722007+1013225960+1013865872+1014755740+1015758863+1016589374
2805+1017070286+1017217362+1017186303+1017214195+1017509426+1018103322
2796+1018823678+1019385168+1019536017+1019258304+1018857769+1018733735
2788+1019006665+1019435564+1019749524+1019977785+1020329339+1020774273
2779+1020988790+1020789499+1020375288+1020054186+1019963434+1020107613
2771+1020422112+1020778854+1021096385+1021392357+1021658886+1021842546
2762+1021997168+1022255342+1022611141+1022926112+1023139618+1023286694
2754+1023318899+1023111658+1022668678+1022167487+1021784200+1021600608
2745+1021668116+1021989150+1022418117+1022729921+1022853551+1022932849
2737+1023105864+1023318158+1023418342+1023370574+1023282382+1023280563
2728+1023432827+1023733043+1024097601+1024418298+1024654509+1024840864
2720+1025052821+1025368128+1025752695+1026000293+1025938713+1025666053
2711+1025432065+1025367993+1025467234+1025686333+1025910282+1025963844
2703+1025818923+1025661943+1025616332+1025522481+1025169174+1024660842
2694+1024363591+1024498405+1024934782+1025382950+1025650557+1025705062
2686+1025600903+1025424115+1025292939+1025332285+1025575234+1025907250
2677+1026159159+1026255840+1026275782+1026388768+1026699292+1027098681
2669+1027338867+1027299589+1027105957+1026948708+1026904646+1026948910
2660+1027026592+1027091674+1027172320+1027370937+1027701269+1027982620
2652+1028036384+1027922523+1027862965+1028003708+1028328583+1028684449
2643+1028853893+1028767588+1028633919+1028693275+1028937166+1029207468
2635+1029392274+1029394632+1029219191+1029212926+1029801567+1030797683
2626+1031426748+1031299615+1030907906+1030860610+1031085839+1031150113
2618+1030965375+1030763861+1030651415+1030575216+1030559181+1030667181
2609+1030828405+1030930543+1031017859+1031194512+1031401214+1031529964
2601+1031703922+1032115304+1032622559+1032857692+1032712704+1032421247
2592+1032259079+1032406223+1032934902+1033711380+1034428974+1034816371
2584+1034765572+1034358771+1033872941+1033609983+1033662736+1033952846
2575+1034402968+1034924169+1035353337+1035566102+1035566439+1035385474
2567+1035007712+1034446693+1033805231+1033266177+1033050986+1033238756
2558+1033569694+1033626153+1033286860+1032797056+1032387560+1032080135
2550+1031813067+1031504564+1031077754+1030609037+1030307272+1030226087
2541+1030162486+1029949250+1029700979+1029632460+1029702865+1029630439
2533+1029336825+1029170750+1029511255+1030290698+1031083750+1031597944
2524+1031981972+1032635225+1033694604+1034800134+1035465244+1035574255
2516+1035437554+1035509778+1036119373+1037282911+1038607135+1039394663
2507+1039138038+1038143606+1037438409+1037683918+1038460127+1038997901
2499+1039155218+1039197663+1039194227+1039208443+1039583578+1040470212
2490+1041397337+1041711365+1041251676+1040411799+1039696226+1039355452
2482+1039390082+1039759355+1040418200+1041108440+1041382650+1041085196
2473+1040610888+1040405803+1040369758+1040054046+1039315162+1038479328
2465+1037932458+1037763755+1037766517+1037671656+1037434501+1037328523
2456+1037641405+1038266900+1038773817+1038887476+1038700313+1038387161
2448+1038019841+1037754390+1037881793+1038451031+1039020741+1039040346
2439+1038449414+1037723601+1037352710+1037434704+1037752908+1038017349
2431+1038018292+1037779386+1037575042+1037604687+1037704197+1037563117
2422+1037158203+1036801596+1036815340+1037236491+1037824795+1038316756
2414+1038610841+1038682122+1038500820+1038179180+1038031025+1038269932
2405+1038741747+1039112503+1039239772+1039209184+1039080770+1038762633
2397+1038162740+1037390102+1036731662+1036406046+1036394324+1036557030
2388+1036818102+1037131658+1037414020+1037671790+1038061950+1038647020
2380+1039228318+1039612077+1039936480+1040513870+1041407578+1042389343
2371+1043294303+1044157356+1044943805+1045399115+1045281481+1044683003
2363+1044142668+1044350583+1045444929+1046749480+1047551291+1047810948
2354+1047723564+1047188013+1046213794+1045279527+1044919955+1045244695
2346+1045791228+1045847283+1045283435+1044675592+1044347888+1044075969
2337+1043719968+1043456875+1043373803+1043323138+1043210962+1043083559
2329+1042900101+1042502598+1041889972+1041309887+1041007380+1041034127
2320+1041314266+1041648034+1041668111+1041205188+1040676644+1040682640
2312+1041249183+1041854061+1042101052+1041983351+1041650998+1041304025
2303+1041160857+1041246690+1041342563+1041285565+1041121106+1040901402
2295+1040603476+1040288304+1040063074+1039875237+1039581422+1039249271
2286+1039236403+1039914179+1041285161+1042901314+1044246693+1045069120
2278+1045215590+1044537140+1043347662+1042557440+1042865943+1044023822
2269+1045143433+1045611745+1045574420+1045586076+1045853346+1045965388
2261+1045437652+1044360015+1043416046+1043334053+1044258012+1045614171
2252+1046697535+1047249593+1047343107+1047096857+1046809240+1046910300
2244+1047400037+1047778002+1047825029+1047847329+1047873942+1047399364
2235+1046360870+1045567009+1045706944+1046663040+1048049854+1049532810
2227+1050441879+1050240298+1049678134+1050213416+1051912101+1053102320
2218+1052556797+1050982079+1049925058+1050079141+1050907968+1051371834
2210+1051021492+1050472130+1050465325+1050785281+1050851913+1050875966
2201+1051424655+1052334600+1052986774+1053238144+1053420187+1053763051
2193+1054259862+1054808012+1055188941+1055162531+1054870063+1054871073
2184+1055380888+1055864494+1055884235+1055707379+1055425354+1054352905
2176+1052035260+1049117385+1046854178+1046312361+1047818157+1050364063
2167+1051987155+1051749866+1051017585+1051873429+1054744883+1058320255
2159+1061134509+1062452871+1062266584+1061378333+1060830722+1060554626
2150+1059454823+1057459155+1056252565+1057096551+1059025250+1060064148
2142+1059455833+1058045169+1056969014+1056498815+1056193007+1055849807
2133+1055718496+1055781625+1055587185+1054926454+1054089879+1053468359
2125+1053316634+1053719595+1054460567+1055198104+1055852232+1056357667
2116+1056141466+1054615391+1052246004+1050348567+1049587989+1049394694
2108+1049121023+1049031686+1049618172+1050518954+1050882434+1050504873
2099+1049922228+1049576131+1049499931+1049666276+1050110402+1050782586
2091+1051590528+1052448124+1053119904+1053265768+1052847918+1052292559
2082+1052064971+1052167379+1052195743+1051860089+1051357618+1051136431
2074+1051297993+1051502134+1051617477+1052067599+1053165988+1054449451
2065+1055099335+1054843316+1054111573+1053453268+1053131560+1053168480
2057+1053368579+1053145641+1051742994+1049089021+1046268232+1044790531
2048+1045202250+1046397589+1046835987+1046451555+1046476685+1047481559
2040+1048924563+1050680987+1053097671+1055250520+1055431553+1053885131
2031+1052937255+1054137714+1056814459+1059191190+1060128826+1060089210
2023+1060306422+1060909684+1060865554+1060022646+1059758744+1060864139
2014+1062081172+1061702264+1059683151+1057498366+1056438111+1056506091
2006+1056779627+1056504137+1055775831+1055464700+1056586333+1059232086
1997+1061830072+1062251357+1060201859+1057747715+1056976155+1057914869
1989+1059406651+1060719893+1061246551+1059998458+1056737856+1053214631
1980+1052183885+1054657635+1058512403+1060769412+1060933332+1060746303
1972+1061639877+1063456061+1064782643+1064415189+1063007152+1062380647
1963+1063021301+1063661820+1063222410+1062016426+1061042746+1060832676
1955+1061156001+1061506006+1061605044+1061328746+1060436386+1058823669
1946+1056986261+1055900741+1056294471+1057892770+1059522196+1060316730
1938+1060454846+1060631768+1061130803+1061409392+1060702106+1059127118
1929+1057793597+1057543911+1058047729+1058428928+1058301323+1057906919
1921+1057519993+1057004924+1056080695+1054923557+1054123363+1053923130
1912+1053965777+1053723772+1052949719+1051804169+1050688802+1049976464
1904+1049756355+1049706431+1049300708+1048396692+1047507970+1047228572
1895+1047519356+1047893952+1048204947+1048795475+1049889821+1051136768
1887+1051967347+1052268035+1052433167+1052860449+1053511141+1054048377
1878+1054334107+1054553610+1054845135+1055097179+1055207334+1055283399
1870+1055482554+1055881135+1056544494+1057445209+1058314124+1058844554
1861+1059025923+1059110949+1059274733+1059494910+1059736241+1060073310
1853+1060614386+1061356504+1062151914+1062853002+1063440565+1063900524
1844+1064050834+1063737143+1063148030+1062639563+1062496462+1062775927
1836+1063126740+1063082274+1062640708+1062250751+1062255535+1062516809
1827+1062711316+1062735907+1062637138+1062491476+1062397895+1062430908
1819+1062592065+1062772289+1062766629+1062427539+1061820909+1061139696
1810+1060478561+1059787647+1059099293+1058633810+1058603425+1059017906
1802+1059686654+1060319560+1060665388+1060665186+1060484625+1060400071
1793+1060596599+1060954824+1061173787+1061220612+1061272422+1061375166
1785+1061432636+1061401846+1061318977+1061172170+1060946133+1060722655
1776+1060602394+1060649151+1060911233+1061272422+1061420441+1061309006
1768+1061216502+1061307389+1061569269+1062035493+1062669477+1063133208
1759+1063199840+1063129233+1063224095+1063431807+1063583599+1063714842
1751+1063978070+1064384871+1064733124+1064862952+1064853992+1064951481
1742+1065330659+1065880965+1066231508+1066144058+1065843640+1065866344
1734+1066537720+1067297760+1067519957+1067461208+1067562537+1067864774
1725+1068107318+1068091081+1067863225+1067641431+1067649045+1068018655
1717+1068661262+1069291877+1069764367+1070084660+1070263739+1070345193
1708+1070424492+1070566852+1070707258+1070746604+1070770656+1070966241
1700+1071298527+1071586076+1072008777+1072680086+1073126030+1072997886
1691+1072522499+1072044013+1071726078+1071590051+1071676289+1071983310
1683+1072212986+1072157942+1072015110+1072004465+1072124794+1072124322
1674+1071772364+1071232905+1070884787+1070936462+1071181364+1071165262
1666+1070797067+1070325924+1069995929+1069844407+1069705146+1069431408
1657+1069015512+1068609520+1068550433+1069047177+1069486115+1069515557
1649+1069553960+1069908007+1070377937+1070516928+1070340612+1070089646
1640+1069886380+1069819815+1070081089+1070846114+1071798168+1072396309
1632+1072671731+1072903428+1073203307+1073486613+1073662659+1073741823
1623+1073668588+1073319863+1072720847+1071859343+1070366887+1067827112
1615+1064493746+1060691394+1055987316+1049553628+1040668694+1028903412
1606+1013804091+994421573+969566651+938911418+903835615+866948613+830959630
1596+798330829+771687749+753709361+746280635+750121458+764707192+787938482
1587+816530472+847159025+877251959+904912444+928576070+947545454+962046837
1577+970544710+968882609+956891761+938027681+914526089+891743168+879885922
1567+883801462+900030972+921644560+942266277+960947640+981841073+1003112404
1557+1015305507+1020234073+1022963437+1025143573+1027112223+1028990257
1548+1030760493+1032464568+1034309319+1036498685+1039185132+1042710175
1540+1046888943+1050071932+1051658912+1052626529+1053896383+1055524865
1531+1056854748+1057700352+1058368561+1059010495+1059603920+1060138797
1523+1060581306+1060857065+1060842714+1060354931+1059353493+1057913050
1514+1055801163+1052488885+1047660772+1040674892+1027117950+995345330+942455192
1504+885761421+830750032+773420863+716627851+672925558+657959367+674818683
1494+708370770+745052351+783198292+824040517+862480476+891465186+911048341
1485+924922073+935643741+944257295+950843651+955425783+958401936+960023883
1475+959986356+957484243+951991222+944348856+935637004+925888073+914881214
1465+903667114+894475564+888315344+884615737+882943664+883759960+886994961
1455+891114103+895711798+901444937+908495900+916091173+922299025+924577324
1445+921798845+915232095+907607919+901884347+900563626+905972767+918570985
1435+933851070+947280676+958932636+970098699+980533019+989179384+995957215
1425+1001577638+1006366809+1010216188+1013432796+1016660588+1019742988
1417+1021816000+1022618350+1022181366+1020068200+1015524538+1008190674
1408+998541321+987679584+977371657+969976820+967029099+968515424+973535011
1398+980492325+987846401+995180197+1002428901+1008990935+1014497094+1019174222
1388+1023154373+1026095087+1027682606+1028116558+1027826449+1027205737
1380+1026642159+1026495150+1027043031+1028470201+1030690424+1033223731
1371+1035656720+1038002998+1040331557+1042447756+1044152774+1045498423
1363+1046619584+1047534717+1048229539+1048796553+1049378322+1050047947
1354+1050769987+1051466763+1052117657+1052797118+1053592461+1054478893
1346+1055344574+1056152650+1056991045+1057981703+1059188091+1060525318
1337+1061752457+1062687600+1063394617+1064107158+1065014543+1066096357
1329+1067149942+1068011716+1068705392+1069326440+1069850672+1070095373
1320+1069766523+1068471472+1065706265+1060793128+1052943184+1041792213
1312+1028159273+1014116232+1002218090+994561238+991919527+993131642+995245752
1302+994543451+988030869+974548105+954797459+930527001+903665295+875936426
1292+848981812+824591362+804645468+790730773+783635680+783202200+788870593
1282+800337815+817475788+839616910+865063640+891306252+915721899+936239861
1272+951631987+961410158+965496152+963871039+956380599+942770634+922870217
1262+896834239+865467409+830371259+793471118+756324728+720089766+685999635
1252+655566398+630361202+611763786+600866341+598458753+604980767+620330583
1242+643535059+672616449+704967874+738009068+769684267+798726984+824721056
1232+847830738+868344455+886469179+902424681+916486250+928885583+939805800
1222+949502786+958309432+966456223+973942688+980640816+986523929+991795088
1213+996837516+1002017384+1007416150+1012735818+1017565413+1021750985
1204+1025432941+1028754921+1031612631+1033599001+1034064754+1032203024
1196+1027068026+1017555644+1002592080+981544967+954509909+922433233+887176532
1186+850923379+814654460+777338828+737693020+697448532+662817527+642501551
1176+643712386+668467730+711877016+763893523+814066560+855908336+887902682
1166+911604374+929312057+942866641+953474919+961920040+968714310+974094750
1156+978094304+980843543+982820278+984710910+987011173+989798141+992854939
1146+995934173+998900220+1001693723+1004192871+1006120896+1007205069+1007541329
1136+1007707742+1008364295+1009739117+1011532125+1013225353+1014449663
1128+1015147382+1015485866+1015655781+1015745455+1015723155+1015420918
1119+1014436525+1012010072+1007093768+998818832+987158182+973169713+958390145
1109+943544552+927379788+906760496+878523969+842055625+800636751+760509964
1099+728493519+709871445+707387792+720958209+747762041+782924083+820832735
1089+856647490+887372252+912045535+931090512+945432085+955973057+963481081
1079+968662635+972280182+975175688+978104073+981450981+985099318+988663640
1069+991890759+994768479+997344568+999687343+1001951493+1004221370+1006386010
1060+1008354594+1010242127+1012187399+1014115558+1015739931+1016737461
1051+1016917348+1016164383+1014179159+1010429559+1004385627+995556276+983312373
1041+966973112+946174001+921136834+892749592+862522585+832387273+804340469
1031+780050136+760670717+747008739+739708428+739089131+744875226+756253515
1021+772235832+791976911+814706809+839192053+863325541+884575312+900988819
1011+911921905+918347845+922691206+927695028+934794028+943578913+952785757
1001+961421746+968997144+975309829+980349628+984216727+986975128+988692611
992+989690815+990646776+992288329+994902080+998158169+1001462160+1004409275
982+1006844958+1008701836+1010008678+1010962753+1011789357+1012549531
973+1013120655+1013306808+1013035158+1012505873+1012030351+1011728519
965+1011564195+1011584744+1011895537+1012551282+1013647919+1015291628
956+1017330010+1019352560+1021019041+1022203263+1022905361+1023241689
948+1023419150+1023540288+1023515427+1023260756+1022893032+1022657966
939+1022741913+1023213257+1024088909+1025337675+1026834577+1028468584
931+1030294875+1032363845+1034416645+1036029227+1037082947+1037830590
922+1038491051+1039065207+1039565926+1040143923+1040889813+1041666292
914+1042219023+1042432732+1042494917+1042768723+1043410050+1044140917
905+1044543069+1044530604+1044379082+1044348225+1044470373+1044683744
897+1044938685+1045152730+1045304657+1045614642+1046368146+1047482637
888+1048504759+1049114758+1049425821+1049768212+1050370261+1051215056
880+1052067734+1052685278+1053020394+1053143956+1053069778+1052818678
871+1052582871+1052663382+1053220560+1054134278+1055170750+1056214836
863+1057204955+1057958123+1058326183+1058427850+1058499468+1058617910
854+1058632059+1058158558+1056686584+1053927374+1049963797+1044905133
846+1038541446+1030383202+1019884540+1006657660+990594023+971801426+950491895
836+926977097+901651167+874926634+847305360+819597781+793172789+770223052
826+753809073+747144766+751996257+767057109+787810608+808545646+825009212
816+835487931+840184059+840332887+837673120+833928776+830364184+827611712
806+825200216+820430718+808150165+783801284+748928949+713998470+694161788
796+700033649+731045287+776829687+824680093+866349461+899395978+924524975
786+943229581+957102909+967647318+976030791+982957046+988626787+992935114
776+996010642+998530003+1001288067+1004490864+1007659031+1010263147+1012281452
766+1014045018+1015760884+1017440907+1019127061+1020829654+1022272859
758+1023090705+1023373539+1023683524+1024407788+1025449785+1026632929
749+1027913630+1028956503+1028850322+1026597895+1022046417+1016476659
741+1012157822+1010895177+1012767214+1016341373+1020050885+1023212247
732+1025839203+1027905814+1029098863+1029013433+1027122397+1022683972
724+1015140644+1004669606+992429139+980674368+972414524+969996224+973444192
714+980218115+986936186+991738899+995030359+998234031+1002409228+1007887763
704+1014376293+1021090187+1027138229+1031916485+1035142324+1036838584
696+1037524108+1038152702+1039479015+1041453864+1043396575+1044737980
687+1045481310+1045994830+1046525531+1046954362+1047052728+1046978617
679+1047250940+1048101394+1049207194+1050161673+1050819372+1051200369
670+1051433548+1051733899+1052066723+1052132143+1051916413+1051544310
662+1050995958+1050220894+1049320045+1048339290+1046794890+1043668831
653+1038304022+1031247737+1023723409+1016300679+1008562238+1000137397+991827967
643+985686006+983888955+987109875+993524227+999399726+1001202638+997976665
633+992170291+987702963+986835261+988878831+991447307+992436955+991139545
623+988082882+983894210+978571847+972354225+967019600+965420223+969503185
613+979210344+992819568+1007545911+1020382834+1029480600+1035018020+1038496171
603+1041253832+1043797110+1046112667+1048077949+1049611232+1050714876
595+1051457129+1051996116+1052597895+1053415067+1054352298+1055354612
586+1056505080+1057637829+1058245672+1058003869+1057252925+1056946511
578+1057928007+1059949478+1061632331+1061844826+1060835506+1059730649
569+1059392839+1059794317+1060144120+1059641379+1058069491+1055580448
561+1052189208+1047804210+1042636873+1037233055+1031894859+1026219324
552+1019386853+1010582295+998861749+983131206+962696181+937490985+907628805
543+873316342+835555507+796612673+759439940+726691955+700362903+681890667
533+672076317+670542224+675400385+684344608+695927981+708527952+718667446
523+722506854+719096615+712208695+709714667+718758602+739291184+763924919
513+783852084+793373292+791115408+779934792+766141706+756797218+755761015
503+762331808+773186538+785185807+796896921+808082657+818829387+829554154
493+841046573+853829934+867620460+881661885+895227249+907685937+918723990
483+928628958+937832164+946280653+953582245+959454241+963727668+965887727
473+964897001+960325109+953451877+945746786+937264678+927773450+917957416
463+908314059+898216674+887329335+877104209+869766101+865753274+863778425
453+863445129+865558093+870056345+875054306+878569783+880816551+884019684
443+889554341+896571550+904157390+913061189+924443588+938060088+951589273
433+961633164+965823587+963796322+956313495+943919283+926707805+905623907
424+883879952+865339062+851410421+841607053+836012972+834404971+835124115
414+836809258+838917035+840902798+842033728+842219005+842410413+844178763
404+849395013+859947978+877271767+901387064+927959468+948924453+962148503
394+972171509+981527989+988847907+992183227+991410454+987789942+982868585
384+978900696+978725121+983016672+988962037+992599864+992227424+990982498
374+994205372
##END=
