##TITLE=X7371
##JCAMP-DX=4.24
##DATA TYPE=INFRARED SPECTRUM
##DATE=26/10/2018
##SAMPLING PROCEDURE=Diamant-ATR
##ORIGIN=ComPlat
##XUNITS=1/CM
##YUNITS=TRANSMITTANCE
##RESOLUTION=4
##FIRSTX=3997.453
##LASTX=373.96442
##DELTAX=-1.4165319
##MAXY=0.96459615
##MINY=0.46466908
##XFACTOR=1
##YFACTOR=8.9835017e-010
##NPOINTS=2559
##FIRSTY=0.95218223
##XYDATA=(X++(Y..Y))
3997+1059923248+1059204091+1057846989+1056692649+1056083565+1056142217
3989+1057107993+1058723061+1060027151+1060330698+1059913893+1059546386
3980+1059577703+1059529533+1058638599+1056935287+1055380199+1054611811
3972+1054298710+1054133037+1054503728+1055632790+1056682763+1056351946
3963+1054449588+1052533428+1052346523+1053845878+1055713536+1057083511
3955+1057612976+1056647200+1053475385+1048509427+1044022045+1042609341
3946+1043738402+1043975202+1042032370+1041122858+1044342577+1050123300
3938+1054700387+1055619785+1051938941+1044315307+1036386932+1033471623
3929+1036889128+1042082066+1044035248+1042331206+1040582711+1040810023
3921+1040754223+1038174242+1034985243+1035673017+1041614305+1049347083
3912+1054931812+1057083378+1055961084+1050825074+1040415644+1025956669
3904+1012817906+1006542019+1007666038+1014192326+1024609917+1035705063
3895+1042567475+1041973320+1035539655+1030533025+1031993832+1035251236
3887+1033648841+1027533652+1022712667+1020833729+1020207063+1023541565
3878+1032322923+1039795214+1039305492+1031787552+1022884577+1015972536
3870+1012820095+1015211712+1019597912+1020135472+1017510373+1018738095
3861+1026356554+1034656019+1038046719+1034562003+1022791954+1002708374
3853+987395088+994201303+1014198695+1032098066+1042011670+1043306338+1037725789
3843+1028258714+1017606248+1007547870+1001100074+1002423007+1010620493
3835+1019612177+1025885543+1030332983+1034180695+1036386932+1035959976
3826+1034177112+1031621945+1025433241+1014751316+1007732122+1010759295
3818+1017826924+1024097835+1032162159+1042793725+1051233253+1053152995
3809+1047522884+1037524486+1029690327+1025881097+1020831938+1012778362
3801+1008901788+1013338215+1021129579+1029547543+1039615873+1049882984
3792+1056903439+1059623019+1059372618+1057097046+1053142114+1049443488
3784+1048244695+1048271367+1046558634+1044076053+1045226213+1050608245
3775+1056001358+1057414260+1053366241+1045610108+1039059271+1037103302
3767+1038247757+1040391427+1042625000+1042457269+1037165671+1028773582
3758+1023821226+1024344388+1024746065+1018586952+1003666387+986780099+980876033
3748+985761377+991120917+993606882+998434834+1008362703+1017252607+1018966933
3738+1010805540+994554677+980562335+982233069+999160427+1018565389+1030710443
3728+1033058600+1027734889+1020253441+1016613998+1018617606+1024390434
3720+1031769705+1038725602+1042755774+1041411012+1033111414+1019317588
3711+1008653444+1011492452+1025206925+1039322677+1047599649+1048720019
3703+1044744519+1041007013+1041943330+1046179051+1049801242+1050477405
3694+1047055787+1038550706+1025365167+1012556026+1009735994+1019686090
3686+1034281346+1045987369+1051544164+1050011635+1042412683+1030446506
3677+1014924553+1000560723+997782159+1004932459+1009717218+1009529583
3669+1013823226+1027074981+1041863446+1051861844+1056297872+1057033218
3660+1055478130+1051259262+1044125748+1036896625+1032237332+1026362459
3652+1012366467+989382042+971957133+978131307+1000673781+1022632650+1037177282
3642+1044806489+1048308721+1049832294+1049824398+1047978834+1044439977
3633+1039401566+1031401733+1018354665+1004959131+1004666930+1018240080
3625+1032323055+1038840054+1036233002+1026299096+1015203418+1010422375
3616+1011284647+1011817164+1010713249+1010954361+1012996252+1014697242
3608+1017176439+1023470969+1031634684+1036266774+1035102614+1030920968
3599+1027816896+1026553279+1025582858+1025147543+1027094023+1030294832
3591+1029679910+1021525815+1009834257+1005945011+1013799540+1024941396
3582+1032269843+1035201408+1036058505+1036808978+1038123153+1039680630
3574+1040534276+1039086872+1032916547+1019753368+1001494983+988673435+991617606
3564+1005463583+1018769943+1026784107+1031110328+1033946815+1034759325
3555+1032158775+1027142126+1023142276+1022190367+1021728910+1017697942
3547+1010375599+1005358751+1007344245+1014583851+1021830689+1025450890
3538+1025063279+1022967911+1022019518+1022773442+1023126087+1020937432
3530+1016174701+1010565689+1005665881+1001943303+999953563+1000792679
3521+1004301811+1008325083+1010807531+1011455296+1010919329+1009348981
3513+1006273505+1001707499+997224827+995036902+994935189+993692472+989175365
3503+983839843+982020620+984085799+986475226+986624113+985100607+983551955
3493+982256159+980307355+977361393+974281273+971995948+970146403+967417866
3483+963353060+959381939+957449989+957607103+957851400+956393580+953287385
3473+949779645+946607167+943476423+940028663+936600675+933688550+931081432
3463+928173422+924992982+922235451+920290164+918808192+917163401+914924254
3454+911990367+908451377+904279882+899474489+894721777+891205943+889175862
3444+887601864+885675686+883535864+881371427+878984787+876507646+874562692
3434+873440199+872814860+872437201+872544156+873389906+874737189+876011289
3424+876868452+877637968+879237178+882370378+886674571+891002782+894609050
3414+897694610+900803460+904142474+907713908+911720791+916400719+921566918
3404+926630674+930997103+934286421+936498099+938269153+940551825+943720587
3394+947381725+951130776+954895950+958524511+961694799+964371783+966985071
3384+970020074+973466175+976691666+978981570+980250693+981158149+982464693
3374+984294334+986059947+987137920+987522412+987777259+988509818+989938777
3364+991783876+993588171+995176766+996532873+997374643+997453399+997206714
3354+997471778+998570717+1000128326+1001616136+1002758334+1003637193+1004547568
3344+1005530263+1006120106+1005869639+1005039679+1004450964+1004671442
3336+1005587257+1006742593+1007814394+1008641966+1009055784+1008993151
3327+1008774000+1009052533+1010325638+1012454048+1014690010+1016251401
3319+1016887223+1016896313+1016723474+1016613799+1016491518+1016062638
3310+1015261275+1014700559+1015261938+1016990263+1018861770+1019880824
3302+1020017304+1019924217+1020102563+1020447777+1020434507+1019840153
3293+1019264243+1019579069+1020882031+1022367652+1023178171+1023040364
3285+1022286042+1021620031+1021701110+1022625152+1023808221+1024451210
3276+1024137313+1023149575+1022336335+1022475137+1023599222+1025076284
3268+1026297172+1026988728+1027002329+1026353369+1025484994+1025010333
3259+1025129894+1025513922+1025691405+1025461904+1025027982+1024717004
3251+1024550733+1024267158+1023733446+1023112220+1022712600+1022821214
3242+1023448013+1024191254+1024638115+1024829996+1024976097+1024879891
3234+1024135919+1022851402+1021771639+1021601719+1022333150+1023274245
3225+1023709826+1023466657+1022877876+1022388286+1022176965+1021969624
3217+1021310380+1020229024+1019378761+1019203866+1019350032+1019279636
3208+1019000108+1018767953+1018520404+1018020796+1017300312+1016664490
3200+1016328034+1016209734+1016129982+1016032051+1015832473+1015395631
3191+1015029584+1015474520+1016809462+1017904951+1017657735+1016319210
3183+1015007556+1014367023+1014270087+1014388520+1014448897+1014157492
3174+1013428582+1012699871+1012571884+1013032943+1013420819+1013243800
3166+1012690317+1012252745+1012151563+1012180093+1011966715+1011443619
3157+1011036966+1011168669+1011591378+1011558204+1010721344+1009589164
3149+1008984924+1009236386+1009991836+1010654265+1010807332+1010361467
3140+1009575363+1008886528+1008475562+1008107325+1007650313+1007468915
3132+1007883331+1008532423+1008778446+1008459041+1007811077+1006984899
3123+1006055482+1005205485+1004549161+1004034093+1003699893+1003701419
3115+1003966085+1004165265+1004063353+1003592740+1002731928+1001679898
3106+1000913832+1000642995+1000395248+999531649+998024266+996470571+995506454
3097+995333947+995646649+995984565+996176115+996199337+995773111+994665082
3087+993288539+992322232+991835695+991398057+990869720+990563784+990769201
3077+991378484+991829259+991468785+990251413+988817810+987640580+986592664
3067+985616603+985134312+985375557+985830977+985745453+984862281+983574978
3057+982589430+982384876+982768970+983020366+982562160+981442189+980230656
3047+979551773+979574796+979821150+979630463+978869904+977949113+977163341
3037+976414526+975520473+974386436+973027210+971798626+971302468+971655113
3027+972229098+972424761+972253714+971923362+971375850+970537198+969576465
3017+968617522+967457012+965834779+963907672+962260690+961360467+961091222
3007+960974846+960760074+960536943+960360123+960135929+959875709+959686149
2997+959499908+959142486+958657010+958298924+958215059+958258385+958088996
2987+957465514+956479568+955387530+954242877+952903887+951302819+949429123
2978+947139220+944137392+939997744+934107810+925686860+913915683+898497964
2968+880863194+864692414+854143187+850923933+853113848+856568575+857397805
2958+854038952+848114251+843425698+843321530+848233281+855572676+862117342
2948+866353992+868512259+869111988+868207253+865569614+860747899+852973719
2938+841450289+825944127+807273649+787354282+768526955+752388155+738863108
2928+726127748+711409878+692164618+666976543+636036806+601411447+567002850
2918+538047512+520113175+517247163+529670286+553119154+581206912+608937946
2908+634253344+657044362+677660592+696330407+713153597+728141440+741364400
2898+753080507+763560532+772870891+780985308+787962902+793998671+799657379
2888+806068419+814332387+824514240+835535938+846074815+855249755+862504223
2878+867282745+869121409+868188542+865773903+863895562+863893970+865295924
2868+866263094+864999610+860467840+852279443+840683096+826330544+809195978
2859+787773608+759890370+724506045+683194630+640889771+605412889+584907794
2849+583940823+601111881+630224168+663954147+697148358+727709243+755302469
2839+779799983+800889879+818544156+833261494+845760586+856647596+866376153
2829+875226712+883208896+890192661+896197047+901395492+905893955+909720700
2819+913000133+915960294+918781056+921534009+924229437+926829257+929271033
2809+931573012+933884612+936339459+938884076+941285512+943293830+944854890
2799+946192353+947618857+949272141+951101715+952978397+954712296+956166202
2789+957456226+958850749+960443789+962107291+963713999+965247988+966706870
2779+967961397+968807015+969276965+969756005+970553188+971530907+972367303
2769+972958672+973382443+973711667+974016673+974359830+974747308+975214870
2759+975881478+976743816+977517579+977908507+978002192+978139402+978418797
2749+978611475+978579561+978462588+978407651+978398030+978374808+978314828
2740+978189827+977976448+977675954+977264125+976686425+975939003+975130806
2730+974454046+974082292+974052634+974215985+974303699+974125353+973780338
2720+973605442+973790887+974134642+974336409+974441904+974748038+975307958
2710+975799869+975974367+976008736+976267762+976854818+977572250+978210130
2700+978694809+979005389+979126476+979110884+979087197+979181346+979456695
2690+979913640+980467787+980899388+980956448+980655621+980397988+980565519
2680+981059090+981439999+981488965+981412531+981526386+981951948+982637068
2670+983487596+984380986+985173060+985821688+986425199+987026851+987528848
2660+987957529+988566082+989378924+989888418+989610349+988794124+988195523
2650+988238981+988716562+989229174+989589118+989740393+989613932+989253060
2640+988899021+988774352+988926556+989342366+989974406+990574798+990749230
2630+990312388+989498949+988805934+988615711+988872216+989152342+989147963
2621+988948850+988733149+988401802+987757288+986876438+986014963+985208026
2611+984263482+983171709+982187355+981402844+980611698+979749891+979074458
2601+978702904+978343956+977695659+976840819+976066194+975463480+974866338
2591+974183010+973669800+973650957+973971224+974080302+973778679+973488933
2581+973648237+974217910+974913911+975554842+976087426+976559233+977115105
2571+977863655+978828967+980102204+981774067+983619830+985232575+986633402
2561+988376125+990807484+993523216+995778286+997214410+998031233+998733272
2551+999836125+1001488945+1003223375+1004419515+1005123080+1006007313
2543+1007429371+1008924745+1009792059+1009881365+1009641182+1009599050
2534+1009998007+1010808194+1011855381+1012921145+1013863235+1014709715
2526+1015590299+1016554085+1017471427+1018141220+1018538120+1018923806
2517+1019583647+1020415797+1020881168+1020490837+1019417045+1018538186
2509+1018640297+1019603154+1020674093+1021487399+1022389481+1023717987
2500+1025173087+1026111992+1026330147+1026317674+1026587449+1026943146
2492+1026766724+1025895230+1024712160+1023487689+1022266801+1021388340
2483+1021389667+1022199921+1023010839+1023273515+1023437662+1024375771
2475+1026274812+1028326589+1029436542+1029182292+1028182413+1027622162
2466+1028387696+1030484856+1033096088+1035148196+1035970725+1035664989
2458+1035045156+1035079060+1036069585+1037442014+1038545199+1039331103
2449+1039938263+1040210626+1040177385+1040368072+1040980075+1041307640
2441+1040706518+1039692506+1039360828+1039968518+1040762318+1041130886
2432+1041305517+1041788737+1042581873+1043259230+1043596283+1043798050
2424+1044010301+1043947136+1043397236+1042769707+1042537684+1042468018
2415+1042078417+1041509142+1041301470+1041631556+1042279852+1043058126
2407+1043873489+1044565509+1044950533+1044974219+1044689781+1044141207
2398+1043409112+1042759954+1042577428+1043046714+1043931146+1044698207
2390+1044936599+1044649839+1044042613+1043157650+1042016447+1040981667
2381+1040582645+1041042908+1042284165+1044320350+1047407835+1051683564
2373+1056556965+1060735227+1063440675+1065412501+1067874447+1070767729
2364+1072937806+1073741823+1073484455+1072476348+1070639144+1068176667
2356+1065648305+1062882879+1059062967+1054726130+1052057706+1052744484
2347+1056700411+1062261985+1067110438+1069753849+1070110343+1068880895
2339+1067163518+1065858300+1064937774+1063866503+1062497258+1061028623
2330+1059513079+1057857671+1055992268+1053870162+1051575481+1049473545
2322+1048057259+1047535158+1047535424+1047298690+1046322895+1044780215
2313+1043189298+1041898478+1041047685+1040733721+1040973706+1041626646
2305+1042412484+1043072657+1043682404+1044641479+1046032552+1047198835
2296+1047387399+1046693521+1045992079+1045939398+1046240888+1046073755
2288+1045287984+1044802442+1045473827+1046995475+1048374274+1049076844
2279+1049263948+1049363073+1049883581+1051113825+1052534092+1053060903
2271+1052264781+1050920218+1050098619+1050056222+1050223487+1050206967
2262+1050517215+1051814802+1053569932+1054423778+1054066754+1053568805
2254+1053521431+1053164739+1051842204+1050229857+1049517269+1049861686
2245+1050272652+1050079178+1049856577+1050397853+1051442783+1052114036
2237+1052115098+1052000712+1052466814+1053233676+1052786550+1050300519
2228+1047432450+1046397472+1046872199+1046897743+1046127896+1045925730
2220+1046864702+1048313167+1049987152+1052039526+1053938767+1054748158
2211+1054333941+1053278528+1052016835+1051028566+1051112232+1052373660
2203+1053724061+1054290085+1054542609+1055246771+1056059679+1055874499
2194+1054141131+1051344454+1048363990+1045842529+1044183671+1043686385
2186+1044413570+1045962355+1047345732+1047545641+1046850768+1047006158
2177+1048954430+1051216135+1051577140+1049396248+1045537788+1041658892
2169+1039992271+1041742027+1044980589+1046038988+1043890873+1041407761
2160+1041507483+1043805747+1046228547+1048051619+1049137354+1048528071
2152+1045827998+1042412351+1040302784+1040621459+1042952432+1045354200
2143+1045651709+1043642727+1041360719+1040872059+1042559182+1045266686
2135+1047226503+1047197508+1045460093+1043504987+1042527533+1042557722
2126+1042964375+1043195999+1042901874+1041917255+1040502561+1039217713
2118+1038334607+1037737135+1037504979+1038086396+1039661322+1041655906
2109+1042992706+1042808189+1041288664+1039807423+1039648450+1040593990
2101+1041461238+1041820385+1042198774+1042653663+1042371746+1041035477
2092+1039623105+1039309009+1040119860+1041258608+1042414275+1043828704
2084+1045182024+1045625103+1045022720+1044075057+1043387084+1043426496
2075+1044646919+1046418969+1046928795+1045374635+1043013805+1041150857
2067+1039678042+1038414226+1038189369+1039487090+1041296494+1042389925
2058+1042907116+1043755056+1045053374+1046072494+1046362506+1046148862
2050+1045927057+1046294963+1047569129+1048948857+1049020646+1047716291
2041+1046572368+1046500114+1046845991+1047131159+1047532902+1047189414
2033+1044908534+1042031110+1041330862+1043087320+1045174394+1046479147
2024+1047609204+1048727981+1048743506+1046593268+1042811905+1039593049
2016+1038452510+1038535778+1038781402+1040117074+1043482826+1047265649
2007+1049070474+1048981368+1048634097+1048258097+1046900862+1044771125
1999+1043448457+1043546521+1043474333+1041459314+1038061714+1035621132
1990+1035422284+1036668584+1038088386+1039052305+1039396656+1039327321
1982+1039303436+1039281010+1038508707+1036955410+1036216283+1037649222
1973+1040362764+1041940278+1040685884+1037457938+1035720324+1038385961
1965+1044013021+1048203558+1048633832+1046768164+1045008256+1043686982
1956+1041435959+1037821862+1034559879+1033513821+1034245186+1034667365
1948+1033481973+1030874126+1027792081+1025896158+1026934122+1030660084
1939+1034933822+1038191559+1040040971+1040384858+1039447413+1038076178
1931+1037187433+1037128648+1037277402+1035881419+1031545644+1025741366
1922+1022037632+1021636618+1022673189+1024266494+1027511160+1031974192
1914+1034872848+1034285991+1031307982+1029031016+1029365084+1031287679
1905+1032695804+1032874283+1032445005+1031963842+1031388131+1030523338
1897+1029680772+1029665976+1030298747+1029638707+1026596074+1023532010
1888+1023814591+1027182865+1030756157+1032845620+1033475803+1033208416
1880+1032738068+1032630649+1032856634+1032923381+1032008495+1028636505
1871+1021460860+1012033263+1006376611+1009233401+1017568296+1025178660
1863+1028902299+1029254414+1028601208+1028929237+1030489102+1032230299
1854+1033205497+1032993711+1031054661+1026840039+1020638862+1013468060
1846+1006917820+1004217349+1008048938+1015633493+1021678086+1023981989
1837+1024037059+1024111436+1023800525+1020533500+1013541774+1006513688
1829+1004197511+1005902813+1008182764+1010938106+1015689159+1021093883
1820+1024313602+1024691061+1023827728+1022794541+1020719343+1016578369
1812+1011485286+1008351025+1008610118+1010509292+1011136025+1008288259
1803+1001343973+992416780+985509051+982285618+980465731+977025070+970213282
1793+960811097+954406095+956180268+962014801+964119059+959211754+948940662
1783+936180619+921900454+906463694+890864842+874498598+854344224+826758230
1773+789737207+748237560+714004589+691408040+675781588+663434568+652597452
1764+641019550+628445815+618158600+611573793+606773044+603748657+604258682
1754+608195169+614632880+623501686+633242384+639250221+637283902+626704154
1744+611045190+595498290+583323711+575535134+571402320+568016928+562646374
1734+557490990+558267008+564463740+572688695+581932771+591818574+602466529
1724+614661344+627498551+637923771+643800370+647105148+655433209+673526319
1714+695820648+715953060+731358305+741246431+745883298+747262296+748800531
1704+751821866+753816649+752557345+750705080+753885453+764084158+780390887
1694+797512449+808224364+810880115+808930848+806403813+803388251+798010398
1684+795047185+803753170+820126314+835375042+846230735+852031430+853869630
1674+854337722+854093889+852066728+851347173+858497274+871553432+881554816
1664+884658622+884213354+886481163+892135824+895966219+893727537+883527305
1655+866357509+854917745+861446023+870282915+870752865+868036537+874063150
1645+889175464+902552552+909293214+909398974+903293074+892805816+886445667
1635+894873583+911619742+924073716+928875129+928321911+926324208+924740789
1625+923315944+924049897+929408973+935898039+937848103+935227715+935674177
1615+944037802+954173343+960052661+961339766+961167325+962612605+965915724
1605+969461548+972469082+975534340+978976527+981724902+982536151+981805516
1595+981377764+982476106+984626610+986917840+989165479+991460425+993497406
1585+994856897+995504065+995371367+993378575+987588894+977579018+968763026
1575+969727409+977083391+980349819+976456724+971409621+972612861+977956345
1565+981540784+981015299+974566308+957790890+931003340+918330148+932810753
1555+951731102+964500367+971021546+973598343+975697227+977562895+974369252
1545+962174768+943153303+923544185+911311086+918861802+942488751+961287748
1536+967604970+966340955+967522498+974106775+978415082+975062466+966420508
1526+957974544+950543189+942654823+938140834+940249273+944581266+949262455
1516+957396047+967290940+971690676+965468466+948303048+925248293+914892473
1506+936577784+968141336+987076547+992801206+989536967+982441206+979233828
1496+984855049+993220797+994352910+984382777+969297533+963466185+972598330
1486+986582711+995554225+997275916+994560582+990535055+984189171+971151391
1476+947556621+909659527+854259894+793289467+752545468+741710808+755415461
1466+787223309+828066035+864312300+887406002+896124992+891423103+880680137
1456+881183062+896168849+914526094+930745972+943273063+952095955+959726025
1446+968484227+976584977+979927839+975741084+963894402+946871767+931273778
1436+928151460+939948115+954856738+964541636+970054111+975686479+982108001
1426+986228540+986985516+986596047+985594310+981211162+974540963+974626553
1417+985072475+997814670+1005816029+1008386456+1008535940+1008339746+1006573867
1407+1001608307+995126473+989924114+984085932+972436969+953475749+932031418
1397+914445347+904203515+902640597+907432323+913011877+916023193+918451699
1387+925227393+937008257+948361568+954267890+953875237+949496799+943939141
1377+939009011+936962012+941121962+951371955+962211393+969193432+972595146
1367+973662170+971259872+965050865+959807037+961608479+969605725+978191087
1357+984279870+988488918+992355407+996065378+998835582+1000563443+1002019804
1347+1003691069+1005020504+1004321252+999480362+990345364+981205124+978394314
1337+983012869+989795131+993669051+993305790+989996965+985877156+982790932
1327+981577475+981917115+982602898+981922091+978502331+972469680+965429917
1317+958735368+952403284+946543605+942685410+942310604+944834521+948395472
1307+951991655+955824637+960187350+964910802+969599355+973862544+977512470
1298+980720643+983745495+986489159+988510946+989383104+989021435+987936563
1288+987073694+987023799+987513123+987918184+987973785+987778984+987484792
1278+987130754+986429511+984707821+981499183+977197445+972647296+968175174
1268+963637830+959262113+955511602+952154143+948524985+944877979+942356783
1258+941320279+940665945+938979154+935550105+930284780+923323110+914827716
1248+904728866+892649631+878273260+861701998+843361141+823616936+802329586
1238+778615786+751456084+721052446+689445569+659475058+633291151+611867454
1228+595328636+583336384+575395602+570936285+569056286+568483495+568214118
1218+568235349+569430560+572661956+577963640+584572864+591525909+598131749
1208+604151528+609769033+615260807+620552340+625177861+628694691+631081065
1198+632778406+634379673+636358200+639286315+644143858+651826609+662172941
1188+673827145+685201887+695437747+704512169+712741901+720376350+727537996
1179+734269766+740594088+746669998+752787377+759038980+765174671+770898666
1169+776076609+780707173+785070682+789781263+795226062+800998359+806178890
1159+810143774+813027368+815577493+818664248+822801639+827975535+833802836
1149+839779488+845439324+850477205+854908390+859038748+863082720+866894139
1139+870283844+873316591+875856630+877173260+876788303+875653337+875737865
1129+878280094+882865010+888201593+893259511+897610347+901276462+904529620
1119+907564092+910303709+912647820+914670735+916397866+917697908+918553810
1109+919147966+919655270+920267141+921348165+923240704+925908731+928919384
1099+931745586+934077223+935944948+937567181+939071976+940400483+941454967
1089+942270330+943004615+943724767+944193125+943791182+941300308+934539808
1079+921198814+901817737+882192164+870856900+872600486+884798685+900427526
1069+913629520+922165187+926352208+927157220+925176238+920927977+915433350
1060+909633650+903818027+898987554+897798977+901827888+908363598+912412745
1050+912215224+911010127+912985072+918944341+926451200+932666046+935801766
1040+935208606+932244531+930565370+933371933+940192014+947569958+952633051
1030+955031169+955935374+956326302+956242968+954776920+950432652+942390157
1020+932466932+925212265+924545657+930261624+938576349+945482551+948626300
1010+946820147+939756765+929207006+919469294+914519990+914041879+913883968
1000+911395880+908822666+910391688+917455734+927660212+937751830+945879584
990+951692885+955568132+958021917+959204588+958805831+956818213+954154234
980+951919533+950239842+948280887+945063425+939354557+928726971+910465601
970+885700235+862571833+852335972+860241589+881086259+904474882+923133153
960+935647638+943639177+948819376+952295998+954716940+956232352+956642256
950+955793851+953743733+950647158+946807143+942876097+939629175+937234241
941+934759357+930109552+920049184+901777397+877331038+856122311+849111609
931+858735666+876780540+892804622+902194732+905887320+906061353+904149838
921+901109262+897593163+893677178+888546343+880383358+867190653+848950846
911+829392750+814558637+808413326+809857412+814204267+816585268+813299731
901+801758918+782379832+761437098+749241819+752339521+767455020+784447798
891+794620892+795383176+788973464+779644063+772223457+771024862+778009422
881+791703991+808615557+825768833+841556315+855034785+865831958+874534891
871+882066897+888724821+894346308+899050187+903260762+907164273+910604270
861+913575312+916381013+919125208+921584235+923835391+926458698+929850857
851+933731943+937436341+940515930+943029628+945235866+947206498+949007873
841+950888005+952879404+954378361+953879218+949237706+940124869+930909588
832+928230814+934103829+943822831+951487933+955020752+955522616+954674809
822+953720511+953445428+954325017+956632503+960144621+963953519+967065420
812+969178901+970765041+972430069+974234032+975764173+976826686+977665869
802+978500008+979289562+979930891+980261707+979875888+978243039+975262707
792+971853430+969748574+970266959+973160174+976767835+979328774+980259319
782+980378747+980885720+982028183+982941345+982851973+981981009+980934818
772+979748100+978117175+976206788+974553370+973257043+971750058+969391484
762+966027257+961952897+957503532+952777028+947715594+942255866+936115995
752+928401397+917852568+903903750+887209543+868582589+847741768+823827528
742+796942112+768440435+739884153+712539006+687860093+667529098+652609262
732+643182196+638887690+639253936+643523097+650090919+655175377+652852896
722+640342923+625444053+624630681+648423303+690783099+736337799+774264817
713+802893221+825110452+843393585+858566609+870732960+880444133+888893613
703+896841561+903897978+909498431+914049177+918275941+921933828+924215172
693+925205365+925995582+927474368+929593622+931675322+933028311+933258012
683+932239355+930107164+927391830+924857431+922846392+920801051+917838701
673+913965179+910070957+906440472+901919516+895879567+890076483+885403722
663+881131907+876754597+872558487+868961574+865808139+862451940+858453285
653+854225658+850797471+848774291+847786022+847111253+846575153+846453602
643+846662800+846737045+846685292+847104353+848313364+850139422+852527654
633+855532867+858748471+861386840+862884337+863276725+863260602+863787081
623+865213253+867087281+868894230+870464247+871634975+872244590+872534734
613+872955055+873557703+873898405+873484918+872284001+870834076+869752057
603+869162678+868896154+869142774+870313834+872037647+872844650+871499358
594+868786944+867454523+869510413+873855544+877673067+879387260+879103551
584+877368989+875006566+873298212+872912923+873294563+873759802+874130627
574+874070050+872912326+870237599+866185797+861384186+856310344+850514095
564+843274290+835209700+828241661+823824940+821986210+821962059+823089727
554+824994739+827177688+828712872+828619983+826569135+823220899+819806180
544+817029275+814536609+812109762+810694205+811088650+812449933+813326735
534+813318441+812684410+811142128+808060017+803876845+801118650+803024658
524+810014792+819023328+826859213+832429345+836712041+841722917+848370624
514+855291422+860571609+863765717+865709677+866897457+866335481+862267556
504+854892798+848223063+847079405+850878749+853325501+849240061+839760778
494+831716757+832185380+842303471+856023186+865831162+868393892+864492106
484+856794360+848211386+840213411+832437307+824322956+815944602+806701720
475+795244175+782555059+773124078+770054441+772181790+777638001+785699339
465+795445478+805402208+813937876+819761992+823707104+829371983+838862213
455+850055955+860907070+871231772+879626514+883091260+880724723+875040404
445+869031705+863917723+859649889+854593099+845807760+833114399+821592628
435+816495763+817214986+821085257+829183551+842440946+855878213+862704995
425+861649250+856152566+847457794+834128742+821634825+823559411+839210877
415+855219898+865911046+873688809+882267006+892539491+903233359+912625725
405+918301021+917615569+909669877+895791057+879364170+867738430+868921301
395+880932197+895075085+906230344+914513089+921044220+923872679+920824937
385+916415514+918566616+925546067+929672578+929557197+926793628+918359341
375+900489894+881727788
##END=
