##TITLE=X8199
##JCAMP-DX=4.24
##DATA TYPE=INFRARED SPECTRUM
##DATE=31/10/2018
##SAMPLING PROCEDURE=Diamant-ATR
##ORIGIN=ComPlat
##XUNITS=1/CM
##YUNITS=TRANSMITTANCE
##RESOLUTION=4
##FIRSTX=3997.453
##LASTX=373.96442
##DELTAX=-1.4165319
##MAXY=0.96057308
##MINY=0.51949316
##XFACTOR=1
##YFACTOR=8.9460339e-010
##NPOINTS=2559
##FIRSTY=0.90322262
##XYDATA=(X++(Y..Y))
3997+1009634692+1010048379+1010614174+1010784339+1010543283+1010158579
3989+1009873017+1009867820+1010218344+1010819718+1011524631+1012291040
3980+1013021937+1013418966+1013261327+1012708924+1012123873+1011719314
3972+1011522565+1011498579+1011517435+1011371589+1011035189+1010799064
3963+1011028260+1011812925+1012843976+1013597060+1013666086+1012984692
3955+1011867026+1010928786+1010856030+1011909867+1013471202+1014431096
3946+1014445087+1014284850+1014689275+1015377464+1015503455+1014910876
3938+1014205164+1013797874+1013636437+1013799339+1014584537+1015666558
3929+1016099899+1015639108+1015028073+1014961312+1015343884+1015618054
3921+1015543032+1015290516+1014975304+1014467274+1013778818+1013264059
3912+1013239207+1013758364+1014742177+1016103697+1017769703+1019583153
3904+1021105245+1021823016+1021803428+1021453504+1020775975+1019777171
3895+1019025353+1019068527+1019608005+1019523389+1018332034+1016971379
3887+1016422773+1016733721+1017225094+1017522717+1017729127+1017700077
3878+1017384399+1017410051+1018226563+1019318645+1019875512+1020032552
3870+1020471356+1021217444+1021948341+1022575234+1022594023+1021149951
3861+1018595943+1016524246+1016077446+1017390262+1020106641+1023350571
3853+1024872463+1023376556+1020817483+1018931676+1018207042+1018512726
3844+1019255682+1019858989+1020474155+1021583359+1022824019+1023193198
3836+1022610013+1021732470+1020573296+1018911088+1017376337+1017023548
3827+1018003163+1019426780+1020719275+1022431053+1024782716+1026017646
3819+1024785781+1022534658+1020739663+1019318112+1017823004+1016506856
3810+1015909280+1016389593+1017913350+1019816347+1021291134+1022139161
3802+1022297600+1021677303+1021020029+1021149552+1021698091+1021601415
3793+1020514797+1019090781+1018069857+1017928608+1018871645+1020398933
3785+1021235167+1020646985+1019421450+1018578886+1018035077+1017218298
3776+1016304577+1015976306+1016628850+1018188253+1020012497+1021032888
3768+1020834207+1020189591+1019952599+1020326776+1021174137+1022217314
3759+1022782444+1022301397+1021571233+1022105381+1024410538+1027447858
3751+1029030114+1028119124+1026490830+1025518943+1024637336+1022869991
3742+1020708215+1019184658+1018340762+1018124291+1018928677+1020403131
3734+1020604943+1018949998+1017495000+1017644711+1018933674+1020234964
3725+1020762050+1020465893+1019823343+1019204379+1018631788+1018119161
3717+1017991837+1018760844+1020738397+1023499615+1025375829+1024823692
3708+1022677306+1020619535+1019368148+1018912287+1018811880+1018348490
3700+1017305913+1016373270+1016270264+1017251212+1019417452+1022843341
3691+1027066086+1030332936+1030289429+1027149103+1023533528+1021051610
3683+1019961261+1020129361+1021451172+1023956942+1027463782+1030546142
3674+1031069163+1029684257+1028465784+1027533940+1026131511+1024728615
3666+1024054884+1023794706+1023287809+1022419727+1021671840+1021516000
3657+1022014502+1022837344+1023650992+1024666052+1026538268+1029548471
3649+1031913992+1030712110+1027055759+1024145896+1023056613+1023015438
3640+1022992985+1022730674+1022428588+1021996113+1021246894+1020521660
3632+1020568032+1021716546+1023020768+1022705156+1020951870+1019549174
3623+1019548907+1021243629+1024290677+1027380232+1029044239+1029333999
3615+1029060962+1028432071+1027591173+1027139176+1027404418+1027865143
3606+1027727025+1026899586+1025947687+1025305737+1024943753+1024736943
3598+1024760063+1024819494+1024328121+1023327918+1022926224+1024034296
3589+1026396619+1028573920+1028893262+1027612560+1026389224+1025853544
3581+1025690108+1025746208+1026001589+1025942890+1025130042+1024202463
3572+1024309465+1025888789+1028713037+1032175103+1034613514+1034253662
3564+1031892405+1029657073+1028411217+1027742949+1027184349+1026821965
3555+1026789918+1026829961+1026678051+1026589504+1027079012+1028186484
3547+1029209873+1029226264+1028177756+1027143040+1027192877+1028425741
3538+1029992873+1030773540+1030273172+1029066426+1028235788+1028401756
3530+1029265307+1029973684+1030029251+1029750217+1029689587+1029966888
3521+1030274904+1030221736+1029645213+1028883135+1028586512+1028968751
3513+1029529416+1029747819+1029653342+1029552269+1029607303+1029823640
3504+1030076822+1030062031+1029525618+1028569989+1027532608+1026692310
3496+1026143570+1025796844+1025509749+1025244307+1025061949+1024993590
3488+1024961409+1024802238+1024285013+1023033827+1020581957+1016828265
3479+1012352870+1007953296+1004019911+1000419860+996663102+992193437+986777470
3469+980576305+973877771+967038920+960482567+954259149+947836050+940803648
3459+933519396+926718723+920848294+915903446+911643455+908051999+905624582
3449+904810934+905198103+905826928+906383062+907395258+909317377+912032090
3439+915015043+917707302+920045373+922604712+925801404+929221295+932240093
3429+934896574+937639803+940640612+943750689+946749099+949380928+951453557
3420+953071458+954632326+956452973+958425662+960106725+961192610+961842888
3410+962509424+963555799+965005600+966520763+967687466+968409169+968920463
3400+969410371+969786613+969833452+969495254+968964437+968522101+968329017
3390+968348338+968363129+967947178+966545548+963909188+960573246+957571572
3380+955395071+953487876+951044068+947980231+944687596+941172295+936917768
3370+931471152+924901607+917689713+910159941+902215883+894018776+886666166
3360+881436088+878470991+876941438+876392165+877160374+879492981+883007150
3350+887138550+891596089+896271832+901056442+905825395+910448502+914887585
3340+919334931+923978359+928596668+932763847+936454644+940099335+944038184
3330+948127809+951847589+954815417+957256626+959767194+962538873+965075092
3320+966744096+967462534+967787340+968383717+969508979+971057788+972768033
3310+974122958+974558831+974231893+974124557+974990840+976589219+978085859
3301+978832746+978689432+977958068+977189461+976915291+977351630+978291269
3291+979353968+980350374+981284216+982096731+982662593+983021313+983439463
3281+984198210+985293023+986325873+986824842+986710577+986280900+985768273
3271+985168631+984448327+983624619+982695707+981769260+981200333+981322060
3261+982028905+982824697+983268765+983240782+982819966+982078875+981079005
3251+980008977+979238504+979103984+979546920+980014841+979945349+979487289
3241+979384750+979859467+980112915+979441183+978310192+977659180+977705219
3231+978040286+978351833+978562308+978729541+979132434+980104787+981567114
3221+982975340+983921442+984642345+985640682+986920185+988057573+988935049
3211+989789072+990563210+990884752+990752364+990682206+991075638+991823258
3201+992634907+993474672+994484003+995686818+996960391+998091983+998762782
3191+998833806+998652581+998605943+998574028+998391337+998441574+999127564
3182+1000190397+1001082198+1001580767+1001702161+1001449445+1000943680
3173+1000537856+1000583029+1001158219+1002084466+1003085868+1003878928
3165+1004304274+1004486166+1004659196+1004816768+1004783588+1004505421
3156+1004011116+1003403745+1003076274+1003456114+1004414009+1005413545
3148+1006156568+1006617027+1006725562+1006431271+1005805645+1005006921
3139+1004464645+1004822232+1006174424+1007677394+1008371380+1008135720
3131+1007591112+1007393097+1007785196+1008490509+1008932645+1008773739
3122+1008245588+1007848492+1007809648+1007929110+1007935107+1007848892
3114+1007827837+1007743954+1007283762+1006526548+1006071153+1006385232
3105+1007230261+1007920116+1008062231+1007851090+1007636218+1007521154
3097+1007513359+1007675795+1007872744+1007754281+1007292624+1007006927
3088+1007398960+1008379641+1009383509+1009885076+1009749890+1009234265
3080+1008713309+1008323875+1007867014+1007183822+1006545270+1006308411
3071+1006176890+1005323932+1003431195+1001182005+999674638+999630131+1000990119
3061+1002967739+1004694108+1005902387+1006724096+1007072488+1006815508
3053+1006294220+1006038572+1006098337+1006091674+1005804912+1005399687
3044+1004983335+1004312203+1003201199+1001960407+1000962136+1000056810
3036+998978187+997987645+997502135+997451099+997482480+997426846+997276869
3026+997116165+997154942+997546508+998279138+999292999+1000325783+1000790172
3016+1000406334+999723409+999413327+999397270+999191127+998610606+997672433
3006+996344159+994805678+993534037+992879294+992818064+993159994+993776226
2996+994638378+995734190+997001967+998415390+1000048281+1001872459+1003611488
2986+1004969610+1005825433+1006155969+1006047700+1005755608+1005509688
2978+1005445260+1005849951+1007011325+1008593647+1009658545+1009584189
2969+1008624762+1007407822+1006183219+1004739748+1002846811+1000463034
2961+997529718+993890691+989512971+984601436+979583898+975189721+972302045
2951+971410310+972348284+974668965+977966863+981725020+985253513+988073430
2941+990218949+992031401+993815069+995759775+997910158+999967396+1001361298
2931+1001841811+1001900309+1002362833+1003581239+1005115723+1006306212
2922+1007118528+1008095211+1009374381+1010287769+1010212547+1009334471
2914+1008309350+1007588047+1007202344+1006897993+1006464052+1006070753
2905+1006098137+1006587245+1007133585+1007328935+1007063627+1006444930
2897+1005669393+1004983202+1004580043+1004486232+1004602030+1004849415
2888+1005207202+1005649005+1006147107+1006717034+1007374175+1008058966
2880+1008661073+1009113137+1009409360+1009515896+1009364453+1009071961
2871+1009039447+1009564134+1010417625+1011046116+1011129533+1010805993
2863+1010501042+1010610443+1011150787+1011676207+1011707588+1011224543
2854+1010587323+1009984217+1009125196+1007617030+1005592239+1003770659
2846+1002878858+1003115184+1004086271+1005132513+1005868341+1006473579
2837+1007307548+1008361585+1009358857+1010211614+1011036589+1011830515
2829+1012422361+1012747767+1012998817+1013406174+1013943387+1014369399
2820+1014487195+1014230016+1013688672+1013215555+1013209158+1013641434
2812+1014105223+1014380459+1014607057+1014930198+1015297512+1015579277
2803+1015673820+1015512117+1015063252+1014374396+1013655092+1013255131
2795+1013430027+1014122280+1014996158+1015654499+1015882163+1015793282
2786+1015730320+1015937663+1016336825+1016647839+1016702606+1016554695
2778+1016294650+1015918741+1015438361+1014958114+1014598462+1014457746
2769+1014585337+1014905146+1015309438+1015851847+1016590606+1017291122
2761+1017597139+1017458288+1017151338+1016960252+1016953057+1016968714
2752+1016823534+1016589674+1016520315+1016646973+1016719729+1016635047
2744+1016606597+1016754375+1016817471+1016551830+1016216563+1016321900
2735+1016949526+1017615994+1017852053+1017666098+1017367809+1017194979
2727+1017211636+1017374339+1017553298+1017622590+1017633917+1017794621
2718+1018207441+1018739457+1019170000+1019374611+1019377143+1019343563
2710+1019509997+1019991376+1020619202+1021037685+1021029357+1020720808
2701+1020391138+1020125763+1019793295+1019327373+1018853389+1018537244
2693+1018469085+1018693951+1019179927+1019699284+1019905361+1019673633
2684+1019295991+1019192920+1019449433+1019783034+1019948735+1019962727
2676+1019884773+1019640652+1019218438+1018854655+1018827738+1019155009
2667+1019594813+1019877977+1019890370+1019707213+1019470954+1019245821
2659+1019045008+1018940337+1019043342+1019425514+1020061068+1020719209
2650+1021014899+1020812953+1020461962+1020384808+1020611539+1020909628
2642+1021112107+1021131562+1020880712+1020377213+1019815748+1019479349
2633+1019620065+1020319247+1021337040+1022234704+1022818422+1023348772
2625+1024078803+1024723885+1024733479+1024061480+1023295471+1022970331
2616+1023123840+1023596291+1024304268+1025035099+1025430729+1025444121
2608+1025418337+1025531736+1025626279+1025701434+1026002321+1026433397
2599+1026443725+1025796444+1025064615+1025015844+1025711362+1026557323
2591+1027121120+1027494964+1027850618+1028047167+1027852417+1027362376
2582+1027024178+1027187347+1027697643+1028111129+1028244050+1028221663
2574+1028143843+1028119591+1028397558+1028970683+1029346792+1029247451
2565+1029186354+1029757213+1030648548+1030992942+1030485778+1029527750
2557+1028531478+1027760072+1027527478+1027889128+1028432404+1028764139
2548+1028787126+1028429073+1027763004+1027354847+1027783125+1028915782
2540+1030102740+1030787265+1030730566+1030108270+1029504098+1029437804
2531+1029938172+1030701250+1031388573+1031739696+1031748691+1031662409
2523+1031527756+1031069963+1030322942+1029898795+1030224068+1030914522
2514+1031266112+1031050708+1030618766+1030516160+1031086286+1032163843
2506+1033151787+1033575134+1033411632+1032816454+1031931982+1031105675
2497+1030806520+1031101611+1031576727+1031861424+1031885743+1031645553
2489+1031178232+1030846097+1031257717+1032710650+1034793940+1036560818
2480+1037150000+1036471472+1035326489+1034623508+1034489721+1034414633
2472+1034175043+1034188568+1034874225+1035982764+1036763964+1036781353
2463+1036402713+1036266661+1036384257+1036215425+1035588665+1034937454
2455+1034573205+1034404039+1034427359+1034815127+1035414569+1035766226
2446+1035692937+1035424763+1035167917+1034909604+1034577935+1034126605
2438+1033522765+1032846103+1032393106+1032538753+1033400838+1034642697
2429+1035680677+1036096962+1035897414+1035449349+1035143998+1035041126
2421+1034964438+1034946116+1035210158+1035650962+1035791811+1035417368
2412+1034888284+1034744303+1035165585+1035783816+1036051856+1035949050
2404+1035998821+1036378394+1036562484+1036163789+1035474534+1034889416
2395+1034445948+1034173177+1034299102+1034900743+1035672349+1036008881
2387+1035166717+1032717113+1029066692+1025069545+1020927751+1016029541
2378+1010082625+1003752670+997786498+992068578+985986009+979340710+972567153
2368+966133261+959942823+953787630+948487594+945566138+945338541+946533361
2359+948397848+951771767+957427058+964776337+972568419+979499215+984159700
2349+985405623+982984335+978075731+973182986+970358405+969623044+969896081
2339+970429829+971207831+972575482+974481810+976342766+977842671+979236105
2329+980584834+981541063+982172486+983183083+985129854+987993411+991618247
2319+995895494+1000270949+1003787849+1005922108+1007042106+1007988608
2310+1009418621+1011536090+1014227084+1017232690+1020111705+1022297466
2302+1023579101+1024493022+1025861872+1027906718+1030023987+1031408761
2293+1031776341+1031607509+1031772144+1032774079+1034362864+1035964574
2285+1037237281+1037948257+1037782156+1036822929+1035866633+1035669950
2276+1036127144+1036594199+1036702334+1036506518+1036115951+1035506248
2268+1034695665+1034004611+1033975961+1034810796+1035951249+1036512847
2259+1036148265+1035205961+1034127205+1033193562+1032790403+1033101617
2251+1033542087+1033533759+1033777613+1035439088+1038087041+1039892496
2242+1040101971+1039931273+1040533514+1041283932+1040982112+1039991637
2234+1039874307+1041139152+1042636058+1043161611+1042681631+1042089651
2225+1042311386+1043363491+1044290271+1044344772+1043721277+1042933614
2217+1042383543+1042567233+1043677104+1045108916+1046107519+1046715090
2208+1047518277+1048591637+1049229189+1048983669+1048393422+1047938027
2200+1047118383+1045673712+1044534125+1044365626+1044421126+1043724542
2191+1042190658+1040231094+1038274462+1036751838+1036073110+1036710196
2183+1038915413+1041931612+1044382483+1045794040+1046666186+1047067013
2174+1046470236+1045087528+1044146224+1044480890+1045510876+1045779582
2166+1044266285+1041468356+1039722198+1041564831+1046474434+1050374639
2157+1050568856+1048943893+1048245643+1049025711+1050342258+1050917382
2149+1050248847+1049406883+1049664663+1050474246+1050251512+1048464512
2140+1045696298+1042800627+1040949332+1041271673+1043657116+1046738676
2132+1049256906+1050734624+1051142647+1050635150+1049434933+1047786984
2123+1046260828+1045736941+1046455778+1047462311+1047739145+1047486630
2115+1047471105+1047562318+1046873995+1045196930+1043451505+1042586222
2106+1042536385+1042500140+1042051940+1041605407+1041659775+1042056338
2098+1042354160+1042509134+1042698821+1042847132+1042802226+1042676568
2089+1042703818+1043012434+1043668176+1044585428+1045286077+1045198196
2081+1044500146+1044206055+1044953342+1046218120+1047270958+1048201403
2072+1049191079+1049704439+1049425605+1049092338+1049459718+1050155170
2064+1050153438+1048888726+1046656725+1044377086+1043085857+1043323182
2055+1044685835+1045714154+1044594023+1040910888+1036839452+1035781217
2047+1039107698+1044729942+1049594771+1052918987+1055850503+1058257666
2038+1057913139+1053888608+1048702837+1045310462+1043735935+1042649917
2030+1042237097+1043101914+1044360096+1045164216+1046464573+1049235985
2021+1052333470+1053811254+1053273975+1051810515+1050877272+1051696450
2013+1054019663+1055508574+1054445076+1052625695+1053004402+1055218481
2004+1056359200+1055500379+1054757289+1056170379+1058998424+1060393725
1996+1058750039+1055590658+1053556006+1053561870+1054789737+1056362265
1987+1057570676+1057367531+1055133998+1051681792+1048916176+1048715229
1979+1051962624+1057688273+1062931943+1064930883+1063829740+1062001565
1970+1060887830+1059934799+1058632842+1057791811+1058000553+1058496457
1962+1058472471+1058239411+1058469340+1058941392+1058586737+1056596258
1953+1053496509+1051279965+1051959426+1055442147+1059269529+1061176058
1945+1061319439+1061201109+1061397858+1061531645+1061638448+1062111433
1936+1062778901+1062891567+1061892563+1059993164+1058138004+1057394182
1928+1058075042+1059418507+1060299381+1060151336+1059207832+1058061917
1919+1057186572+1056794873+1056716853+1056408970+1055555213+1054694393
1911+1054839374+1056069239+1057097292+1057066844+1056699263+1056798804
1902+1056904341+1056225213+1054959702+1053924120+1053458864+1053243859
1894+1053002803+1052966758+1053347331+1053822847+1054244196+1055346937
1885+1057599859+1060000892+1061046535+1060604732+1059886228+1059812338
1877+1060332961+1061126554+1062227097+1063918620+1066261222+1068436723
1868+1068772723+1066845806+1064535919+1063469955+1063513795+1063754052
1860+1063643585+1063182260+1062714473+1062696417+1063224901+1063957597
1851+1064660844+1065427520+1066394342+1067592894+1068774255+1069227118
1843+1068594096+1067682640+1067337313+1067500682+1067463637+1066655653
1834+1065518332+1065176136+1066092123+1067505812+1068495222+1069122714
1826+1069591301+1069470106+1068545991+1067385351+1066595622+1066329781
1817+1066493750+1066991719+1067760260+1068653527+1069263363+1069044894
1809+1067975732+1066767187+1066080063+1066022564+1066435451+1067055281
1800+1067373025+1067095191+1066657985+1066657119+1067201327+1067739939
1792+1067087262+1064807690+1062328303+1061002694+1060732656+1060737120
1783+1060815006+1061296785+1062015223+1062402126+1062534313+1063225368
1775+1065094785+1067763259+1069770327+1070129579+1069509749+1068786648
1766+1068296873+1068322391+1069093198+1070320266+1071215065+1071444461
1758+1071313806+1071023179+1070804910+1071254041+1072585513+1073741823
1749+1073171030+1070924705+1068100591+1065148886+1062050469+1058478535
1741+1053670072+1047494691+1041303720+1036125878+1030964892+1023690635
1732+1014525439+1005712633+997438839+989083494+980735544+972166659+962590176
1723+952197913+941886868+930799287+915713159+894631544+871186207+849950017
1713+832114597+817364736+804510942+791009269+773085568+749232074+723722436
1703+699898991+674419934+646134486+624776769+616537354+618332749+626628330
1693+639568006+657159771+679342329+702941708+725139990+749026264+778187190
1683+804827820+821801554+833450533+844013161+854974817+866926150+878850565
1673+888929481+897761476+907134547+916129444+922480519+927022541+931807951
1663+937223252+941972017+945399971+948433227+952112697+957111713+963831501
1653+970165454+972109560+971741579+971953320+972346019+970898749+967661415
1643+964695586+962900924+962318804+962858082+963622426+961847819+955631996
1633+948033199+941749483+936422597+930769305+923783741+915060815+903611450
1623+887720670+868603015+850240510+833517626+816328687+799475815+788136850
1613+784090932+785335989+790153913+797127949+804765790+812195022+819591606
1604+827674848+836672676+846063071+855568330+865612067+876502633+887784698
1594+898518490+908073920+916570914+924399574+931427645+936889784+939714565
1584+938666057+932953334+923305094+911189127+896310475+877235795+857582261
1574+844184992+837423894+833991010+831023115+827174679+823208914+820661168
1564+820603536+823604944+831403888+848430324+871858805+887483211+896277695
1554+904485328+913246832+921597780+928531840+933497809+937051155+940331063
1544+943601111+945798533+944712515+938193406+929216099+922114671+917062820
1534+913332181+911714813+913823021+920235060+930794223+944181831+957008175
1524+966148785+969944985+966653350+956650455+942722702+927060452+913481958
1514+906950390+908882304+917282223+929594939+944649619+961094935+972280391
1504+975268541+974500666+972112958+967784075+961008453+952535844+945152918
1494+941797988+943407160+949938995+960403481+971147134+978523864+982982602
1485+986478116+989930655+993426768+996812413+1000094854+1003489694+1007131986
1475+1010807192+1013689272+1014656961+1013925597+1012857568+1012075768
1466+1010776144+1007307215+1001475696+994994632+988542683+980198997+966550611
1456+949755837+937923900+932562368+930946332+930684355+929398923+924546353
1446+915036230+901689131+884875701+864286992+841138744+818191842+799393131
1436+791092352+796201303+808956955+822993176+834328009+839790415+839182112
1426+835171506+829584174+822648182+814426756+805222584+796344284+791636361
1417+794319226+803783177+818361874+836432753+855694388+873712165+889336638
1407+903102820+915745607+926900081+936421730+945439481+954673302+963169630
1397+969704795+974310379+977656648+980351506+982963414+985935440+989241200
1387+992134805+993923671+994894691+995661300+996412252+997099775+997714475
1377+998189458+998321512+998016561+997687691+998011431+999073197+1000238968
1367+1001035692+1001596157+1001635934+999758055+994985370+988277442+981110853
1357+974206575+968157252+964027718+962871608+964882474+969220085+974509927
1347+979522335+983627351+986824709+989324683+990844842+990192232+985911254
1337+977586290+965808188+951078048+933639991+914227713+894680048+877598312
1327+864984309+856948439+851707568+846756323+839992295+830079745+816565679
1317+800017958+781494282+761758930+741500423+721997799+704993949+692191259
1307+685103223+684684140+690522122+700550802+711821740+721753012+728997354
1298+733639249+736926354+740609888+746030519+753452622+761985595+770123670
1288+776749381+781905103+786504824+791337140+796583474+802191194+808241582
1278+814633766+820561427+824637927+825696695+823633060+819728058+816084367
1268+814367325+814873689+816654826+818335090+818902484+818112622+816432625
1258+814511639+812505969+809779197+805089130+796984835+784210194+766152174
1248+743213534+716747999+688616526+660824583+635319742+613758080+597330020
1238+586642533+581469222+580696616+582919223+587201400+593233199+601001762
1228+610526676+621756972+634455991+648095249+661935986+675342383+688052063
1218+700159302+711930808+723650879+735446104+747132395+758340037+768856560
1208+778743657+788080017+796649102+803795969+808451656+809475712+806496157
1198+800724869+794750768+791245194+791733303+796322230+804118976+813780475
1188+823996310+833833371+842861515+851039900+858416363+864944799+870678443
1179+875991338+881314694+886682223+891778580+896403553+900633228+904517709
1169+907874972+910472421+912207852+912985388+912578431+910787766+907677156
1159+903575072+898936441+894259699+890039952+886721199+884688280+884272395
1149+885721596+889131694+894295944+900567600+907022414+912933019+918033041
1139+922282504+925565678+927723723+928706936+928487067+926797809+923032323
1129+916413741+906172188+891498548+871575308+846158347+816485061+785589437
1119+757350695+734709344+718528603+708133142+702762481+702291762+706758829
1109+715650921+727752897+741444790+755106634+767444203+777657239+785480969
1099+791189828+795487795+799233826+803128234+807558256+812667540+818472608
1089+824808625+831261840+837380054+842996834+848259293+853353852+858275447
1079+862895422+867247957+871592564+876015257+880126803+883458214+886128553
1069+888815483+891938885+895130846+897777133+899876213+901933652+904186307
1060+906466945+908688086+910898833+912962668+914628140+915841616+916742878
1050+917460250+918036572+918501162+919003528+919884869+921501570+923927389
1040+926886956+929981908+932920887+935595091+938035767+940275563+942248452
1030+943945639+945608513+947499717+949580342+951715934+953982314+956381082
1020+958559848+960266363+961815905+963719901+966038384+968316624+969888486
1010+969898946+967072633+959527404+944710049+920353989+887805019+855202548
1000+834441008+831959490+843241688+857695393+867317982+869648125+865359751
990+856181364+844723870+834396635+828491094+828842151+835039251+844983915
980+856247924+867012298+876312680+883938727+890146621+895367238+900021660
970+904372462+908516655+912556310+916602362+920578388+924223013+927325627
960+929870974+931981981+933745128+935098387+935954876+936345643+936339380
950+936021569+935716352+935945348+936929028+938337254+939703105+940888797
941+941984143+942927980+943531020+943869351+944328477+945115474+946016736
931+946796404+947475998+947995355+947987026+947217886+945894342+944262916
921+942359719+940496698+939513751+940043702+941793191+943841301+945375919
911+945926590+945234803+943177164+939618022+934198991+926447884+916025439
901+902544887+885284924+863882300+839999290+818266197+804851206+804059012
891+815506312+834380711+854451596+871107120+882703398+890391608+896753411
881+903773553+911603946+919094341+925228346+929941132+933803493+937186274
871+939909448+941686321+942647414+943279637+944050310+945138993+946281045
861+946901474+946681273+945960170+945401303+945409698+946026997+947103554
851+948253334+948858173+948503252+947329219+945689864+943551075+940368641
841+935516404+929070452+922553809+918391494+917609827+918279028+917466446
832+914913836+913596956+916180014+921862555+927433363+930897362+933162143
822+936326121+941356851+947707260+954311251+960321863+965276505+969139066
812+972274461+975239225+978428921+981721488+984365244+985112398+982149500
802+972965316+955432782+930563627+904477466+886048934+880889614+887469953
792+899286499+910200050+917627816+921963761+924463202+925926662+926664555
782+926890553+926539230+924531562+918226659+903773687+878312153+843571358
772+806592166+774145336+745969955+715818221+679929978+642921870+614790197
762+603016892+607661986+623343958+644732723+668370878+689586414+701793860
752+702341200+697329258+697055022+706795874+723881941+742679986+759817889
742+774711798+787535076+798036674+805713158+810185088+811231197+809174825
732+805932693+805099457+809673594+819502459+831615695+842836930+851522412
722+857362659+860649630+861976304+862053525+861352810+859961774+858015336
713+856221273+855563732+856378446+858154053+860360269+862897021+865466954
703+867198720+867431181+866479350+865250083+864374673+863856982+863206837
693+861751705+859120942+855660941+852316338+850042295+849323658+850102926
683+851911046+854046238+855908060+857319684+858380917+858813992+857519432
673+853169229+845470824+836421293+831804449+836437350+844578823+849324990
663+850450985+850135973+849778253+849578972+849474434+849592830+849945819
653+850192272+849889720+849137502+848697165+849067810+849883390+850640205
643+851338721+851942028+851959684+851136442+850038364+849471369+849603357
633+849923366+849889919+849467172+849071408+849017240+849099325+848872860
623+848149092+846946010+845389206+844106172+844093313+845588287+847615011
613+849013909+849260895+848357234+846780576+845441975+845050808+845538317
603+846182932+846151351+845146218+843711608+842596273+841836327+840878033
594+839495191+838279650+838202030+839624314+841811942+843622194+844591616
584+845088053+845448504+845523193+845119434+844243490+842898426+841441963
574+841021414+842664166+845836406+848513008+848998585+847313391+844157875
564+838981098+830205337+817616852+803660117+791829646+784452849+782140296
554+784210327+788919516+793849440+797011752+798089309+798405920+799330635
544+801029953+803066404+805358636+807730620+809364845+809695914+809276164
534+809092474+809365577+809248514+807525876+803579565+797967848+792552014
524+789706047+790481517+793660219+796920207+799121892+801233499+804333581
514+807769797+810272836+811707579+812837571+813926122+814734706+815758894
504+817538632+818553493+816413037+811839034+808187481+806981401+806636073
494+804809031+800716407+795592066+791699990+790606576+792100217+794689672
484+797082776+799367546+802455769+806352043+809639547+811015859+810958693
475+811103740+812245791+813755490+814808462+815100221+814465200+812963296
465+810694184+806943024+800654711+791872420+781586494+771044720+762396949
455+758376149+760449045+767566729+776574419+785177350+793710256+802987651
445+812086420+819146938+823518595+826201261+827947685+828047892+825632733
435+821176060+815066841+805531666+790729369+772602657+755900094+743555197
425+735343365+730196305+728120344+730500523+738834881+750459742+759383348
415+763506353+763686979+761607820+759479757+758298929+757532519+757481283
405+759702557+764572717+770220479+773790547+773148731+770104148+770636297
395+775360477+778840466+778809152+776847389+773553955+768057503+761617348
385+758498276+761739408+768972490+775135744+777281597+775000758+768410826
375+758401068+750401310
##END=
