##TITLE=NiW-X11702
##JCAMP-DX=4.24
##DATA TYPE=INFRARED SPECTRUM
##DATE=3/1/2019
##SAMPLING PROCEDURE=Diamant-ATR
##ORIGIN=Angelika Moesle
##XUNITS=1/CM
##YUNITS=TRANSMITTANCE
##RESOLUTION=4
##FIRSTX=3997.453
##LASTX=373.96442
##DELTAX=-1.4165319
##MAXY=0.97917563
##MINY=0.76853442
##XFACTOR=1
##YFACTOR=9.1192837e-010
##NPOINTS=2559
##FIRSTY=0.95332247
##XYDATA=(X++(Y..Y))
3997+1045391836+1045751126+1046038977+1046345063+1046760106+1046914946
3989+1046495459+1045976884+1046069762+1046636769+1046880828+1046480818
3980+1045943223+1045805441+1045984335+1046068454+1045947667+1045911130
3972+1046241139+1046923116+1047708561+1048271058+1048351649+1047956345
3963+1047457639+1047329205+1047653069+1048022490+1048028634+1047654115
3955+1047144494+1046731216+1046560558+1046686313+1046999327+1047237111
3946+1047223908+1047109918+1047253647+1047772941+1048280536+1048306876
3938+1047824250+1047207960+1046888540+1047076257+1047593590+1047984450
3929+1048023732+1047940658+1048018372+1048211384+1048217201+1047848041
3921+1047243582+1046752066+1046678535+1046992660+1047298485+1047282864
3912+1047064754+1046953901+1046959915+1046719516+1046015054+1045231636
3904+1045158497+1046111201+1047440842+1048278313+1048380865+1048079027
3895+1047733267+1047533066+1047632219+1048000398+1048146284+1047690456
3887+1047012988+1046799192+1046943247+1046659384+1045901980+1045439158
3878+1045595698+1045902699+1045976884+1045781715+1045496872+1045568507
3870+1046336108+1047347702+1047873663+1047926867+1047986149+1048249032
3861+1048436030+1048169356+1047258092+1045785506+1044330633+1044228409
3853+1046329768+1048604596+1049226768+1048844537+1048356289+1048052752
3844+1047924383+1047804772+1047345741+1046507877+1045995969+1046441143
3836+1047282995+1047571695+1047162273+1046478857+1045994008+1046054010
3827+1046700758+1047419599+1047524831+1047113448+1047089591+1047812616
3819+1048464527+1048783489+1049307489+1049784037+1049394616+1048289882
3810+1047322015+1047223843+1048195436+1049343177+1049373308+1048437729
3802+1047913468+1048459690+1049203173+1049621615+1050007245+1050207708
3793+1049758938+1048855779+1048163605+1048040203+1048316223+1048622636
3785+1048707409+1048541588+1048302824+1048248313+1048493874+1048866956
3776+1049121864+1049178401+1049033626+1048767868+1048658846+1048877609
3768+1049080817+1048884799+1048476684+1048262823+1048297072+1048341779
3759+1048159422+1047622676+1046748667+1045639359+1044480506+1043822712
3751+1044480964+1046107083+1047142141+1047278419+1047677449+1049040097
3742+1050060515+1049645276+1048445572+1047492804+1047314629+1047789543
3734+1048417075+1048748979+1048681526+1048476488+1048460998+1048750221
3725+1049213435+1049604229+1049736389+1049542789+1049086700+1048576229
3717+1048227789+1048082426+1048073080+1048243149+1048709435+1049321673
3708+1049710114+1049703316+1049406642+1049106831+1049110033+1049442329
3700+1049815607+1049992474+1049891164+1049535665+1049182454+1049209252
3691+1049808417+1050929752+1052255144+1053122748+1053026340+1052012589
3683+1050532814+1049222193+1048527078+1048408578+1048738063+1049671224
3674+1050875306+1051398391+1051138907+1050738244+1050519153+1050341829
3666+1050256663+1050411308+1050598894+1050370196+1049626125+1048921793
3657+1049011534+1049835869+1050251957+1049552920+1048287595+1047580191
3649+1048210338+1049492657+1050083718+1049840313+1049520109+1049703120
3640+1050243395+1050551638+1050336404+1049800966+1049261998+1048856498
3632+1048662114+1048952121+1049926198+1050915373+1051079756+1050718178
3623+1050460525+1050474250+1050546997+1050505362+1050501441+1050786676
3615+1051337540+1051837029+1051923764+1051521401+1050909817+1050456015
3606+1050260454+1050154765+1050087182+1050194309+1050485231+1050782363
3598+1051025114+1051306886+1051634475+1051919123+1052055466+1051880429
3589+1051321134+1050722034+1050665562+1051080409+1051253485+1050801971
3581+1049982670+1049346641+1049252782+1049631354+1050101169+1050287710
3572+1050124372+1049892929+1049985611+1050605038+1051395646+1051527741
3564+1050768506+1049804691+1049312784+1049279972+1049273894+1049196506
3555+1049406511+1050121235+1050976289+1051301983+1050861580+1050081365
3547+1049543508+1049485075+1049732010+1049964434+1050000448+1049915805
3538+1049909138+1050019272+1050054763+1049836522+1049379452+1048871792
3530+1048602570+1048796431+1049389714+1050069469+1050582815+1050924523
3521+1051198648+1051318847+1051011192+1050246075+1049487102+1049237880
3513+1049512135+1049964826+1050303396+1050378366+1050145942+1049774429
3504+1049648870+1050083391+1050954066+1051711732+1051896966+1051552251
3496+1051057860+1050647784+1050313070+1050127444+1050264376+1050672491
3488+1051082632+1051299304+1051227995+1050830599+1050347123+1050236075
3479+1050613143+1051120737+1051473687+1051704085+1051834742+1051741079
3471+1051435712+1051161326+1051108972+1051279172+1051616370+1051978471
3462+1052007099+1051511596+1050984982+1051147601+1051900822+1052321813
3454+1051837422+1050881973+1050261631+1050303723+1050723146+1051023414
3445+1050941125+1050557717+1050086594+1049732925+1049695996+1050059861
3437+1050661641+1051212896+1051523165+1051510551+1051114201+1050421831
3428+1049859333+1049979009+1050877921+1051954483+1052449528+1052184554
3420+1051634737+1051325579+1051333226+1051391855+1051327278+1051267277
3411+1051393031+1051599965+1051594736+1051282244+1050868313+1050586868
3403+1050484185+1050473401+1050452681+1050399216+1050453923+1050817984
3394+1051424470+1051874808+1051876965+1051571925+1051313487+1051317409
3386+1051528656+1051670097+1051561467+1051445974+1051671404+1052080369
3377+1052190960+1051920692+1051637351+1051603625+1051768073+1051953830
3369+1051956444+1051644345+1051162241+1050856548+1050899359+1051125378
3360+1051286493+1051268061+1051012564+1050514513+1050036070+1050009468
3352+1050511702+1051127992+1051484276+1051595389+1051561532+1051330938
3343+1050986355+1050926288+1051421006+1052135272+1052435868+1052146776
3335+1051701667+1051549506+1051743955+1052104552+1052442927+1052619925
3326+1052608356+1052477241+1052261550+1051967425+1051680359+1051492119
3318+1051421137+1051501204+1051771015+1052106709+1052291354+1052276779
3309+1052160371+1051950954+1051594801+1051213550+1051065115+1051205380
3301+1051368325+1051311265+1051111325+1050977792+1050985701+1051138450
3292+1051448784+1051813042+1052075859+1052275472+1052546459+1052817642
3284+1052901762+1052788818+1052601362+1052368938+1052044943+1051672385
3275+1051421464+1051440091+1051638593+1051662385+1051244662+1050604842
3267+1050334378+1050770598+1051586958+1052187430+1052401749+1052503974
3258+1052635546+1052622278+1052402142+1052225144+1052293577+1052486457
3250+1052576394+1052554237+1052580251+1052652017+1052496654+1051896312
3241+1050992433+1050159602+1049697499+1049706061+1050132216+1050868509
3233+1051811212+1052772412+1053401840+1053426677+1052993137+1052519007
3224+1052203052+1051933568+1051680816+1051645391+1051920888+1052304492
3216+1052583519+1052764569+1052909540+1052983463+1052961110+1052893592
3207+1052805812+1052692541+1052621755+1052695025+1052920194+1053223600
3199+1053536614+1053765770+1053757600+1053409095+1052823786+1052326780
3190+1052276060+1052795811+1053654330+1054407420+1054678081+1054383171
3182+1053772633+1053191377+1052813263+1052671691+1052814766+1053180004
3173+1053457004+1053396872+1053139676+1052968888+1052926403+1052886337
3165+1052814374+1052792347+1052918233+1053214842+1053546549+1053689755
3156+1053575700+1053373408+1053298634+1053426808+1053695834+1053979174
3148+1054138459+1054108981+1053969435+1053862962+1053818386+1053718514
3139+1053487201+1053200135+1052970064+1052816139+1052725025+1052738882
3131+1052885160+1053093074+1053265170+1053373930+1053407003+1053261967
3122+1052732803+1051588200+1049651354+1046778995+1042811903+1037884591
3114+1033045516+1030162372+1030582187+1033900570+1038389505+1042486208
3105+1045581710+1047722679+1049139381+1050113261+1050897725+1051533100
3097+1051823892+1051549506+1050630463+1049172323+1047535484+1046273427
3088+1045772565+1045982505+1046601409+1047399010+1048265503+1049123106
3080+1049929400+1050702949+1051428457+1051932261+1051941934+1051314141
3071+1050137314+1048657669+1047282995+1046538597+1046667685+1047309139
3063+1047848630+1048031379+1048052883+1048214390+1048636884+1049214546
3054+1049779397+1050286599+1050744322+1051044395+1051042369+1050721381
3046+1050143196+1049346575+1048372695+1047256915+1045989956+1044577045
3037+1043060014+1041439581+1039776664+1038429245+1037958253+1038654348
3029+1040263343+1042213783+1044054483+1045696746+1047258157+1048695187
3020+1049733644+1050205028+1050257121+1050145746+1049984107+1049768220
3012+1049524357+1049348144+1049305529+1049313306+1049171146+1048753554
3003+1048102688+1047272929+1046170745+1044558221+1042077571+1038288195
2995+1032930873+1026261164+1019044579+1012352190+1007424486+1005269923
2986+1005913860+1008137118+1010131939+1010347304+1007921492+1002897641
2978+996359374+990246804+986738481+987313463+991919133+998941987+1006213672
2968+1012265718+1016813413+1020285983+1023043698+1025077475+1026328617
2959+1026959678+1027138768+1026830133+1026029590+1025005185+1024102156
2951+1023411289+1022779117+1022099427+1021460652+1020975869+1020570500
2942+1020051859+1019362430+1018664504+1018180440+1018013769+1018115733
2934+1018349268+1018608098+1018979153+1019728387+1020926979+1022186161
2925+1023039319+1023495605+1023929211+1024585698+1025449445+1026411429
2917+1027378643+1028351216+1029439217+1030682189+1031904573+1032860871
2908+1033463827+1033816581+1034068744+1034317051+1034621307+1034996218
2900+1035365247+1035684732+1036113697+1036792472+1037481443+1037734652
2891+1037397585+1036685999+1035901992+1035275964+1034900922+1034645425
2883+1034258487+1033639256+1032909565+1032226868+1031602147+1030948732
2874+1030349174+1030161457+1030683300+1031787968+1033125714+1034577515
2866+1036222392+1037950867+1039435675+1040469296+1041095651+1041460562
2857+1041705993+1041950378+1042230973+1042510196+1042786870+1043143480
2849+1043663819+1044317431+1044937642+1045321769+1045383797+1045225558
2840+1045108561+1045352946+1046130482+1047264563+1048327073+1049020750
2832+1049407557+1049735212+1050128621+1050493009+1050654778+1050556671
2823+1050306861+1050048423+1049799070+1049476971+1049085654+1048780679
2815+1048699239+1048815255+1049018266+1049232063+1049427362+1049637171
2806+1049963127+1050431896+1050868770+1051055899+1051002237+1050944262
2798+1051076095+1051360155+1051588396+1051577219+1051320938+1051020539
2789+1050925700+1051078775+1051256688+1051251394+1051133352+1051123678
2781+1051281460+1051452053+1051502707+1051477936+1051472118+1051460484
2772+1051347475+1051143679+1050978511+1050988708+1051253224+1051741668
2764+1052266321+1052601820+1052688358+1052607506+1052412142+1052133050
2755+1051864808+1051662842+1051447739+1051173484+1050996224+1051108580
2747+1051453948+1051724804+1051674607+1051401071+1051262048+1051470158
2738+1051833369+1051962196+1051679313+1051188190+1050878117+1050953021
2730+1051244008+1051462510+1051583951+1051790296+1052101219+1052314754
2721+1052290309+1052113115+1052031544+1052263576+1052732673+1053077845
2713+1053097976+1052985163+1052929867+1052840257+1052692868+1052737967
2704+1053065949+1053358701+1053326021+1053054838+1052763719+1052549792
2696+1052486000+1052616983+1052774242+1052699665+1052418155+1052251027
2687+1052427371+1052862611+1053286281+1053451383+1053289092+1052978300
2679+1052797119+1052851891+1053020915+1053154644+1053224057+1053269353
2670+1053290726+1053229744+1053067256+1052900455+1052847381+1052893003
2662+1052922220+1052857970+1052690319+1052465280+1052290570+1052259197
2653+1052384755+1052663259+1053051243+1053359616+1053398179+1053203795
2645+1052920586+1052599794+1052301943+1052170110+1052256909+1052489203
2636+1052796269+1053071897+1053142160+1052960129+1052681364+1052448090
2628+1052286452+1052279720+1052588944+1053139872+1053496090+1053314517
2619+1052808557+1052498811+1052666658+1053282163+1054169114+1054967042
2611+1055279533+1055117961+1054894164+1054864229+1054901485+1054856386
2602+1054798084+1054808541+1054803443+1054711219+1054636903+1054665858
2594+1054685532+1054625792+1054680956+1055077110+1055748173+1056366358
2585+1056633881+1056554532+1056426490+1056482897+1056657868+1056819506
2577+1056968726+1057097945+1057150037+1057149776+1057085526+1056791074
2568+1056238773+1055752356+1055670916+1055997656+1056531002+1057108795
2560+1057572728+1057739725+1057630442+1057564950+1057788550+1058174834
2551+1058548569+1059017404+1059644021+1060102137+1060032397+1059501142
2543+1058848184+1058339152+1058145683+1058370068+1058889689+1059331726
2534+1059361465+1059003417+1058620532+1058540072+1058735175+1058937206
2526+1059016555+1059116426+1059351465+1059503037+1059251920+1058728443
2517+1058521771+1058984070+1059808208+1060455741+1060696139+1060566005
2509+1060133184+1059503168+1058859100+1058384709+1058208953+1058390918
2500+1058863610+1059436761+1059863896+1059941414+1059656440+1059288326
2492+1059242639+1059689970+1060391948+1060907451+1060985231+1060752284
2483+1060506069+1060414040+1060505480+1060801370+1061238636+1061585181
2475+1061652829+1061491583+1061207786+1060803135+1060408681+1060380837
2466+1060821044+1061258898+1061211969+1060845946+1060638556+1060624111
2458+1060454237+1060040567+1059665590+1059530816+1059529508+1059453428
2449+1059259763+1059127930+1059280352+1059758795+1060399269+1060983532
2441+1061352626+1061466223+1061426811+1061380862+1061371580+1061374326
2432+1061431582+1061619757+1061886691+1062059245+1062085585+1062169247
2424+1062474549+1062737301+1062472000+1061654071+1060860718+1060606463
2415+1060847515+1061219028+1061445046+1061463021+1061415568+1061539820
2407+1061901463+1062297094+1062495988+1062445856+1062243367+1062050094
2398+1062010551+1062108919+1062143887+1061928849+1061472171+1060930654
2390+1060460316+1060149066+1060052136+1060202074+1060537115+1060875228
2381+1061063534+1061195824+1061595312+1062433502+1063343786+1063673991
2373+1063306792+1062911096+1063065217+1063503594+1063608564+1063281693
2364+1062984300+1063173717+1063821249+1064403028+1064540352+1064518260
2356+1064740161+1064994612+1064838660+1064327929+1063839877+1063552288
2347+1063401304+1063279863+1063174436+1063122408+1063054237+1062877304
2339+1062705078+1062699195+1062763184+1062761027+1062877958+1063302217
2330+1063724449+1063672357+1063172214+1062638017+1062348271+1062312846
2322+1062397423+1062442914+1062384285+1062261014+1062111926+1062012708
2313+1062144672+1062610435+1063292478+1064020797+1064647740+1064925394
2305+1064697284+1064236881+1063998966+1064038248+1064021646+1063787458
2296+1063563923+1063601048+1063823210+1063962560+1063919291+1063822099
2288+1063782359+1063803798+1063869878+1063840662+1063451175+1062840310
2279+1062777955+1063726541+1064987095+1065499003+1065198604+1064911342
2271+1065231807+1066086404+1067027081+1067555329+1067491210+1067163293
2262+1066918451+1066647594+1066223008+1066008493+1066408830+1067267413
2254+1068101813+1068561825+1068498947+1068118219+1068045015+1068619277
2245+1069195631+1068769281+1067234537+1065460114+1064201324+1063489738
2237+1063153847+1063380715+1064299823+1065244879+1065028273+1062811355
2228+1057574623+1046393953+1025105122+993093737+957408209+929855170+918654041
2218+923465991+938395578+957652071+977415569+994854173+1008194505+1017520228
2208+1024183923+1029424053+1033747102+1037215620+1040034121+1042646278
2200+1044996859+1046229504+1045887796+1045031958+1045377784+1047580453
2191+1050823017+1053822765+1055869810+1057008988+1057577891+1057720248
2183+1057232392+1055971511+1054567424+1054242580+1055432871+1057038924
2174+1057638416+1056945719+1055589476+1054240357+1053429945+1053416938
2166+1053945971+1054742984+1056068769+1058108558+1060366980+1062309512
2157+1063830531+1064692970+1064537149+1063688305+1063099990+1063347381
2149+1064049752+1064326621+1063614970+1062062513+1060373059+1059356236
2140+1059411401+1060235997+1061174125+1061962837+1062833970+1063808373
2132+1064439042+1064474991+1064324922+1064601138+1065361157+1065949276
2123+1065671099+1064599373+1063489280+1062895736+1062734294+1062681090
2115+1062545793+1062211928+1061635770+1060948106+1060369660+1060144295
2106+1060522148+1061416287+1062173823+1062230948+1061826624+1061523806
2098+1061414980+1061403411+1061632175+1061915581+1061540343+1060382602
2089+1059418002+1059506371+1060396131+1061397986+1062379906+1063602878
2081+1064959840+1065867771+1065945616+1065493578+1065109517+1065066705
2072+1065244553+1065377105+1065344163+1065465800+1066127516+1066834984
2064+1066536676+1065287168+1064413748+1064705781+1065649007+1066563278
2055+1067301336+1067699189+1067495197+1067066820+1067374802+1068777190
2047+1070430629+1071245617+1070732206+1068906474+1066690994+1065975224
2038+1067580559+1069742573+1070222650+1069040595+1067605461+1066469420
2030+1065477957+1064716239+1064368975+1064760684+1066504453+1069446879
2021+1071949295+1072531662+1071732557+1071237316+1071669353+1072190869
2013+1071771709+1070136570+1068058414+1067110808+1068318224+1070753775
2004+1072328258+1072048121+1070762402+1069820484+1069562699+1069341452
1996+1068741633+1068054361+1067463562+1066673346+1065754696+1065480702
1987+1066324906+1067687881+1068379141+1067762655+1066480008+1065962871
1979+1066939758+1068343780+1068179201+1066045488+1064117923+1064743756
1970+1067692261+1070728545+1072373096+1072855592+1072679248+1071902235
1962+1070821816+1070155132+1070396642+1071289540+1071904196+1071420785
1953+1070047940+1068904056+1068808302+1069362172+1069361910+1068115605
1945+1066222420+1064894805+1064683493+1065165596+1065772801+1066299612
1936+1066724132+1067143358+1067796446+1068749869+1069607080+1069872969
1928+1069664009+1069684729+1070284809+1070858353+1070604882+1069717540
1919+1069116871+1069117982+1069041706+1068357767+1067479053+1067090220
1911+1067389377+1068077368+1068716665+1069043863+1069094126+1069010137
1902+1068804380+1068527510+1068443848+1068696599+1069083341+1069413219
1894+1069755122+1070159381+1070425466+1070249579+1069591066+1068881310
1885+1068619669+1068825295+1069111708+1069206743+1069087197+1068747320
1877+1068243582+1067847493+1067838670+1068198744+1068633199+1068825818
1868+1068683854+1068364304+1068029916+1067746903+1067549839+1067367743
1860+1067002243+1066325429+1065466258+1064792646+1064686500+1065188734
1851+1065913001+1066478897+1066884332+1067351010+1068052466+1068992228
1843+1069841987+1070116896+1069681264+1068827975+1068026583+1067616899
1834+1067668012+1068112206+1068813073+1069451978+1069661133+1069440474
1826+1069075628+1068737385+1068407246+1068056845+1067739451+1067518073
1817+1067377089+1067238524+1067067605+1066905640+1066825899+1066880803
1809+1067027865+1067093422+1066873286+1066298827+1065507893+1064740030
1800+1064123087+1063620787+1063282739+1063350126+1063988443+1065005004
1792+1065848555+1066109345+1065958361+1065782278+1065807050+1066063854
1783+1066425040+1066691255+1066740864+1066636352+1066509551+1066352358
1775+1066116208+1065951956+1066026075+1066056599+1065602928+1064633753
1766+1063400716+1062109442+1060836012+1059685068+1058913807+1058793739
1758+1059435519+1060676596+1062093102+1063387971+1064555254+1065565999
1749+1066213074+1066387784+1066241832+1066049409+1066056076+1066342096
1741+1066744263+1066939954+1066757009+1066406216+1066316802+1066659817
1732+1066937078+1066806814+1066606351+1066631973+1066812892+1066998779
1724+1067184405+1067383168+1067538205+1067627292+1067716510+1067929260
1715+1068357375+1068931376+1069439951+1069699304+1069723618+1069718716
1707+1069814536+1069841399+1069603354+1069289294+1069273869+1069557340
1698+1069713357+1069744207+1069967807+1070255527+1070312587+1070198728
1690+1070099183+1070061993+1070114020+1070408015+1070941949+1071272415
1681+1071221826+1071041952+1070855673+1070667563+1070536907+1070530697
1673+1070627301+1070856065+1071317906+1071831122+1071959360+1071656804
1664+1071287840+1071205681+1071388562+1071524448+1071499022+1071431766
1656+1071497780+1071937072+1072695588+1072915855+1072412313+1071812625
1647+1071620202+1071940994+1072314467+1072375776+1072169366+1071869097
1639+1071666673+1071762689+1072263159+1072879253+1073171809+1073177103
1630+1073188672+1073391095+1073671102+1073741823+1073557243+1073357630
1622+1073284426+1073244490+1073225732+1073342859+1073508288+1073400377
1613+1072825983+1071460002+1068694965+1064604014+1060878758+1059650427
1605+1061345305+1064496756+1067358331+1069198050+1070199513+1070743252
1596+1071119470+1071545428+1072071193+1072501008+1072529113+1072035767
1588+1071311697+1070870052+1070953126+1071372156+1071814063+1072097795
1579+1072192896+1072223419+1072420548+1072772126+1072954614+1072875200
1571+1072661861+1072371789+1071978250+1071532095+1071141105+1070837306
1562+1070589326+1070466251+1070758938+1071464119+1071861580+1071806154
1554+1071575952+1071267252+1070793645+1069965977+1068664246+1066979171
1545+1065013044+1062602918+1058944527+1051317343+1035937091+1015066245
1537+993906699+973921365+958122213+953279152+961053463+975448527+991645597
1527+1007320039+1020186046+1029313920+1035953105+1041170424+1044650641
1519+1046431209+1047508556+1048590870+1049724232+1050878182+1052070042
1510+1053158435+1054146499+1055244369+1055782683+1054794358+1052083637
1502+1046623305+1036409979+1020960117+1004711412+994946986+993417209+996456370
1492+1001636630+1008790599+1017174337+1024654000+1030094135+1033797953
1483+1036307362+1037923742+1038653368+1038334210+1036808878+1033754423
1475+1028292260+1019666359+1009609246+1001560092+996528594+993692380+992727388
1465+993598325+995211568+996099172+995572426+992672746+985984018+978384744
1455+976509468+981296450+989263838+996604740+1000765954+1001195246+998924797
1445+995473862+992041816+989395737+988052239+988296232+989490641+988639313
1435+982287651+971325679+959584080+950206722+943463221+936318533+925592057
1425+910682993+893922707+879057304+868922477+865279118+868359718+875623363
1415+884787643+895848376+909314920+924720532+940639817+955741696+969598904
1405+981910975+991485462+997222533+999064997+997201290+991440363+981369393
1395+967685589+954218587+945643471+942700784+943673488+948247784+956352038
1385+964147527+965485468+956899372+939367825+917651467+898126668+885671521
1375+881750312+884181288+888499042+890802564+888967485+882034110+870676311
1366+857628862+846907288+842757446+846671465+854812714+861504253+864310401
1356+865190358+867868137+874098030+882863608+892391362+901549237+909869705
1346+917274465+923833190+929708630+935289423+940976754+946661797+951847482
1336+956299423+960030954+962966974+965175918+967207407+969717861+972810226
1326+976075405+979196725+982193531+985058897+987347254+988260545+987310587
1316+984930528+982347326+981014548+982088823+985951991+991963121+998798651
1306+1005248746+1010772870+1015356971+1019066345+1021870728+1023749272
1298+1024806357+1025264342+1025404345+1025553957+1026042597+1027035955
1289+1028355661+1029449675+1029523860+1027733423+1023273051+1015349128
1281+1003293403+987055809+967849645+948308636+931711817+920662588+916204961
1271+917850623+924158884+933350682+943750091+954060282+963536335+972075371
1261+980085309+988054135+996147212+1004183360+1011801850+1018543129+1023890778
1251+1027301582+1028104413+1025317154+1017548921+1003305625+982173531+956456878
1241+931419784+912935533+904201656+904482316+910708288+919852568+929906217
1231+939544627+947772675+954043550+958491242+961871914+965036699+968177235
1221+970436115+970077413+964958789+953528896+936542264+918145663+904432511
1211+899900699+904878274+916135743+929382282+941036232+948871460+952647436
1201+954369179+956827541+961199872+966361373+970614550+973587500+976310901
1191+979932037+984708953+990066276+995199672+999418143+1002105007+1002680185
1181+1000709678+996117865+989518420+982394190+976554829+972900424+970545006
1171+967385450+961795965+953934789+945597653+938986181+935531912+935539952
1162+938497673+943379428+948852440+953928449+958739680+964197528+970665271
1152+977430145+983525329+988494276+992278946+994821297+995743280+994171542
1142+989314101+981712735+973447431+966335751+960226906+954024137+948301315
1132+945682949+948053335+954190612+960931760+966374968+971327444+977770872
1122+986525600+996536764+1005850591+1012795404+1016397193+1016078100+1011030785
1112+999913972+981666590+957306703+931044742+909006285+896035570+893255305
1102+898382295+907896846+918873066+929603530+939409787+948131376+955749671
1092+962381535+968318088+973814499+978896717+983402516+987007050+989079520
1082+988794807+985986240+982095555+979696868+980508522+984121553+988906117
1072+993601528+997751304+1001323550+1004502845+1007555535+1010545021+1013252017
1062+1015484948+1017373427+1019264715+1021367186+1023611752+1025855925
1054+1028055130+1030176817+1032090133+1033564875+1034281952+1033794489
1045+1031463254+1026612480+1019310991+1011285955+1005382736+1003286867
1037+1003714132+1002930649+996698794+982067254+958927985+931130104+905558552
1027+888812122+883883503+889312004+900898697+914330927+926939934+937836806
1017+947047624+954768862+961188041+966551312+971110445+974985770+978194935
1007+980778529+982742369+984068937+985108833+986675081+989251289+992354503
997+995136664+997325607+999190098+1000917527+1002450179+1003746617+1004808996
987+1005426397+1005269923+1004545395+1004262904+1005345153+1007580830
979+1009904679+1011580080+1012705402+1013705623+1014770421+1015821100
970+1016738378+1017450553+1017862916+1017869909+1017536110+1017226364
962+1017445193+1018454042+1020036369+1021678893+1022951474+1023668289
953+1023708878+1022700683+1019970027+1015216053+1009527284+1005260707
945+1004266303+1006301778+1009414797+1011528706+1011538053+1009676764
936+1007468932+1006872708+1008797200+1012455722+1016309740+1019400536
928+1021649677+1023307561+1024516415+1025313363+1025727099+1025733112
919+1025137280+1023509527+1020055519+1013597646+1003475368+991335524+981499135
909+978167222+982001696+990048237+998674007+1005837976+1011155559+1014931601
899+1017074138+1016667984+1013250252+1008491768+1005236327+1004219047
891+1002536521+995821191+981804371+962536964+944191344+934008476+935697015
881+947127103+962596050+977109614+988629639+997397047+1004231531+1009536238
871+1013366726+1015954568+1017865922+1019619299+1021295420+1022603818
863+1023300175+1023465670+1023293770+1022596498+1020690306+1016959756
854+1011669363+1006292563+1002908165+1002917380+1006116088+1011007386
846+1015987902+1020183496+1023322267+1025230289+1025877887+1025873900
837+1026292603+1027647996+1029433661+1030960889+1032185168+1033394610
829+1034535292+1035246420+1035364920+1035141124+1034920203+1034680197
820+1034018285+1032593609+1030448262+1028022319+1026165802+1025937953
812+1027843753+1031185731+1034508297+1036801100+1038076883+1038779057
803+1039106909+1039204101+1039538815+1040597469+1042308230+1043899054
795+1044136119+1041670371+1035216093+1023506978+1006066282+985237267+966901059
785+957327357+958577649+967413425+978499387+988101718+995208627+1000458430
775+1004752590+1008556083+1011865446+1014589240+1016897532+1019054449
766+1021020576+1022614472+1024006990+1025564807+1027211122+1028439911
758+1029021690+1029285488+1029656216+1030290415+1031218216+1032431383
749+1033714356+1034734120+1035373286+1035673425+1035507473+1034622353
741+1032913356+1030409241+1027101512+1022940624+1017786182+1011126474
732+1001854870+988397999+969278765+944332131+916412352+891816576+877529358
722+876961893+888124589+905503257+923696389+939592079+951149817+955310771
713+949954101+939037098+932550923+938054786+953411181+969982705+981261940
703+986412395+987576345+986652531+983502257+974918840+956809239+930390150
693+905283774+893130792+897702997+913048935+930712642+946087992+958278753
683+967508198+974033067+978009963+979663664+979877395+980171455+981613386
673+983956712+985959115+986052124+983144797+979140645+977895450+980191848
663+984843728+990347983+995199084+998739368+1001240345+1003180132+1004933967
653+1006646166+1008021037+1008557129+1008224964+1007729722+1007877635
645+1008806481+1010094683+1011431056+1012769129+1013786344+1013241101
636+1008925439+999242779+986111014+975513561+973232785+979781772+990487725
626+1000208097+1006799961+1010506524+1011676357+1009690490+1003760996+995036727
616+987669223+986091406+990926298+998824403+1005923730+1010459987+1012688147
606+1013782618+1014844605+1015834499+1015196117+1010998954+1002685283+991933382
596+982166406+977078175+978705471+986027875+995425429+1003211505+1008077378
586+1011034576+1013557841+1016271308+1018965166+1021125154+1022487410
578+1023426192+1024377065+1024633215+1022516430+1017218651+1009898012
569+1003008428+998954667+998797605+1001498260+1004422908+1004816121+1000996548
560+992845234+982127386+972215832+966083065+963809937+962944882+961942897
550+962304801+966563012+975096949+985641852+995024766+1000868114+1002196644
540+998489362+988204923+970118656+947649338+929668237+923974827+930630810
530+943465705+957026500+969868061+981858164+991543895+997457637+999553375
520+998020200+992579280+984573656+978441543+978515662+984822420+993536820
510+1001142565+1006946239+1011513608+1014615711+1015752602+1015417692
501+1015042650+1015870513+1017855922+1019781787+1020440366+1019657928
493+1018337111+1017774090+1018650583+1020366638+1021840400+1022962193
484+1024524585+1026654050+1028222128+1028049379+1026055734+1023374948
476+1021621572+1021721639+1023198147+1024593998+1024941981+1024507460
467+1023787769+1022501136+1019671980+1014273480+1006086936+996690297+989430182
458+987040449+988361267+989664894+988942523+986856066+985663291+987574057
448+992791377+999254675+1004891024+1009417215+1013355091+1016757071+1019493022
438+1021728894+1023934178+1026358095+1028433571+1029538566+1030018513
429+1030173811+1028799593+1024105293+1015752406+1005569146+996516633+991494351
419+992887588+1000256530+1009578853+1017804026+1023468742+1025697882+1025711804
409+1026200182+1027804470+1028582464+1027368904+1025356959+1023894961
401+1022800882+1021308296+1019335305+1017742063+1018217042+1021873473
392+1027238770+1031087820+1031912808+1031114161+1030422183+1030201262
384+1030000342+1028784560+1025731086+1021598826+1017175971+1010170502+997309267
374+982695962
##END=
