##TITLE=S. Graessle SG-V2581 10-36
##JCAMP-DX=4.24
##DATA TYPE=INFRARED SPECTRUM
##DATE=29/3/2017
##SAMPLING PROCEDURE=Diamant-ATR
##ORIGIN=Angelika Moesle
##XUNITS=1/CM
##YUNITS=TRANSMITTANCE
##RESOLUTION=4
##FIRSTX=3997.4121
##LASTX=373.82813
##DELTAX=-1.4160156
##MAXY=1.0075264
##MINY=0.18526545
##XFACTOR=1
##YFACTOR=9.3833208e-010
##NPOINTS=2560
##FIRSTY=0.99832332
##XYDATA=(X++(Y..Y))
3997+1063933913+1063659880+1063284973+1063134172+1063323785+1063616177
3989+1063635297+1063222468+1062530206+1061848552+1061496069+1061729512
3980+1062435177+1063036984+1063080941+1062760473+1062500478+1062337544
3972+1062128176+1062011931+1062187823+1062549580+1062873796+1063055405
3963+1063047656+1062918579+1062912481+1063151831+1063480113+1063779110
3955+1064072264+1064262004+1064150078+1063718955+1063144018+1062665762
3946+1062523790+1062776353+1063184990+1063431391+1063405792+1063291389
3938+1063353196+1063614906+1063813857+1063704282+1063298504+1062827362
3929+1062593919+1062747705+1063078083+1063198266+1063001348+1062798205
3921+1062926710+1063374031+1063822686+1063966055+1063874457+1063872932
3912+1063977235+1063931245+1063737313+1063667883+1063780190+1063815826
3904+1063630914+1063479668+1063619416+1063747413+1063415066+1062858741
3895+1062694982+1063010432+1063339031+1063256516+1062801699+1062370321
3887+1062221807+1062383788+1062829204+1063371046+1063595405+1063194074
3878+1062446548+1062178866+1062796299+1063827705+1064426907+1064159035
3870+1063366345+1062611006+1062095018+1061843344+1062046169+1062790964
3861+1063668328+1064112283+1064048507+1063774664+1063632375+1063964404
3853+1064942514+1065947939+1066040046+1065419881+1064716948+1064194988
3844+1063824465+1063457499+1063049879+1062815547+1063029996+1063658546
3836+1064311932+1064644469+1064617091+1064307867+1063872488+1063609126
3827+1063703265+1063975838+1064033134+1063694880+1063184736+1062904414
3819+1063004334+1063167204+1063128900+1063046639+1063171333+1063392389
3810+1063382353+1063029742+1062592267+1062561459+1063150307+1063992226
3802+1064683789+1065072035+1065071019+1064811595+1064646629+1064778882
3794+1065079404+1065237891+1065087916+1064718790+1064365163+1064189335
3785+1064152365+1064151476+1064198164+1064366053+1064638562+1064884963
3777+1064977451+1064952424+1064982660+1065156519+1065345116+1065334889
3768+1065060728+1064577390+1063951509+1063455847+1063508189+1064104597
3760+1064720950+1064916216+1064806387+1064700432+1064571356+1064312250
3751+1064138327+1064464194+1065219978+1065815940+1065960262+1065710303
3743+1065296077+1065072734+1065146737+1065345116+1065485499+1065504175
3734+1065478194+1065500491+1065553912+1065546989+1065378592+1065067335
3726+1064870988+1065066001+1065466506+1065566807+1065301858+1065111355
3717+1065253899+1065529584+1065654023+1065520754+1065188090+1064897858
3709+1064901352+1065070193+1065103288+1064942260+1064736576+1064632591
3700+1064626874+1064583806+1064512979+1064643389+1065040592+1065374082
3692+1065284770+1064800670+1064188573+1063643936+1063317497+1063304411
3683+1063493706+1063685543+1063766787+1063716668+1063538616+1063229074
3675+1062852580+1062726933+1063250354+1064423604+1065648878+1066003838
3666+1065431442+1064798891+1064685250+1065066128+1065628678+1066167344
3658+1066653286+1066899497+1066539074+1065716846+1065250595+1065775922
3649+1067088284+1067973398+1067484407+1066197961+1064880771+1063732168
3641+1062834667+1062299685+1062060716+1061892827+1061672279+1061472439
3632+1061422892+1061519763+1061650555+1061890668+1062544181+1063505903
3624+1064253047+1064534576+1064592699+1064856950+1065327139+1065394536
3615+1064646248+1063359421+1062097749+1061299215+1061119766+1061525226
3607+1062344595+1063252895+1064018143+1064636720+1065079467+1065187200
3598+1064948295+1064634878+1064484902+1064481536+1064507707+1064520093
3590+1064486173+1064352014+1064190605+1064192701+1064342740+1064478804
3581+1064672292+1065112245+1065685847+1065971442+1065746956+1065267365
3573+1064983486+1065155058+1065772745+1066706009+1067680435+1068093582
3564+1067477038+1066293625+1065478131+1065428774+1065700330+1065591835
3556+1064961444+1064234880+1063798929+1063698692+1063808648+1064021828
3547+1064248410+1064443550+1064685314+1065067970+1065523549+1065912494
3539+1066182335+1066247508+1065887085+1065075275+1064302658+1064151793
3530+1064590539+1065034684+1065082643+1064897795+1064829509+1065058251
3522+1065653388+1066551270+1067408943+1067765301+1067443880+1066735738
3513+1066109539+1065724723+1065368429+1064930763+1064647772+1064690459
3505+1064861524+1064911897+1064848057+1064835480+1064973068+1065229379
3496+1065543368+1065924182+1066351557+1066615935+1066491559+1065998629
3488+1065298618+1064527525+1063897261+1063683129+1063946745+1064471499
3479+1064992760+1065369699+1065588595+1065684831+1065638015+1065371096
3471+1064932922+1064587173+1064574278+1064817058+1064970400+1064809753
3462+1064450918+1064148490+1064055050+1064215951+1064544232+1064787203
3454+1064805815+1064843229+1065186883+1065667934+1065848972+1065619594
3445+1065302874+1065189995+1065262537+1065420389+1065644939+1065830677
3437+1065743017+1065309480+1064741975+1064239454+1063774092+1063308667
3428+1063036349+1063211288+1063793149+1064405690+1064701321+1064686076
3420+1064617155+1064646820+1064680486+1064568688+1064348267+1064258320
3411+1064527144+1065151692+1065891150+1066485080+1066867609+1067120680
3403+1067223967+1067019808+1066520144+1066026960+1065779479+1065687817
3394+1065521834+1065156075+1064595748+1064009695+1063688782+1063737122
3386+1063908504+1063956845+1063957925+1064066611+1064209027+1064290017
3377+1064457143+1064868511+1065348673+1065538032+1065304907+1064846024
3369+1064426589+1064150459+1063999531+1063999404+1064208900+1064575103
3360+1064961888+1065298300+1065537587+1065533713+1065187264+1064642881
3352+1064160432+1063866262+1063760054+1063826244+1063988542+1064068262
3343+1063964531+1063814619+1063827832+1064001691+1064168436+1064270325
3335+1064398322+1064566591+1064628271+1064481853+1064253873+1064198800
3326+1064423095+1064755124+1064900209+1064692174+1064221286+1063756052
3318+1063508316+1063458833+1063467535+1063523435+1063762658+1064248283
3309+1064828111+1065235160+1065305986+1065088614+1064724380+1064292685
3301+1063843077+1063486655+1063334457+1063382861+1063533916+1063730516
3292+1064042028+1064541818+1065085311+1065335016+1065095792+1064532861
3284+1063980602+1063655243+1063626848+1063919557+1064422587+1064793746
3275+1064770370+1064587490+1064740324+1065317230+1065912875+1066119194
3267+1065789769+1064995491+1064043107+1063372697+1063218466+1063464867
3258+1063822305+1064027036+1063970311+1063785971+1063748874+1063979903
3250+1064291605+1064385363+1064160496+1063734518+1063246034+1062829013
3241+1062643339+1062657250+1062562856+1062202179+1061900513+1062115090
3233+1062930902+1064008107+1064856950+1065184024+1065072162+1064761032
3224+1064342232+1063872615+1063550749+1063470267+1063420402+1063201379
3216+1062942527+1062880212+1062976384+1062978607+1062795156+1062571813
3207+1062380612+1062110326+1061758288+1061532150+1061555462+1061748633
3199+1062043120+1062401193+1062615516+1062422981+1061850649+1061225212
3190+1060862883+1060896105+1061295340+1061882918+1062380358+1062598556
3182+1062582739+1062517946+1062560188+1062761235+1063021548+1063134426
3173+1063045432+1062974987+1063066776+1063080242+1062738050+1062208531
3165+1061920205+1062017775+1062275864+1062448009+1062452138+1062273578
3156+1061918554+1061505852+1061260784+1061313762+1061538375+1061626861
3148+1061356194+1060814352+1060309607+1059990028+1059700686+1059355699
3139+1059173137+1059278964+1059371833+1059089732+1058447971+1057663412
3131+1056822763+1055967250+1055244942+1054734734+1054296242+1053797151
3122+1053339602+1053061757+1052887771+1052731062+1052739638+1053049688
3114+1053488942+1053781397+1053809601+1053500440+1052734365+1051503629
3105+1049958077+1048337188+1047027176+1046442076+1046559782+1046811710
3097+1046711536+1046363944+1046106744+1045923165+1045499157+1044670640
3088+1043552464+1042420694+1041675963+1041684920+1042429270+1043484940
3080+1044419729+1045010991+1045081564+1044435482+1043075161+1041332310
3071+1039687283+1038439205+1037527919+1036609392+1035245577+1033094662
3063+1030083596+1026417747+1022363016+1018152721+1014201277+1011173569
3054+1009597971+1009435736+1010133080+1011105410+1012167814+1013504187
3046+1015268699+1017317852+1019341406+1021135011+1022726997+1024258256
3037+1025700648+1026783824+1027317027+1027418789+1027282217+1026988999
3029+1026748696+1026998972+1028026058+1029706975+1031718523+1033739727
3020+1035415562+1036457130+1036952220+1037351138+1037972382+1038685606
3012+1039237611+1039702655+1040358900+1041240711+1042067449+1042568573
3003+1042725028+1042740591+1042835111+1043012846+1043053754+1042757487
2995+1042128748+1041323798+1040493503+1039616266+1038473252+1036926748
2986+1035139241+1033274810+1031147271+1028495040+1025394599+1022036831
2978+1018240190+1013520068+1007573782+1000436333+992142913+982445722+971012286
2968+957789884+943008844+926955015+910018613+892922771+876629719+861927065
2958+849205723+838658609+830601617+825563059+824028306+825979700+830542669
2948+836055418+840582179+842522139+840932058+835510654+826393354+813891988
2938+798356181+780244687+760239796+739185777+717898696+697115408+677643910
2928+660424645+646339106+636025626+629883502+628066902+630418928+636583602
2918+646221400+658999975+674412360+691727987+710072162+728522164+746307599
2908+763009669+778509205+792819230+806090799+818610840+830549339+841756191
2899+851974516+861221210+869833510+878150243+886253797+894011854+901281302
2889+908035269+914266768+919769417+924120159+926912455+927864839+926696798
2879+923104507+916864560+907901936+896522240+883882016+872089618+863426373
2869+859073280+858260581+858524324+856890159+851070853+840060538+824241867
2859+805199460+785306685+767218440+753397534+745680067+745039956+751636579
2849+764939973+783862197+807012312+832930838+860085121+886817236+911559972
2839+933263820+951632387+966881838+979301768+989176630+997015170+1003475158
2829+1008942616+1013400774+1016816156+1019502244+1021994843+1024609532
2821+1027234956+1029592127+1031562450+1033177685+1034468259+1035508367
2812+1036477457+1037539861+1038712920+1039886361+1040890642+1041578203
2804+1041924842+1042047503+1042126397+1042341864+1042790074+1043390801
2795+1043984032+1044551410+1045192981+1045902965+1046569818+1047181471
2787+1047832062+1048550940+1049283093+1050013087+1050762328+1051478537
2778+1052059763+1052489044+1052855057+1053229646+1053593372+1053867342
2770+1053974821+1053921336+1053836217+1053851144+1053946109+1054016365
2761+1054062100+1054211695+1054568370+1055067462+1055492360+1055680194
2753+1055706556+1055755404+1055844271+1055810732+1055555246+1055188725
2744+1054932160+1054890045+1054910944+1054731304+1054276677+1053732485
2736+1053297614+1052966030+1052615135+1052231907+1051929225+1051771627
2727+1051758923+1051980996+1052558537+1053363296+1054001691+1054191939
2719+1054047300+1053920955+1054041329+1054359955+1054712946+1055014548
2710+1055284262+1055577543+1055905189+1056165057+1056230421+1056134503
2702+1056029056+1055961787+1055853418+1055660185+1055402159+1055089885
2693+1054728763+1054365418+1054124797+1054164053+1054463749+1054725333
2685+1054681693+1054454666+1054388158+1054595367+1054881914+1055070320
2676+1055175894+1055249071+1055260505+1055218707+1055227918+1055330061
2668+1055437477+1055492360+1055559375+1055714877+1055954799+1056251447
2659+1056614030+1057020379+1057353742+1057544943+1057738749+1058117720
2651+1058589116+1058873885+1058878649+1058762086+1058713683+1058838884
2642+1059144742+1059513868+1059793047+1059943403+1060036781+1060171574
2634+1060415244+1060725866+1060923610+1060877938+1060719451+1060738952
2625+1061058213+1061501532+1061834768+1061982520+1061958255+1061789922
2617+1061636072+1061693051+1061796020+1061451985+1060543558+1059693635
2608+1059580947+1060112054+1060599077+1060593042+1060208226+1059764462
2600+1059503451+1059577200+1059964048+1060399237+1060612480+1060572461
2591+1060398728+1060209751+1060151755+1060400634+1061001932+1061752190
2583+1062274022+1062256236+1061727353+1061076825+1060671682+1060476225
2574+1060249643+1060071273+1060301603+1060953973+1061519001+1061628830
2566+1061529228+1061646235+1061982711+1062244675+1062376674+1062611514
2557+1063003889+1063242414+1063043717+1062481167+1061855032+1061457385
2549+1061449698+1061734150+1062002276+1062044263+1061856366+1061454272
2540+1060891913+1060418611+1060285469+1060455390+1060711320+1060901377
2532+1060957467+1060886640+1060861549+1061118178+1061635119+1062042294
2523+1061979090+1061511124+1061094166+1061107442+1061482476+1061835403
2515+1061917474+1061806501+1061650745+1061453573+1061252336+1061297246
2506+1061805548+1062584073+1063086531+1062925312+1062234575+1061424925
2498+1060722627+1060174814+1059887441+1059938957+1060298618+1061031978
2489+1062137196+1063035269+1062927980+1061908390+1061057006+1061243125
2481+1062346882+1063679953+1064678136+1065115040+1065057743+1064793047
2472+1064616520+1064566846+1064452824+1064151412+1063771932+1063543063
2464+1063634026+1063991083+1064298847+1064293447+1064136675+1064218809
2455+1064586156+1064884836+1064926252+1065011054+1065522024+1066370487
2447+1067030860+1067041913+1066355241+1065313990+1064400418+1063851716
2438+1063497708+1063146369+1062977654+1063259247+1063854701+1064379138
2430+1064664606+1064771831+1064714852+1064505674+1064383331+1064651584
2421+1065223472+1065593995+1065381260+1064703100+1063988796+1063602202
2413+1063616812+1063808076+1063898532+1063838249+1063742712+1063675570
2404+1063646095+1063654544+1063591467+1063268458+1062689392+1062143294
2396+1061903562+1061924271+1061988682+1062056269+1062202878+1062323950
2387+1062267861+1062173658+1062282979+1062519598+1062565651+1062221553
2379+1061507186+1060628932+1059997461+1060065175+1061021497+1062676688
2370+1064584505+1066218034+1067158921+1067247089+1066652143+1065838173
2362+1065245514+1064942006+1064775960+1064728255+1064805243+1064797938
2353+1064506881+1064050031+1063725371+1063688210+1063906281+1064256986
2345+1064524603+1064429321+1063893386+1063241397+1062935666+1063145733
2336+1063603282+1063927688+1064022907+1063943060+1063508634+1062570606
2328+1061579791+1061185320+1061373599+1061666245+1061902483+1062208214
2319+1062461793+1062504670+1062571368+1062869477+1063097647+1062892217
2311+1062454424+1062291554+1062530778+1062868714+1063042256+1063022310
2302+1062874685+1062734429+1062831935+1063272650+1063845364+1064201468
2294+1064148300+1063740362+1063237967+1062977654+1063143447+1063656513
2285+1064313838+1064874355+1064989203+1064345535+1063130298+1062130209
2277+1062004499+1062550787+1063058962+1063275382+1063530104+1063985048
2268+1064346869+1064405246+1064370499+1064488015+1064633861+1064497416
2260+1064027417+1063496057+1063173937+1063151514+1063470076+1064103072
2251+1064706276+1064772974+1064187937+1063356753+1062717596+1062422409
2243+1062503273+1063002746+1063840854+1064659715+1064885662+1064147537
2234+1062825456+1061860368+1061762036+1062198495+1062777243+1063619734
2226+1064809182+1065873364+1066244078+1065869426+1065086772+1064094243
2217+1062881990+1061722525+1061441059+1062757678+1065278227+1067499779
2209+1068167013+1067484661+1066636008+1066303916+1066231120+1066106871
2200+1066032931+1065999773+1065654531+1064780406+1063639489+1062807289
2192+1062711815+1063117403+1063323023+1063123882+1063036793+1063287324
2183+1063331598+1062834730+1062431938+1062951992+1064287095+1065549021
2175+1066177380+1066446586+1066822509+1067315439+1067716135+1067955485
2167+1067948752+1067468907+1066412792+1065014421+1063619099+1062419614
2158+1061562323+1061219940+1061336312+1061671644+1062204402+1063075859
2150+1064137374+1064887123+1064896080+1064229036+1063610523+1063987589
2141+1065534030+1067343261+1068443207+1068681541+1068289865+1067301718
2133+1065930661+1064887377+1064702655+1065053487+1065231602+1065109577
2124+1065173543+1065579385+1065790659+1065435825+1064949565+1064924156
2116+1065252310+1065408066+1065275496+1065201302+1065383166+1065689786
2107+1066025690+1066353082+1066352319+1065600029+1064232466+1062973525
2099+1062328651+1062153458+1062187061+1062528618+1063238031+1063927625
2090+1064145187+1063850191+1063280844+1062738240+1062600334+1063089707
2082+1063930610+1064605149+1064931588+1065016263+1064783265+1064032055
2073+1063041430+1062650898+1063313304+1064285507+1064344011+1063308477
2065+1062252044+1062149964+1062928933+1063944077+1064766876+1065211402
2056+1065075084+1064373548+1063733819+1063970184+1065188026+1066822636
2048+1068471537+1070084359+1071388590+1071828670+1071051416+1069221223
2039+1067261572+1066592051+1067855248+1070160204+1072218314+1073503997
2031+1073741823+1072670081+1071079620+1070478321+1071068440+1071530752
2022+1071065391+1070232110+1069731558+1069539976+1069128227+1067995250
2014+1066357528+1065321930+1065875651+1067732905+1069372532+1069203818
2005+1067083202+1064717329+1063919557+1064698526+1065586563+1065470889
1997+1064612073+1064120350+1064740451+1066138378+1067496603+1068641649
1988+1069777040+1070375797+1069656475+1067907082+1066215493+1065232047
1980+1065072416+1065865360+1067346818+1068371173+1068043146+1066845630
1971+1065808699+1065276957+1065024267+1064841641+1064757602+1065176656
1963+1066503501+1068226724+1069078044+1068431137+1066779187+1064992442
1954+1063942362+1064215061+1065402857+1066344062+1066449381+1066155147
1946+1066089974+1066422702+1066989444+1067551613+1067835556+1067555678
1937+1066646553+1065537841+1064940863+1065151946+1065642081+1065402032
1929+1063882905+1061710773+1060134223+1059722982+1060093061+1060674541
1920+1061041507+1060647290+1059171041+1057221172+1055826548+1055308464
1912+1055273146+1055301794+1055322947+1055508748+1056035345+1057003673
1903+1058354339+1059735242+1060669014+1060943492+1060677717+1060084740
1895+1059394193+1058879856+1058726006+1058875283+1058998896+1058681604
1886+1057816817+1056691526+1055619912+1054675023+1053771678+1052899141
1878+1052224856+1052020379+1052461729+1053448034+1054654887+1055760676
1869+1056580744+1057130399+1057633874+1058293866+1059089860+1059866860
1861+1060508558+1060979065+1061232390+1061218669+1061032296+1060901441
1852+1060959627+1061128722+1061222798+1061046588+1060450435+1059489793
1844+1058603218+1058357261+1058805917+1059513995+1060042498+1060231475
1835+1060310814+1060627979+1061210284+1061792272+1062191063+1062480405
1827+1062764920+1063000967+1063151387+1063267378+1063344684+1063283830
1818+1063049371+1062750754+1062533636+1062463762+1062530905+1062686406
1810+1062816690+1062721915+1062232098+1061372837+1060360806+1059411916
1801+1058587592+1057832570+1057160572+1056756763+1056787317+1057133702
1793+1057388108+1057248232+1056938245+1056883235+1057236735+1057932236
1784+1058739917+1059352904+1059651647+1059722919+1059606420+1059254572
1776+1058733057+1058267314+1058044352+1057920231+1057398652+1056187416
1767+1054578089+1053196360+1052414787+1052028129+1051568167+1050884544
1759+1050316912+1050210894+1050544321+1051008666+1051401485+1051880885
1750+1052796236+1054180950+1055556326+1056543203+1057205292+1057730300
1742+1058129408+1058285736+1058185625+1058003825+1057922009+1057978988
1733+1058036031+1057880275+1057453281+1056813298+1056054973+1055290614
1725+1054558461+1053866008+1053276970+1052812561+1052393507+1051968863
1716+1051585381+1051236455+1050854371+1050456851+1050095602+1049775261
1708+1049454602+1049084905+1048647302+1048148401+1047553519+1046819523
1699+1046049002+1045374844+1044691158+1043947189+1043312161+1042804303
1691+1042246454+1041586143+1040986116+1040610256+1040477496+1040510781
1682+1040623532+1040846240+1041238297+1041796337+1042545705+1043527627
1674+1044572626+1045387485+1045950480+1046418128+1046801991+1047009326
1665+1047068021+1047063701+1047044835+1047064527+1047203132+1047488409
1657+1047861346+1048278748+1048884557+1049920154+1051022641+1051676472
1648+1051929733+1051953046+1051987729+1052279676+1052805002+1053334965
1640+1053599852+1053475984+1053112766+1052825710+1052810846+1052980132
1631+1053186387+1053296153+1053103110+1052413897+1051198406+1049478931
1623+1047170672+1044242947+1040656183+1035583768+1027088792+1014549885
1614+1001960414+994036755+992585978+997738939+1007665762+1018660007+1027675862
1604+1033876299+1037777116+1040129713+1041553112+1042460967+1043032220
1596+1043304792+1043278113+1042914577+1042144755+1040961787+1039455365
1587+1037718358+1035813971+1033872043+1032086378+1030559756+1029254445
1579+1028071921+1026880949+1025586182+1024391652+1023687575+1023668455
1570+1024479693+1026074347+1027825773+1029167356+1030115294+1030754006
1562+1030999773+1030757818+1030030810+1029235261+1028908631+1028926418
1553+1029096720+1029466354+1030211402+1031428164+1032976066+1034658825
1545+1036430578+1038250608+1040030365+1041874406+1043739981+1044977642
1536+1045342321+1045131682+1044604450+1043888813+1042931792+1041539582
1528+1039501799+1036759050+1033634471+1030358328+1026253098+1020083596
1519+1010383737+993432979+963506347+919913421+871971531+833184926+814488650
1509+821782235+856573121+913489768+966011207+992307371+1001743233+1005892484
1500+1008938360+1011796782+1013885065+1013855082+1010952322+1004552553
1491+992532556+972106197+944624460+917693076+898288594+888434694+886964226
1481+891199231+897823169+904244027+909456698+913106350+913668646+907099972
1471+889092146+860270287+823046321+775961723+718463215+662806907+630495218
1461+627535287+643462199+668688019+698272396+725099794+743569297+756572867
1451+768284084+780526788+794449139+811203043+830192091+849113807+866355368
1442+881291529+893819192+905251929+918220371+933707966+948888813+961527386
1432+972513563+982899713+992147868+999221032+1004195623+1007862743+1010683942
1422+1012792424+1014463813+1015963692+1017172006+1017924296+1018299012
1413+1018270046+1017654582+1016275902+1013858132+1009679470+1002188204
1405+989534259+971812599+952215773+935549148+927246136+931145809+945888419
1395+965770141+984259717+997231272+1004713009+1008515113+1009502180+1007527411
1385+1002405894+993863848+981357719+965071972+946977375+930340479+917979179
1375+911181001+909707546+911996304+915851449+919453649+921567913+921518175
1365+919411661+916031534+912463381+909532988+907157015+904452569+900492296
1355+895100302+889312631+884956743+883670297+886198342+892080788+899745787
1345+907010787+911623304+911701054+906026388+894507579+879175741+864241168
1335+854107264+851483619+856698132+867564698+880158806+890449101+895413910
1325+892988199+881748569+861133168+831936085+796838071+760852402+730339399
1315+710229887+702288822+705773507+718687257+738613000+763105841+789723236
1306+816323861+841691145+865585610+888101014+909136357+928348749+945347021
1296+959859237+971821873+981404471+988944775+994818138+999396670+1003119816
1286+1006452239+1009630431+1012462746+1014482171+1015375543+1015245196
1277+1014427351+1013212685+1011878852+1010828708+1010454056+1010851513
1269+1011753651+1012687042+1013115560+1012493236+1010366396+1006533293
1260+1001092070+994425827+987304640+980859135+976027913+972859059+970526090
1250+968043463+964787076+960476733+955159060+949505229+945002225+943522990
1240+946289877+952859758+960921895+967212025+969007535+965195839+956370042
1231+944314219+931474662+920503031+913611222+911835721+914730922+920807174
1221+928373142+936118749+943224056+949280489+954225669+958142367+960871839
1211+961670119+959167166+952063510+940872983+929354365+922974288+924623825
1201+932169910+940896295+947759266+952748785+957153267+961762290+966518556
1191+970898836+974193210+975642780+974683662+971340631+966452239+961394180
1181+957344531+954579042+952403924+949842213+946467611+942790328+940116627
1171+939943149+943049434+948938423+956214604+963512509+970026744+975358328
1161+979197084+981293371+981687715+980940888+980128697+980471906+982774511
1151+987112105+992970667+999533433+1005825469+1010862946+1013992671+1015204224
1141+1015101446+1014567354+1014391525+1015017533+1016421876+1018195789
1133+1019850153+1021071679+1021666753+1021402120+1020062316+1017563428
1124+1013881762+1008910092+1002340657+993530740+981813552+967803477+954741213
1114+947688312+950225885+961621017+977439433+992828568+1005135430+1014073788
1104+1020458058+1025141655+1028651939+1031235375+1032990549+1033905582
1096+1033731342+1031820666+1027226063+1019348521+1009041202+999197339+993595723
1086+994368721+1000428584+1008531692+1015750386+1020861358+1023976028
1078+1025558740+1025847511+1024838592+1022610561+1019608643+1016580490
1069+1014248156+1013044352+1013055659+1014088653+1015765631+1017641306
1061+1019342296+1020669649+1021623875+1022338751+1022962346+1023582065
1052+1024241486+1024950327+1025653134+1026284224+1026857064+1027370194
1044+1027637304+1027421266+1026777027+1026050527+1025479655+1024988313
1035+1024401180+1023625641+1022583247+1021197516+1019497607+1017552439
1027+1015336032+1012802842+1009984566+1006828607+1002968952+997619264+989420872
1017+976567023+958360628+938145797+924155033+924823664+941601389+967205927
1007+991696735+1009486554+1020615973+1027507656+1032104609+1035302366
998+1037505305+1039029133+1040128697+1041001297+1041858589+1042816245
990+1043741505+1044415917+1044797621+1045004639+1045150612+1045275432
981+1045353628+1045359408+1045321295+1045247483+1045035510+1044554840
973+1043816144+1043016657+1042379405+1041895241+1041296992+1040373066
964+1039200578+1037993154+1036868371+1035846748+1034957061+1034311297
956+1034120668+1034561256+1035516689+1036540154+1037244739+1037687105
947+1038178320+1038800898+1039380599+1039855743+1040333491+1040815305
939+1041140347+1041166391+1040817020+1039972687+1038408905+1035852656
930+1032100417+1027116678+1021110364+1014623507+1008506474+1003733184
922+1001205139+1001509345+1004551600+1009428304+1014859427+1019822839
913+1023903550+1027264113+1030318945+1033316861+1036149049+1038484496
905+1040079340+1041008793+1041547014+1041828416+1041782299+1041349524
896+1040566045+1039485474+1038119816+1036326339+1033375365+1027215201
888+1015032715+997033274+980186311+974731748+984510819+1002927281+1020001462
878+1030936568+1036698069+1039631257+1041065645+1041617269+1041675455
869+1041434072+1040985925+1040522215+1040294997+1040280324+1040102716
861+1039524413+1038750716+1038044479+1037301591+1036195865+1034604959
852+1032782134+1031055100+1029423858+1027670526+1025706619+1023451972
844+1020651228+1017361047+1014435165+1013085070+1014073852+1017432255
835+1022527348+1028188928+1033154817+1036764005+1039147855+1040656881
827+1041338217+1041175601+1040574938+1040196030+1040310242+1040601300
818+1040587833+1040041037+1039039868+1037845465+1036786555+1036159467
810+1036172679+1036938182+1038388895+1040153280+1041666562+1042560125
801+1042854612+1042719120+1042234257+1041470025+1040551880+1039528669
793+1038366790+1037106769+1035831249+1034487443+1032952182+1031287908
784+1029743627+1028411573+1027006214+1025127490+1022649119+1019650186
776+1016114303+1012015297+1007483772+1002257443+994653426+981027405+956592178
766+918500058+870517451+824911833+797293205+796935069+820847129+856521287
756+889939719+911992938+919686711+913373205+893650288+860389327+813411001
746+753160534+680948256+599120667+511200946+422024825+337863695+266371518
736+216437819+197441243+216677693+274766240+361392845+456453414+538911045
726+596802371+630018105+645535364+650809270+650004193+643966118+632440703
717+616357655+598980601+585971886+584237865+599709896+634990981+687658393
707+750505572+814266069+870910143+915831884+948447526+970946033+986128277
697+995994056+1001600817+1003603853+1002992709+1001579601+1001534691+1004111775
687+1008998261+1015088551+1021575345+1028039779+1033917270+1038494659
678+1041432675+1043030759+1043980157+1044840816+1045617688+1045961278
670+1045879335+1046166391+1047509307+1049151158+1050267810+1050728598
661+1050480036+1049619632+1048656577+1048169872+1048327152+1048887479
653+1049590920+1050410607+1051331929+1052114201+1052615516+1053084752
644+1053667439+1053957543+1053516511+1052493236+1051397801+1050608351
636+1050274607+1050399745+1050882829+1051544600+1052098638+1052180327
627+1051596815+1050540065+1049368022+1048115624+1046372900+1043720734
619+1040180404+1036242553+1032570225+1029576564+1027161843+1024995237
610+1023125089+1022172260+1022857407+1025405208+1029352459+1033846126
602+1038143065+1041826701+1044723618+1046834324+1048156850+1048381273
593+1046896893+1043051657+1036600499+1028656767+1021937547+1018807949
585+1019146140+1021240267+1024275661+1028192549+1031698387+1032382645
576+1028771488+1021602786+1013399821+1006940532+1003992417+1005052153
568+1009449965+1015562424+1021738532+1027398462+1032870302+1038281543
559+1043122548+1046772961+1048968977+1049768464+1049421952+1048436028
551+1047590171+1047539290+1048242096+1048970121+1048990511+1048085515
542+1046357083+1043874901+1040957150+1038618972+1038056358+1039512661
534+1042105117+1044755696+1046854142+1048345891+1049667972+1051099375
525+1051937356+1051346793+1050074386+1049851868+1051146826+1052539417
517+1052618311+1051745647+1051155465+1051108078+1050743271+1049340644
508+1047261445+1045608224+1045142163+1045706238+1046550000+1046887745
500+1046307219+1045073560+1044203310+1044972306+1047786009+1051411141
491+1053740743+1053554942+1051312301+1048307778+1045654214+1043818303
483+1042429778+1040647417+1037992201+1034706721+1031424925+1028534869
474+1025370271+1019955091+1010530155+997719501+984106375+972549517+965698869
464+965398411+971551270+981896702+993484750+1004345916+1013519560+1020690929
455+1026313825+1030738317+1033463978+1034162465+1033703710+1033339983
446+1033503870+1033647556+1032887009+1030889308+1028119880+1024878992
438+1020519102+1013851144+1003479541+986877772+959553442+916930496+859193209
428+795427821+743791751+726074474+752390013+810918401+882112740+950800886
418+1001814759+1028621957+1039095640+1041961685+1042120934+1043042955
409+1046180493+1049584314+1050384372+1048365837+1045497759+1043247495
401+1042363715+1044166340+1049547662+1055994691+1059488142+1059357731
392+1057387028+1054785107+1051402756+1047599127+1045495536+1046216954
384+1046884951+1044887631+1042835492+1044130323+1048317560+1053165108
375+1058428851+1064171358
##END=
