##TITLE=LSH-R44A
##JCAMP-DX=5.0
##DATA TYPE=LINK
##BLOCKS=1


$$ === CHEMSPECTRA SPECTRUM ORIG ===
##TITLE=LSH-R44A
##JCAMP-DX=5.00
##DATA TYPE=INFRARED SPECTRUM
##DATA CLASS=XYDATA
##ORIGIN=Angelika Moesle
##OWNER=
##XUNITS=1/CM
##YUNITS=TRANSMITTANCE
##XFACTOR=1
##YFACTOR=7.594419e-010
##FIRSTX=3997.453
##LASTX=373.96442
##MAXX=3997.453
##MAXY=0.8154445294091418
##MINX=373.96442
##MINY=0.197848186176753
##NPOINTS=2559
##XYDATA= (X++(Y..Y))
2559H13412375H13889014H14051870H13944973H13757002H13611334H13397071H12967288
2551H12461532H12233455H12465220H12968387H13361046H13372898H13010533H12472363
2543H11966528H11677861H11815288H12443873H13252658H13745308H13731965H13438354
2535H13119470H12777198H12278584H11608559H10950935H10548779H10446199H10380822
2527H10058641H09502655H09000195H08754930H08744021H08866850H09067692H09371115
2519H09831114H10338047H10583076H10370068H09871926H09491667H09556574H10119546
2511H10920012H11598827H11932388H11825727H11303332H10628755H10207920H10237194
2503H10513539H10686991H10749151H11009014H11563823H12124283H12416874H12546374
2495H12765504H13073478H13210356H12938798H12214696H11281278H10649083H10645942
2487H11153818H11879881H12461218H12475267H11963468H11569944H11757602H12332974
2479H12731598H12691963H12251898H11582502H11181210H11418234H12112039H12842025
2471H13351942H13489918H13015007H12061103H11240936H10872843H10942930H11494442
2463H12464750H13520370H14402226H15102075H15581617H15384227H14063878H12529578
2455H11831064H11960878H12531148H13060685H13209649H13135873H13294570H13660544
2447H13582216H12734187H11736019H11215193H11168966H11440602H11996588H12682624
2439H13197092H13576095H14321857H15503053H16003394H14802655H13153689H12636867
2431H12892963H12930086H12819580H13068219H13634644H14210330H14554485H14515479
2423H14135299H13549331H12768565H11951773H11537452H11680059H12152616H12673127
2415H13152591H13700258H14432364H15275526H15884647H15838968H15103722H14228068
2407H13733770H13506399H13191676H12971605H13311522H14129256H14924542H15364449
2399H15400003H15099642H14605972H14079889H13621459H13299671H13114525H12966189
2391H12830646H12931028H13504830H14565239H15993897H17349330H17567989H16199371
2383H14576618H13638883H13009434H12422918H12550925H13563459H14676529H15011503
2375H14127135H12613557H11973749H12839828H14237879H15097915H15201201H14881140
2367H14560137H14514066H14746146H15020058H15043603H14624259H13747976H12633806
2359H11597571H10781329H10219221H10184374H10868840H11950753H12970505H13654030
2351H13842785H13520919H13005432H12625722H12338625H11978380H11674879H11815053
2343H12507760H13119941H12922395H12457843H12649268H13405547H14246904H14949108
2335H15392861H15374652H14750698H13654109H12681525H12285805H12174592H11867637
2327H11504724H11747790H12598174H13394245H13592027H13178097H12534915H12004750
2319H11714435H11755169H12306839H13441650H14956642H16267809H16454996H15324265
2311H13924410H13128888H12944371H12837003H12402198H11902799H11859240H12262024
2303H12708445H13148745H13892624H14782013H14753131H13213338H11510767H10790277
2295H10937593H11521441H12234397H12890138H13432781H13934299H14376326H14511712
2287H14123605H13473044H13128339H13281855H13581431H13751979H13898510H14076514
2279H14068508H13737538H13308617H13042398H12881897H12679798H12664494H13241200
2271H14304669H15001457H14553073H13340562H12192486H11454180H11197456H11340376
2263H11634930H11961818H12396704H12874598H13214829H13442357H13694842H13938459
2255H14039704H13965849H13675927H13131400H12518198H12140765H12086767H12221369
2247H12445914H12708602H12903323H13005903H13153846H13386005H13531437H13517702
2239H13508833H13546663H13458995H13236412H13128339H13269141H13479872H13596579
2231H13728434H13967341H14105867H13883677H13382002H12898457H12552653H12317199
2223H12279212H12523535H12854662H12905913H12564269H12190289H12323242H13110366
2215H14054224H14457244H14117561H13348489H12514195H11884433H11646545H11771494
2207H12070521H12422996H12756713H12972625H13076225H13131635H13001821H12496929
2199H11832161H11504724H11652040H11926266H12004907H11956639H12056629H12385637
2191H12732147H12877894H12889117H12984162H13184456H13336010H13412611H13484423
2183H13420694H12996955H12331326H11871169H11877290H12209910H12606180H12910544
2175H13088076H13218439H13431761H13753863H14077299H14310006H14438407H14397203
2167H14057677H13436706H12737720H12087866H11459124H10942380H10807857H11135767
2159H11626375H11920379H11946279H11868344H11782639H11558329H11069290H10527667
2151H10319054H10486933H10722387H10832266H10886892H10995514H11203264H11497268
2143H11734449H11715063H11468307H11290853H11368396H11532507H11563744H11533605
2135H11600396H11682335H11675271H11779342H12213519H12786929H13130301H13191833
2127H13192383H13182729H12903323H12157168H11187724H10543442H10543050H10984841
2119H11440523H11735705H12041011H12538526H13118764H13475163H13433723H13082425
2111H12637809H12332111H12330149H12545118H12635533H12404865H12099482H12071698
2103H12285020H12415226H12304797H12049879H11801082H11727385H11984188H12466555
2095H12795642H12740310H12453134H12229059H12252055H12543155H12894297H12957007
2087H12623603H12181263H11968334H12098383H12551083H13177863H13578763H13391734
2079H12817304H12507838H12806394H13378862H13677889H13472966H12853014H12044621
2071H11377735H11168024H11448058H11899895H12126559H11983874H11691753H11590586
2063H11744573H11927365H12060239H12349456H12824053H13137364H13103852H13069868
2055H13454129H14186549H14810347H14976970H14722130H14346188H14063642H13802602
2047H13456876H13263725H13605134H14370989H14866306H14601656H13958002H13729925
2039H14113951H14494524H14270607H13570993H12983456H12829155H12947588H13076303
2031H13179668H13372741H13636999H13720664H13429171H12987302H12863531H13190028
2023H13603329H13714542H13538657H13436234H13753078H14452064H15041798H15014878
2015H14406856H13743503H13428700H13426189H13575701H13884932H14299960H14519325
2007H14415725H14357332H14682181H15116516H15153247H14723464H14156333H13774347
1999H13744759H14016080H14264328H14147071H13652068H13073321H12713468H12685214
1991H12892885H13152904H13380589H13622558H13883912H14047710H14033897H13923625
1983H13861544H13948505H14281987H14950206H15855215H16630566H16890115H16570839
1975H15975139H15480450H15255591H15255042H15375045H15485630H15409814H15065030
1967H14627320H14388334H14420748H14513203H14455988H14259933H14022359H13711246
1959H13239787H12663002H12090612H11456848H10605837H09593227H08700226H08135685
1951H07831320H07556468H07204148H06950722H07086030H07661244H08371375H08815677
1943H08872579H08788443H08886471H09213360H09504931H09440731H08839537H07575225
1935H05373570H01861297G97011485G91521160G86558017G83069995G81381316G81271044
1927G82178879G83474427G84842260G86362197G88100635G89882240G91579003G93292483
1919G95088922G96821238G98287256G99369797H00051830H00409406H00514262H00362158
1911H00084401H00121681H00870897H02202078H03525096H04237031H04003774H02866608
1903H01197472G99310384G97145302G94755440G93036466G93300803G95910736G99735065
1895H03152999H05353007H06462311H06543464H04611404G98628508G86771731G69405477
1887G49996815G33423651G22858968G18386670G18463899G21904829G28126476G36327667
1879G45310801G54027559G61863167G68430775G73449721G76975494G79523346G81691331
1871G83726598G85554431G86989526G87831903G88124730G88385457G89169127G90355818
1863G91230531G91258785G90471426G89152096G87499991G85703710G84126008G83215271
1855G83254905G84299616G86224849G88627033G90786228G92092922G92619005G93052634
1847G93980952G95339995G96578799G97254710G97405793G97417409G97588977G97866577
1839G98046228G98146690G98378769G98758949G99028937G99046204G99003273G99112445
1831G99242887G99093766G98665553G98298479G98240793G98446815G98773391G99057584
1823G99080659G98794739G98390227G97779381G96337066G93631380G90231027G87424096
1815G86235600G86842053G88683934G90899325G92776132G94049626G94839418G95309386
1807G95511955G95562185G95659192G95824481G95918192G96001229G96318308G96860716
1799G97319460G97523834G97615191G97784953G98066557G98370214G98595465G98753926
1791G98997700G99454873H00018552H00406502H00465366H00341125H00295210H00441193
1783H00735040H01122127H01566429H02006886H02391068H02714034H02985591H03212962
1775H03398971H03522741H03577444H03639919H03805601H04042232H04192374H04125426
1767H03865720H03604209H03535456H03638506H03728999H03733473H03709378H03613548
1759H03322683H02878774H02479129H02264081H02236611H02285664H02285978H02283074
1751H02448755H02757200H03007175H03243414H03740223H04465579H04993076H05074307
1743H04937665H04887435H04893478H04746554H04416212H04075745H03873333H03816196
1735H03809917H03748307H03645178H03656087H03851828H04061069H04071036H03889579
1727H03714558H03752152H04077079H04551363H04920477H05072816H05111980H05128305
1719H05073679H04934133H04836027H04848977H04853058H04762330H04723009H04890496
1711H05165821H05366428H05476699H05544039H05562483H05595760H05724868H05777217
1703H05439811H04704644H03929136H03459561H03407997H03689914H04075273H04327289
1695H04429241H04574359H04884296H05271540H05583046H05770310H05923591H06161478
1687H06430839H06484208H06182277H05725810H05434866H05421995H05602353H05852092
1679H06046027H06103949H06090921H06158810H06369620H06666607H06972933H07246060
1671H07445961H07477041H07195281H06595107H05968249H05684527H05775883H05929399
1663H05907816H05774941H05677855H05620954H05546236H05495064H05564994H05747864
1655H05908287H05948079H05932382H06029075H06359025H06901198H07479788H07855024
1647H07915379H07794983H07726937H07794120H07921971H08076586H08285670H08470423
1639H08434399H08062224H07403030H06582000H05760029H05162210H05026903H05444599
1631H06210218H06915325H07322426H07569575H07866718H08168806H08346339H08460063
1623H08617190H08739077H08683195H08458886H08202947H08042995H08050137H08214641
1615H08396883H08366431H07997474H07439761H06991299H06760475H06551156H06136128
1607H05561305H05109076H04979341H05070854H05130738H05091339H05143923H05459825
1599H05964639H06454384H06821928H07094035H07304453H07386862H07231619H06871531
1591H06532947H06398110H06396776H06372681H06339324H06369307H06351569H06101752
1583H05661452H05287943H05167390H05255372H05367762H05365250H05289355H05359286
1575H05776746H06455875H07004092H07090346H06787317H06449675H06385553H06754274
1567H07487478H08115436H08009325H07063426H05866376H05044090H04750950H04899443
1559H05494358H06514503H07693110H08623625H09069184H09131657H09114155
1552H09205825H09357537H09511838H09788811H10268274H10731413H10841056
1545H10531198H10128571H10147643H10881162H12058434H13082975H13713914
1538H14237172H14925798H15698088H16287744H16459391H16204707H15880251
1531H15858982H16042793H16112488H16075207H16069557H15901284H15309431
1524H14474667H13871197H13797971H14216059H14828869H15270895H15402514
1517H15376065H15331957H15236127H15134175H15265479H15705701H16148434
1510H16289942H16243636H16333894H16603881H16745232H16501145H15984008
1503H15512158H15240129H15113063H15100662H15222470H15398904H15521576
1496H15578713H15565763H15501798H15600689H16027646H16463786H16384516
1489H15782381H15178519H14919676H14819372H14519717H13988688H13532065
1482H13340562H13203606H12804040H12132916H11413054H10769714H10187669
1475H09679560H09320649H09171135H09293650H09787084H10654263H11622137
1468H12258963H12327323H11957660H11532507H11484632H12037636H12995072
1461H13931709H14640898H15167531H15417348H15121068H14289914H13368659
1454H12796819H12659706H12834727H13172604H13446595H13412218H13047500
1447H12582399H12294281H12357775H12737328H13130771H13228407H13082111
1440H13037767H13338757H13945287H14614684H15020293H14962921H14590275
1433H14283164H14242195H14280182H14093702H13688563H13405625H13495255
1426H13809273H14028246H14074866H14147856H14401048H14762392H15084886
1419H15316495H15452666H15448898H15316574H15252373H15545043H16305718
1412H17307968H18116597H18420333H18242801H17780761H17110579H16262158
1405H15559484H15583186H16539995H17828243H18594805H18626356H18321364
1398H18002323H17709418H17419338H17054306H16439691H15541825H14754387
1391H14613585H15169493H16014617H16688095H16843888H16452406H16019248
1384H16220483H17096766H17881221H17838526H17016318H16011243H15361231
1377H15222313H15268541H14917949H13962554H12860313H12233298H12282664
1370H12798938H13433566H13782745H13541404H12895161H12523692H12893355
1363H13676006H14090876H13755589H13040513H12611203H12770998H13321019
1356H13908949H14331903H14596789H14874547H15306763H15805063H16255723
1349H16774586H17294861H17220065H16275815H15353618H15542139H16647205
1342H17621201H18079787H18468288H19033771H19516609H19759834H19982259
1335H20351452H20584552H20196758H19163898H18058283H17320369H16854640
1328H16713446H17460935H19205024H21022105H22016271H22251961H22222922
1321H22167904H22193176H22361055H22502406H22454923H22411207H22632376
1314H22951810H22839968H21942260H20544368H19582065H19993247H21774302
1307H23739719H24540892H24029720H23342429H23552376H24612627H25757014
1300H26466438H26632826H26100699H24765750H23203982H22444642H22724517
1293H23093161H22653882H21568830H20461252H19539056H18729249H18161569
1286H18071782H18441446H19132348H20338736H22375967H24868566H26784380
1279H27531477H27498670H27429133H27664352H27921625H27743621H27246577
1272H26815146H26054236H24415709H22897420H23308131H25708432H28157315
1265H29033283H28283754H26736740H25552247H25804183H27417909H28961941
1258H28963824H27050208H24303711H22684570H23349336H25414506H27085762
1251H27894077H28657420H29352481H28757174H26593505H24455893H23867178
1244H24466959H24844942H24538459H24451811H25435854H27042673H28028521
1237H27822341H26969369H26250840H25880314H25560095H25035582H24488700
1230H24304103H24510126H24722977H24573777H23955866H23095437H22583560
1223H22917120H23818047H24437998H24381568H24225148H24801775H25986347
1216H26579378H25791626H24339579H23463610H23476952H23874321H24259838
1209H24599049H24962120H25382014H25798610H26074327H26112629H25942238
1202H25774830H25909667H26345179H26635023H26312528H25199536H23421071
1195H21625260H20817259H21286597H22212248H22853390H23414478H24329767
1188H25431615H26301855H26967249H27777056H28828752H29970156H31226227
1181H32519264H33086081H32230518H30670005H30130815H31548093H34212731
1174H36416662H36802808H35491170H33755243H32465031H31494881H30578256
1167H29916630H29918749H30692530H31630659H31816825H31262409H31060624
1160H31844295H33088671H34371898H35843174H37179378H37591501H37094928
1153H36517515H36262754H36053278H35601598H34892723H34090608H33392486
1146H32873466H32596101H32852982H33787500H34750744H34786612H33730913
1139H32173696H30577001H28999378H27516172H26530168H26828567H29211521
1132H33410301H37593385H39712553H39211506H37258883H35532060H34809451
1125H34545585H33766859H31968066H28715185H23376021H16479247H10620043
1118H08533760H10511734H14591374H18892812H22843815H26465889H29564861
1111H31729236H32578442H31949228H30131835H27945798H26357266H25914767
1104H26315119H26624193H26416522H26380653H27253170H28674294H29671993
1097H29855490H29565175H29118517H28454692H27487682H26398156H25519284
1090H25111084H25196946H25618174H26262535H27167543H28297253H29343455
1083H30008457H30361325H30661215H30995325H31227561H31176860H30816928
1076H30381888H30214244H30454486H30970916H31563005H32112085H32605205
1069H33054688H33348456H33281901H32826061H32249041H31846336H31555628
1062H30981198H29959012H28901037H28244119H27713012H26484568H24290054
1055H22208559H21531000H22360270H23832017H24999165H25487497H25465129
1048H25069723H23995815H21607286H17480086H11829180H05442715G99476535
1041G95311740G94247879G96685930H01080844H05222801H08470580H11219510
1034H13721606H15898146H17595066H18795098H19661100H20410786H21187706
1027H22090675H23147551H24166990H24911105H25478941H26176044H27087174
1020H28009762H28774833H29456866H30162130H30773919H31089585H31145780
1013H31157553H31223402H31323705H31454696H31633485H31874355H32201872
1006H32595787H32978714H33310862H33588698H33706504H33554086H33307016
999H33247368H33396175H33462337H33185051H32647430H32072449H31489387
992H30762617H29841598H28833069H27859072H26921650H26023077H25340809
985H25005444H24903806H24888580H24982526H25180700H25219315H24795104
978H23779432H22233125H20616495H19651603H19861628H21251359H23056509
971H24278282H24621025H24377251H23921568H23402313H22644699H21500548
964H20295178H19614715H19952043H21398361H23108229H24286523H25027655
957H25532546H25808500H25864538H25827101H25914767H26300364H27028781
950H28008350H28906687H29355620H29434105H29478999H29739411H30305208
943H31132516H32037132H32687928H32906430H32921499H33088279H33496635
936H33903265H34158105H34262804H34262569H34347960H34671082H35141206
929H35531982H35775049H35928958H35961686H35926210H36007992H36218410
922H36584227H37269007H38264038H39097546H39335434H39071646H38581195
915H38072299H37670536H37344196H36868342H35869780H34153553H31956528
908H29599237H27306618H25234541H23213165H20826991H18625807H17249419
901H16379022H16030628H16920097H19225352H22270954H25552090H28689206
894H31393478H33783497H36186387H38402328H40001848H41126770H42067254
887H42951228H43739216H44271735H44407592H44053704H43190921H41949527
880H40401807H38458994H36370592H34903632H34246479H33722436H32271251
873H29043799H24673767H21639309H22381932H27263059H34460586H41573034
866H47263183H51474991H54669558H57263245H59493705H61318241H62211789
859H61276566H57978477H53026008H48399800H46218080H47338136H51017503
852H56047673H62107249H69629545H77749583H84525490H90206768H96713551
845I05045026I13912553I22099301I29343920I33975779I32202964I15044382
838H64679274G90713630G48198257G41323538G48245740G58447901G67841276
831G75047279G80173043G84004200G87573924G91513939G95710835G99846749
824H02991556H03642352H01405614G94627902G79690361G57802441G39335911
817G32192617G36893699G50603188G67265510G81242477G92006353H01078489
810H08265970H13525629H18025398H22251883H25855041H28747442H31072868
803H32886887H34527455H36831219H39717890H41924098H43445760H44980531
796H47148438H50696030H56404229H63819395H71286046H78073176H83334012
789H81722248H64173518H31483579G97216802G72695247G60596579G57971812
782G60487878G65118089G70411810G75711259G81167681G87745099G95302400
775H01894416H06709538H10546031H14305768H18101607H20498768H18833870
768H10636917G95788064G82207055G83260242G94998743H05330874H11852490
761H16653798H21208427H25326446H27947917H28757174H28708592H29050942
754H30369330H32625062H35675217H39035622H41705047H43324816H44352103
747H45280186H46332196H47417720H48405608H49362259H50378008H51412517
740H52469943H53674292H55003040H56272061H57464402H58658234H59844453
733H60989782H62178748H63613372H65436181H67502686H69404687H70909082
726H72140587H73223679H73968970H73964811H72899301H70768046H67911278
719H64854060H62285487H61138275H62039202H64389194H66804721H68365626
712H69101186H69843338H71535000H74497250H78364197H82397767H85981383
705H89170848H92470035H96053257H99508552I02414765I04803686I06849235
698I08459351I09483420I10125818I10979497I12884010I16744049I23307810
691I32253901I39553772I36002884I13335925H75333899H39099430H21280476
684H25460263H43212190H63108165H78742573H90058354H99337847I08086705
677I16538339I24414211I31610483I38238210I44401150I49974590I54381748
670I56876937I57610377I58422303I61793853I68542290I77184800I85645854
663I93014242I99676817A006283432A012861243A018670531A022638879A023653451
656A020506918A012861792A003484507I98449864A003028275A017169980A036003820
649A053988219A067327260A073741822A072419196A064729413A053966636A043863052
642A036919973A032482443A024799723A003736522I60614225H96186369H22921908
635G57924486G12456986F87388391F76867975F74192193F74662160F75844612
628F77041584F78478248F80560921F83619944F87968316F93844787G01215844
621G09756323G19030480G28546213G37529112G44571318G47834480G46698177
614G43789609G44134785G51056595G63509935G77968954G91817440H04347695
607H15808673H26633454H37256763H48091355H59495824H71647233H84475181
600H97810533I11328519I23993690I33598974I37332260I33540973I23465723
593I11142353I01165130H96226553H96498660I00934464I09064624I21873109
586I41106045I67391938I98412584A028423915A049475657A053637549A035674027
579I95919671I41815233H85871112H40426137H11985051G97785031G87235419
572G69271818G40727367G07895528F80170302F63083455F56693065F57827446
565F62430461F67103839F70205950F72100730F74244072F77793154F82897963
558F89063335F95805808G02831689G09929148G17002590G24143765G31519531
551G39170465G46942971G54651670G62254728G69816660G77484546G85670667
544G95083820H06401407H19555773H32499799H41034786H42246670H38678673
537H35477513H31316092H16169860G82307908G35532930F91760074F63269621
530F50675714F46749591F44576582F41700428F39202689F39041010F42182325
523F48105651F55429774F62937238F70067189F76709201F82894588F88678054
516F94081653F99126343G03915721G08520267G12787721G16447624G19376677
509G21633193G23327209G24585713G25585217G26515497G27561700G28916033
502G30652274G32569344G34416483G36344306G38780238G41694850G44328564
495G45849207G46083327G45603079G45374688G46243436G48424215G51439915
488G54645705G57718149G60627110G63401861G66077644G68707591G71263605
481G73562033G75391356G76699619G77585870G78138246G78350547G78114308
474G77202158G75428323G73038853G70815850G69547614G69402652G69901972
467G70314489G69896165G68008919G64366518G58906488G51095210G40037015
460G26160667G12186057G01273530F94790764F93015595F96979313G07656071
453G23443681G39686502G50907395G53811568G49475911G43151449G40857966
446G45126832G53563085G60606154G59773352G44883295G11553625F60024823
439E96968645E32906997D76810772D33670739D06418973C97124960D04843547
432D24155046D47836225D71035232D92469824E12286922E29842048E43226179
425E49303885E44296594E27375585E05274540D90358230D91149749E05802115
418E25935428E44670535E59632327E70951601E79454016E86509800E93784163
411F02304434F11854621F21392408F30003289F37424223F43848636F49524617
404F54601563F59196809F63447781F67405220F70944178F73945672F76536691
397F79025915F81630119F84322854F86886168F89094808F90900979F92440851
390F93894703F95382303F96940149F98543121G00161714G01792629G03432882
383G05069290G06677915G08214176G09662456G11113876G12693618G14366678
376G15883161G17022211G17890332G18871627G20228394G21849654G23436695
369G24751159G25413571G24458097G20597743G13601844G05447430F99409752
362F97578309F99417757G02749671G05800062G08304905G11091037G14903593
355G19549108G23987973G27212913G29060759G30192039G31393170G32992377
348G34788501G36335986G37380462G38124576G38974645G40027597G40962116
341G41443855G41536310G41684097G42311662G43503689G45081233G46786630
334G48349025G49615928G50645256G51502703G52118023G52498989G52875951
327G53505478G54452397G55572924G56682935G57740125G58722990G59437202
320G59776412G60019716G60523275G61355684G62444347G63703322G64918345
313G65855845G66498793G67012476G67552216G68124684G68607287G69003165
306G69597608G70668768G72138004G73736190G75514185G77873202G80708388
299G82698448G82155176G78809448G74427720G71414924G70437160G69468579
292G66486942G63451071G65231892G73346906G82908316G86537532G78797597
285G56692118G19518656F69428637F09450985E40475915D63278696C84580460
278C17862200B75433572B60517870B67818173B89467204C18768307C50505892
271C81054765D08903409D34048133D56692528D76878191D94942644E11562703
264E27201113E41844925E55417890E68121636E80118430E91232505F01346762
257F10770511F19839508F28419191F36104148F42767311F48746597F54492430
250F60092321F65306615F70106981F74821013F79599874F84153405F88214994
243F91886042F95326658F98480256G01275963G03825463G06203317G08195339
236G09541276G10406648G11400424G13061790G15442155G18189045G20903128
229G23366452G25521016G27427803G29347935G31657586G34447171G37289812
222G39555119G40957407G41864926G43055462G44952360G47153154G48929814
215G49998384G50629245G51304529G52405435G54079437G56387753G59285726
208G62151128G64447514G66592032G69176067G72607265G77262355G83604241
201G91965305H00529096H02062453G86242350G51107846G10795384F85305327
194F82451855F94294426G09245310G21637981G31007496G38145767G43586883
187G47897345G51834458G55850996G59777589G63289393G66335859G69025453
180G71643079G74814101G79178640G84874518G91527831G98640673H05887724
173H13202664H20871100H29613757H40325048H53668720H69863116H88210115
166I06042961I17330644I11576453H76488097H08062695G21148157F44864582
159F01311523E90793539E99708981F15810491F33023541F48458519F60773019
152F70610069F79563379F88132977F95459375G00999775G05399397G09470247
145G13263103G16389153G18673688G20477662G22548640G25312953G28277638
138G30495383G31697142G32525078G33546558G34483980G34729951G34370177
131G34132211G34392232G34852231G35256585G35867432G37041251G38628998
124G40119503G41325029G42507481G43758764G44773730G45435357G46184730
117G47564257G49545763G51381836G52220289G52079879G51576557G49340839
110G40246334G19954482F94118463F77936546F80861910F97863758G17122279
103G30850448G38605923G43169501G46427248G49050681G51184290G52681466
96G53524942G54158785G55149342G56538444G57744049G58208601G58141889
89G58231283G58365806G57078106G53070515G47581916G44118382G44976221
82G49196191G54666660G60404292G66019487G70427036G72311613G71530140
75G69430750G67892682G68034741G69665890G71702491G73132093G73969604
68G74982842G76637146G78834092G81217989G83317065G84717077G85311835
61G85176213G84595740G84426526G85141052G85566675G83961269G80532111
54G77652503G76829433G76437245G72289323G58990388G30307412F80538082
47F07514726E17637309D32447593C82404194C82636940D22359863D79449784
40E36159878E84704650F24135256F54675064F76664778F92541233G05377108
33G15652494G22642429G28602565G35691155G42862468G48196060G51722225
26G55168178G59868553G66610085G75631598G85412452G93604460G99713168
19H05259924H11484710H18166592H25127801H33020233H42731471H54927145
12H69908559H88934923I13528056I35593586I28175203H68741568G71769832
5F76008724F13511396E95887988F13252828F40135638
##END=


$$ === CHEMSPECTRA PEAK TABLE EDIT ===
##TITLE=LSH-R44A
##JCAMP-DX=5.00
##DATA TYPE=INFRAREDPEAKTABLE
##DATA CLASS=PEAKTABLE
##$CSTHRESHOLD=0.93
##MAXX=3997.453
##MAXY=0.8154445294091418
##MINX=373.96442
##MINY=0.197848186176753
##$CSSOLVENTNAME=- - -
##$CSSOLVENTVALUE=0
##$CSSOLVENTX=0
##NPOINTS=36
##PEAKTABLE= (XY..XY)
376.7974837842062, 0.4525423057938972
434.8752913604376, 0.2904137676593286
456.1232697419855, 0.5957263713158394
477.37124812353386, 0.5831698781736177
491.5365670445658, 0.5651146778510058
500.03575839718496, 0.5757647166517491
524.1168005629397, 0.5148534185736774
558.1135659734164, 0.5575307611730409
596.3599270602031, 0.4486733677658841
647.3550751759185, 0.5182825334197245
763.5106903283813, 0.197848186176753
784.7586687099292, 0.5797967319172749
885.3324330492569, 0.5297701963857471
968.9078146833463, 0.372398585871837
987.3227292806878, 0.301593334159824
1005.7376438780293, 0.5626385813291754
1018.4864309069585, 0.5263050801964305
1069.481579022674, 0.5660687692666272
1116.2271314620793, 0.485314518812319
1175.721470930414, 0.4987202290004235
1242.298469859265, 0.5648649938592171
1266.3795120250193, 0.5120098000170867
1342.8722341986145, 0.6237148051263444
1457.6113174589523, 0.5940408120426045
1481.6923596247066, 0.5756355530517228
1529.8544439562156, 0.5560577522204523
1555.352018014073, 0.5629921562134422
1607.7636980219118, 0.6262918124906373
1644.5935272165948, 0.6221540578510488
1845.7410558952306, 0.6031851182987301
1954.8140115871943, 0.6155365712412546
2943.553272275215, 0.5971002586710819
3001.6310798514464, 0.5948064935172549
3041.2939728303363, 0.545572937599473
3062.541951211884, 0.6022651205083254
3103.6213760828773, 0.5933299668297854
##END=


$$ === CHEMSPECTRA PEAK TABLE AUTO ===
##TITLE=LSH-R44A
##JCAMP-DX=5.00
##DATA TYPE=INFRAREDPEAKTABLE
##DATA CLASS=PEAKTABLE
##$CSTHRESHOLD=0.93
##MAXX=3997.453
##MAXY=0.8154445294091418
##MINX=373.96442
##MINY=0.197848186176753
##NPOINTS=198
##PEAKTABLE= (XY..XY)
3984.7042129710712, 0.6168441183087645
3973.3719578342457, 0.616422176945776
3946.4578518842845, 0.6141940959218799
3933.709064855356, 0.6147618896206473
3920.960277826427, 0.615305842159848
3896.8792356606723, 0.6156384944197698
3888.380044308053, 0.6163402202542536
3878.4643210633308, 0.616044999366699
3865.715534034402, 0.6158108125463218
3850.1336832212664, 0.6165385257231816
3843.0510237607505, 0.6175294523492787
3833.135300516028, 0.6160357007600754
3817.553449702893, 0.6171504862845273
3813.3038540265834, 0.617289246192402
3799.138535105551, 0.6163155444680388
3777.890556724003, 0.6174047003472495
3759.4756421266616, 0.6172976501764674
3743.893791313526, 0.6169880044494642
3733.9780680688036, 0.6166468866906831
3724.0623448240813, 0.6185761098597654
3709.8970259030493, 0.6152879603408706
3694.315175089914, 0.6164199122900301
3687.2325156293978, 0.6170145279578217
3668.8176010320562, 0.6162906894535356
3657.4853458952307, 0.6164499527738265
3637.6538994057855, 0.616559923758156
3624.905112376857, 0.6157481084664063
3609.3232615637216, 0.6175237307140041
3592.3248788584833, 0.6171714673858986
3580.9926237216573, 0.6160573372598064
3558.328113448006, 0.6167327172953373
3544.1627945269743, 0.6178126938003027
3538.4966669585615, 0.6175237307140041
3521.4982842533227, 0.6168788680917828
3514.4156247928067, 0.6168113362397091
3501.666837763878, 0.6163983942632355
3486.084986950743, 0.6162906894535356
3480.41885938233, 0.6166338926397741
3460.587412892885, 0.6165689831405811
3433.6733069429242, 0.6157614594550083
3419.507988021892, 0.6153902419759626
3403.9261372087567, 0.6161282668549407
3398.260009640344, 0.6163126228950495
3394.0104139640343, 0.6164202099912549
3377.012031258796, 0.615560353923795
3360.0136485535572, 0.6169175517838431
3352.9309890930413, 0.6167212732653462
3344.431797740422, 0.6164597875464315
3335.932606387803, 0.6168407798021721
3326.0168831430806, 0.6166427743127946
3316.1011598983578, 0.6170524962556122
3304.768904761532, 0.6160349853658056
3296.269713408913, 0.6163558966539534
3284.9374582720875, 0.6174793253866692
3270.7721393510556, 0.6176265485150775
3262.2729479984364, 0.6179806003288575
3253.7737566458172, 0.6172965178485945
3241.024969616888, 0.617322624423349
3233.942310156372, 0.6177575590778046
3222.6100550195465, 0.6177499304839191
3214.1108636669273, 0.6184570794930108
3204.1951404222045, 0.6179918658900021
3194.279417177482, 0.6171872030220666
3181.5306301485534, 0.6180805573122936
3165.9487793354183, 0.6191388380810599
3157.449587982799, 0.6184806237107946
3131.952013924941, 0.6128321895220518
3123.452822572322, 0.6142278318499617
3103.6213760828773, 0.5933299660703436
3079.5403339171226, 0.6076176176558019
3062.541951211884, 0.6022651205083254
3041.2939728303363, 0.545572937599473
3001.6310798514464, 0.5948064935172549
2969.0508463330725, 0.6067965637533387
2960.5516549804533, 0.6062175044934267
2943.553272275215, 0.59710025791164
2901.0573155121187, 0.607777714843299
2872.7266776700544, 0.6102384934220064
2858.5613587490225, 0.6092520961074009
2854.311763072713, 0.6092873820564007
2840.146444151681, 0.6112652429225265
2827.397657122752, 0.6103218209061582
2818.898465770133, 0.6103745109851803
2804.7331468491006, 0.6112262015333313
2799.067019280688, 0.6111403709286771
2779.2355727912427, 0.6101416957168743
2755.1545306254884, 0.6116712101845905
2748.0718711649724, 0.6121792206169899
2732.4900203518373, 0.6118705879854813
2721.1577652150118, 0.6117267018447816
2714.075105754496, 0.6120588194576058
2702.7428506176702, 0.6134216797164603
2685.7444679124314, 0.6113711607654357
2664.496489530883, 0.6136617074044906
2646.0815749335416, 0.6113350401897879
2641.831979257232, 0.6114200961637041
2620.584000875684, 0.6123678682632756
2612.084809523065, 0.611477852479641
2606.418681954652, 0.6115704778109745
2595.0864268178266, 0.6124029765028707
2583.7541716810006, 0.611161590494805
2572.421916544175, 0.6144751911900945
2559.673129515246, 0.6152455812045249
2541.2582149179043, 0.6195974954221458
2528.5094278889756, 0.6180322773123849
2517.17717275215, 0.6190470466169326
2510.094513291634, 0.6198896177867484
2497.3457262627053, 0.6190215954405378
2488.846534910086, 0.6193262349265362
2459.0993651759186, 0.6145184641895565
2446.3505781469894, 0.6162754307468808
2430.7687273338543, 0.6171678311780814
2420.853004089132, 0.6168903121217739
2412.3538127365127, 0.6174549465422373
2401.021557599687, 0.6183696396309705
2395.3554300312744, 0.6177343133206875
2376.940515433933, 0.6191368111306287
2362.7751965129005, 0.6193700440919796
2342.943750023456, 0.6186516887582115
2334.444558670836, 0.6197192081376912
2323.1123035340106, 0.6191139823071147
2316.0296440734946, 0.6168439990763862
2306.1139208287723, 0.6170645364474948
2297.614729476153, 0.6171309959676057
2277.7832829867084, 0.6192137008257942
2253.7022408209536, 0.6202464111857874
2243.7865175762313, 0.6243887551327776
2236.7038581157153, 0.6245735296253733
2228.2046667630957, 0.6224249606495235
2219.7054754104765, 0.6252807386303751
2206.956688381548, 0.6245989215652998
2194.207901352619, 0.6212779884584658
2181.4591143236903, 0.6283843528808727
2170.1268591868647, 0.624942780149898
2160.2111359421424, 0.6269589670109493
2150.29541269742, 0.624781132941483
2136.1300937763876, 0.6256792550079582
2130.463966207975, 0.6261232498042809
2114.8821153948393, 0.6260110741601157
2106.38292404222, 0.624704421715164
2099.300264581704, 0.6259511124249012
2090.801073229085, 0.625372768559259
2075.21922241595, 0.627128005867377
2063.8869672791243, 0.6233630187277521
2039.8059251133695, 0.6304361233921485
2025.6406061923376, 0.630273462328797
2017.1414148397184, 0.6311422593057456
1994.476904566067, 0.6323083648760319
1980.311585645035, 0.6277016411932392
1956.2305434792804, 0.614034414908544
1937.8156288819387, 0.6272342798885373
1932.149501313526, 0.6275880932375607
1916.5676505003908, 0.6266239293440196
1895.3196721188428, 0.6304994828704236
1865.5725023846753, 0.6239050635489
1845.7410558952306, 0.6031851182987301
1787.6632483189992, 0.6328029643239192
1764.9987380453476, 0.626454950483502
1753.666482908522, 0.6224777707203657
1736.6681002032838, 0.6224497564275585
1723.9193131743546, 0.6271677026549319
1694.1721434401875, 0.6335739505002411
1682.839888303362, 0.634837389182199
1647.4265910007816, 0.6197278505865133
1606.3471661297885, 0.6239873179416471
1583.6826558561374, 0.642653466489552
1555.352018014073, 0.5629921562134422
1529.8544439562156, 0.5560577522204523
1481.6923596247066, 0.5756355530517228
1457.6113174589523, 0.5940408120426045
1443.4459985379199, 0.6293560276548048
1388.2012547458949, 0.6539844877287225
1342.8722341985927, 0.6237148051263444
1297.54321365129, 0.7582646617709016
1266.3795120250193, 0.5120098000170867
1242.298469859265, 0.5648649938592171
1209.718236340891, 0.6806319962407708
1175.721470930414, 0.4987202290004235
1116.2271314620793, 0.485314518812319
1069.481579022674, 0.5660687692666272
1036.9013455043, 0.5843166118999188
1018.4864309069585, 0.5263050801964305
1005.7376438780293, 0.5626385813291754
987.3227292806878, 0.301593334159824
968.9078146833463, 0.372398585871837
885.3324330492569, 0.5297701963857471
784.7586687099292, 0.5797967319172749
763.5106903283813, 0.197848186176753
647.3550751759185, 0.5182825334197245
596.3599270602031, 0.4486733677658841
558.1135659734164, 0.5575307611730409
524.1168005629397, 0.5148534185736774
500.03575839718496, 0.5757647166517491
491.5365670445658, 0.5651146778510058
477.37124812353386, 0.5831698774141758
456.1232697419855, 0.5957263713158394
434.8752913604376, 0.2904137676593286
376.7974837842062, 0.4525423057938972
##END=

##END=

