##TITLE=SVS-X10406
##JCAMP-DX=4.24
##DATA TYPE=INFRARED SPECTRUM
##DATE=9/4/2019
##SAMPLING PROCEDURE=Diamant-ATR
##ORIGIN=Angelika Moesle
##XUNITS=1/CM
##YUNITS=TRANSMITTANCE
##RESOLUTION=4
##FIRSTX=3997.453
##LASTX=373.96442
##DELTAX=-1.4165319
##MAXY=0.95724708
##MINY=0.66760075
##XFACTOR=1
##YFACTOR=8.9150581e-010
##NPOINTS=2559
##FIRSTY=0.93844736
##XYDATA=(X++(Y..Y))
3997+1052654218+1052791813+1053054901+1053183202+1052953476+1052398619
3989+1051894172+1051758115+1051807724+1051692928+1051499774+1051576662
3980+1052015721+1052693130+1053490149+1054163613+1054398821+1054202859
3972+1053919179+1053797029+1053794555+1053741871+1053556339+1053369068
3963+1053400692+1053645127+1053838280+1053832731+1053676684+1053306622
3955+1052622126+1051904936+1051700751+1052179524+1052928405+1053455316
3946+1053645060+1053595518+1053359708+1053095350+1053130183+1053535679
3938+1053893238+1053793084+1053369269+1053093478+1053154520+1053305620
3929+1053301942+1053155389+1052974069+1052851785+1052841288+1052897984
3921+1052938099+1052925730+1052839483+1052650608+1052408714+1052204796
3912+1052043199+1051918174+1051998471+1052488811+1053234950+1053669062
3904+1053406910+1052820495+1052469823+1052358571+1052389593+1052736788
3895+1053434188+1054223050+1054831997+1055175181+1055294523+1055122831
3887+1054397685+1053048415+1051750895+1051354491+1051814811+1052335036
3878+1052378829+1052289105+1052581276+1053207739+1053625203+1053515288
3870+1053251130+1053448563+1054130184+1054740802+1054761060+1054197310
3861+1053543970+1053110995+1052852587+1052711717+1052739262+1052895310
3853+1052845701+1052539088+1052491686+1052860410+1053327081+1053479451
3844+1053279946+1053150174+1053318523+1053411189+1053059180+1052486069
3836+1052133124+1052169829+1052677619+1053592375+1054449834+1054779446
3827+1054632625+1054406911+1054257081+1053942045+1053380635+1053099027
3819+1053387922+1053609758+1053298867+1052956953+1053175045+1053672940
3810+1053961567+1054001415+1054068541+1054317321+1054634698+1054825445
3802+1054686112+1054210548+1053737324+1053437264+1053204195+1053108120
3793+1053440941+1054223920+1055039124+1055456521+1055524783+1055640181
3785+1055973804+1056278211+1056253874+1055807126+1055019066+1054209010
3776+1053825711+1054059247+1054741872+1055515691+1055938570+1055645663
3768+1054758854+1053922723+1053707505+1054105714+1054604010+1054678490
3759+1054224454+1053748958+1053860076+1054557476+1055456855+1056238831
3751+1056641920+1056475844+1055920852+1055210549+1054234884+1052973400
3742+1052034842+1051834936+1052165216+1052764869+1053508201+1054138943
3734+1054222315+1053821365+1053560952+1053722281+1053990918+1053978148
3725+1053747554+1053741269+1054084052+1054416405+1054534744+1054675949
3717+1055074225+1055621661+1055985906+1055878732+1055431850+1055215363
3708+1055359509+1055452710+1055350952+1055304284+1055455451+1055568442
3700+1055437934+1055244981+1055220043+1055369338+1055583485+1055791548
3691+1055908350+1055648672+1054803448+1053899991+1053570646+1053656626
3683+1053705366+1053701421+1054098293+1055200854+1056696610+1057713794
3674+1057620460+1056866030+1055942581+1054836476+1053879599+1053737993
3666+1054362316+1055135534+1055548251+1055467887+1055054568+1054563895
3657+1054268314+1054395077+1054919915+1055581078+1056134799+1056416407
3649+1056473504+1056648940+1056866765+1056642723+1055893441+1055072152
3640+1054685109+1054752301+1054894175+1054858005+1054737125+1054798969
3632+1055229336+1055933622+1056441813+1056385986+1056236491+1056493829
3623+1056966718+1057114676+1056601404+1055725024+1055114340+1054888158
3615+1054781184+1054722483+1054783391+1054972867+1055298000+1055727097
3606+1056041599+1056018131+1055618452+1054960833+1054361982+1054205600
3598+1054505193+1054908683+1055231542+1055622530+1056139613+1056578271
3589+1056719476+1056410924+1055659035+1054875655+1054613570+1055013049
3581+1055683572+1056094484+1056152182+1056218773+1056545243+1056939039
3572+1057060922+1056888026+1056715331+1056751234+1056839353+1056769954
3564+1056679628+1056736191+1056829792+1056715464+1056280952+1055690325
3555+1055249795+1055104511+1055119956+1055104110+1055009238+1054848511
3547+1054637907+1054425966+1054210815+1053941577+1053715996+1053739330
3538+1054086793+1054660772+1055279680+1055675816+1055611900+1055154321
3530+1054669999+1054458459+1054510074+1054695271+1054932418+1055063527
3521+1054909820+1054606350+1054583350+1055077568+1055846506+1056425232
3513+1056521909+1056154188+1055616446+1055302212+1055374553+1055633495
3504+1055745282+1055521173+1055047080+1054602739+1054457857+1054693667
3496+1055135400+1055488680+1055636103+1055714661+1055837614+1055919783
3488+1055876993+1055783525+1055708443+1055626141+1055569110+1055589770
3479+1055531335+1055146833+1054477179+1053824641+1053348208+1052955950
3471+1052622929+1052546576+1052892502+1053547246+1054203862+1054653418
3462+1054952008+1055242039+1055447027+1055317790+1054833735+1054349948
3454+1054240166+1054515623+1054863019+1054979018+1054839084+1054636035
3445+1054486941+1054366662+1054362183+1054659502+1055179527+1055549588
3437+1055564564+1055382576+1055157396+1054780850+1054179459+1053573187
3428+1053196306+1052969589+1052697543+1052389058+1052191826+1052230737
3420+1052616644+1053310300+1053930612+1054065532+1053767143+1053455717
3411+1053457455+1053879666+1054648938+1055401162+1055698281+1055553131
3403+1055418412+1055585023+1055933221+1056186280+1056040462+1055255946
3394+1054027356+1053049886+1052858872+1053261761+1053658097+1053684907
3386+1053416003+1053145561+1053112332+1053391065+1053940641+1054589368
3377+1054946859+1054641918+1053837545+1053232677+1053312105+1053775233
3369+1053940841+1053620991+1053348008+1053651344+1054353959+1054822904
3360+1054712855+1054172773+1053544906+1053151177+1053197242+1053662911
3352+1054349279+1054987844+1055246652+1054905006+1054172773+1053565966
3343+1053397349+1053588965+1053880067+1054005159+1053866628+1053698012
3335+1053870573+1054453511+1055121360+1055457123+1055245382+1054588097
3326+1053865492+1053508334+1053679826+1054133861+1054449099+1054465613
3318+1054371610+1054276871+1053985971+1053381236+1052709711+1052262027
3309+1052068138+1052047746+1052163344+1052379096+1052674276+1053034241
3301+1053337110+1053418209+1053322535+1053318523+1053630752+1054233012
3292+1054858406+1055227999+1055328220+1055338382+1055231141+1054749025
3284+1053935091+1053353958+1053518363+1054313176+1055224589+1055947061
3275+1056524383+1057012917+1057287037+1057203263+1056818761+1056375690
3267+1056099832+1056001617+1055880671+1055540763+1054983364+1054431247
3258+1054204798+1054464409+1055011110+1055474907+1055736791+1055980891
3250+1056320532+1056620793+1056697881+1056510410+1056154857+1055784261
3241+1055468555+1055153652+1054839351+1054643991+1054562424+1054436462
3233+1054365125+1054782655+1055858474+1057107856+1057881876+1058005430
3224+1057692132+1057088133+1056260827+1055513618+1055274265+1055575997
3216+1055963909+1055988580+1055568910+1054926936+1054436596+1054446692
3207+1054983765+1055702359+1056255813+1056569981+1056716267+1056728970
3199+1056647068+1056636104+1056931083+1057553802+1058165422+1058367602
3190+1058088602+1057525922+1056895447+1056432921+1056388527+1056769352
3182+1057252939+1057494498+1057415739+1057169099+1056944521+1056834205
3173+1056836612+1056940109+1057122231+1057258355+1057187284+1056946460
3165+1056806793+1056965916+1057290380+1057450639+1057252270+1056787672
3156+1056357638+1056281487+1056634900+1057122030+1057351288+1057248928
3148+1057045477+1056920586+1056873117+1056831063+1056672474+1056291315
3139+1055823507+1055587630+1055660372+1055736658+1055509138+1054966649
3131+1054299068+1053680762+1053138072+1052496834+1051523777+1050245043
3122+1049122223+1048785324+1049467614+1050740731+1051952406+1052833533
3114+1053459594+1053798433+1053730037+1053416939+1053214358+1053235886
3105+1053300538+1053271522+1053220576+1053284559+1053536281+1053947661
3097+1054355965+1054563694+1054622596+1054849714+1055370675+1055838617
3088+1055814213+1055241972+1054393606+1053523444+1052732509+1051988309
3080+1051115807+1049856596+1048093473+1046038447+1044137061+1042750485
3071+1041954201+1041620912+1041610950+1041878852+1042490138+1043529519
3063+1044924385+1046356559+1047451633+1048131315+1048675074+1049247650
3054+1049464806+1048738322+1047041857+1045081302+1043670389+1043058903
3046+1042843084+1042393795+1041331282+1039693786+1037835123+1036231658
3037+1035249174+1034951721+1035191274+1035898235+1037163330+1038977532
3029+1041032358+1042893161+1044333491+1045406368+1046175306+1046502578
3020+1046238487+1045540820+1044789265+1044111387+1043164271+1041559469
3012+1039434108+1037443466+1036242890+1036098610+1036895094+1038320782
3003+1040035566+1041745068+1043207863+1044245572+1044724679+1044539950
2995+1043768604+1042831049+1042221434+1042037173+1041996924+1041866817
2986+1041621180+1041236677+1040607406+1039705687+1038659554+1037582197
2978+1036384362+1034822684+1032728746+1030177965+1027475883+1025008474
2969+1023019437+1021425867+1019846806+1017886852+1015429204+1012654380
2961+1009824465+1007153005+1004860029+1003177337+1002232895+1002028041
2952+1002508686+1003487560+1004552414+1005268601+1005476998+1005220530
2944+1004413348+1002815767+1000350497+997211630+993566978+989345406+984420550
2934+978825505+972649862+965927519+958831102+951892605+945835502+941218529
2924+938294544+937045095+937196261+938408003+940633919+944092370+948774798
2914+954222353+959852899+965262344+970240620+974765997+978949594+982827983
2904+986303349+989305692+991831602+993871919+995511087+996972477+998382654
2894+999615323+1000455465+1000782670+1000656642+1000443029+1000726509
2885+1001842509+1003607370+1005627831+1007634920+1009433143+1010829882
2877+1011768707+1012382133+1012856493+1013299163+1013723045+1014106277
2868+1014414361+1014525011+1014215190+1013302974+1011694896+1009299293
2860+1006056928+1002017478+997246931+991794027+985931282+980409447+976418536
2850+975147558+977033968+981406306+987097560+993286775+999512428+1005255029
2840+1010063885+1013960727+1017311402+1020357269+1023098530+1025494267
2832+1027539666+1029222425+1030577778+1031709958+1032648182+1033329469
2823+1033849560+1034515136+1035481640+1036526236+1037351469+1037969709
2815+1038615026+1039361767+1040039043+1040525906+1040915891+1041290498
2806+1041565687+1041708831+1041874506+1042174299+1042497626+1042675670
2798+1042693187+1042717590+1042958281+1043430969+1043878185+1044067395
2789+1044117672+1044345525+1044827374+1045315641+1045589693+1045695597
2781+1045765130+1045756705+1045522835+1045062381+1044555394+1044171359
2772+1043972456+1044014042+1044387512+1045068933+1045822628+1046408107
2764+1046828379+1047232671+1047626200+1047847902+1047825906+1047700011
2755+1047662170+1047774492+1047981953+1048238222+1048533936+1048809058
2747+1048967647+1049008765+1049044333+1049155786+1049333496+1049533603
2738+1049685371+1049699211+1049567032+1049388921+1049231336+1049072481
2730+1048932880+1048912488+1049038784+1049205462+1049315043+1049356762
2721+1049320993+1049194363+1049080771+1049151373+1049408310+1049672133
2713+1049841218+1049985432+1050144889+1050240898+1050225052+1050168156
2704+1050156589+1050197975+1050246848+1050276801+1050297259+1050290172
2696+1050188949+1049993254+1049838410+1049849041+1049959558+1049981888
2687+1049830722+1049639774+1049652076+1049966110+1050397480+1050653080
2679+1050604674+1050331892+1049999673+1049781514+1049764131+1049856863
2670+1049943445+1050084717+1050349075+1050558876+1050520901+1050393536
2662+1050491750+1050822833+1051102168+1051146495+1051029359+1050904601
2653+1050834734+1050775364+1050658027+1050499907+1050423488+1050512142
2645+1050663844+1050692459+1050588093+1050535877+1050627941+1050738525
2636+1050792814+1050963771+1051440337+1052120421+1052668192+1052825710
2628+1052621926+1052303412+1052056437+1051818823+1051436125+1050974602
2619+1050761992+1051075491+1051831860+1052592642+1052898519+1052664715
2611+1052291846+1052306220+1052836809+1053512346+1053904738+1053961567
2602+1053932618+1054003153+1054137672+1054212687+1054117682+1053749091
2594+1053148904+1052698612+1052837343+1053463472+1053994395+1054143690
2585+1054150108+1054183671+1054143088+1054075628+1054176918+1054388391
2577+1054525785+1054662176+1054930680+1055188753+1055263166+1055295860
2568+1055567840+1056120024+1056668463+1056847309+1056573725+1056169298
2560+1056021809+1056211285+1056551862+1056802113+1056725827+1056236959
2551+1055632827+1055439606+1055902266+1056746152+1057405042+1057401699
2543+1056664853+1055633896+1054926668+1054821767+1055183204+1055836277
2534+1056690259+1057462741+1057709582+1057323140+1056692933+1056275269
2526+1056284362+1056710316+1057263369+1057457927+1057130989+1056669466
2517+1056501250+1056653554+1056910490+1057050091+1056932152+1056654556
2509+1056511212+1056619991+1056789343+1056794157+1056550859+1056141351
2500+1055906812+1056253607+1057105115+1057836546+1057958830+1057573458
2492+1057074360+1056742542+1056704099+1056939239+1057269787+1057535215
2483+1057745953+1057958763+1058156062+1058361652+1058663985+1059008039
2475+1059173647+1059051630+1058767816+1058470096+1058244650+1058307296
2466+1058900464+1059793491+1060313582+1060175119+1059833138+1059710319
2458+1059586163+1059117352+1058497909+1058172041+1058190227+1058226798
2449+1058089939+1057907616+1057859077+1057998410+1058325816+1058761064
2441+1059037256+1058891103+1058334106+1057572790+1056842495+1056442682
2432+1056614107+1057216234+1057800509+1058068077+1058051161+1057910625
2424+1057767548+1057639046+1057405309+1056970529+1056530133+1056477248
2415+1056931283+1057547918+1057960167+1058233484+1058666526+1059304890
2407+1059911162+1060308033+1060488417+1060431788+1060021278+1059218375
2398+1058270657+1057643659+1057604213+1057906814+1058060388+1057866298
2390+1057534747+1057368470+1057511347+1057918648+1058433993+1058914972
2381+1059291385+1059468626+1059321605+1058925268+1058625609+1058722553
2373+1059192501+1059797235+1060262703+1060311844+1059749431+1058643995
2364+1057445090+1056834339+1057230608+1058358108+1059407116+1059652152
2356+1059018001+1058215767+1058073091+1058558082+1058899795+1058608894
2347+1057917177+1057460668+1057658903+1058274602+1058737329+1058724158
2339+1058302549+1057833872+1057679830+1057788475+1057732514+1057325012
2330+1056912429+1056796497+1056700288+1056205937+1055451239+1055065332
2322+1055440609+1056286300+1057031237+1057421623+1057571185+1057680966
2313+1057866565+1058081047+1058111401+1057795294+1057290513+1056971465
2305+1056987244+1057086729+1057024885+1056976480+1057284496+1057845371
2296+1058108459+1057778112+1057192967+1056794023+1056506131+1055991121
2288+1055349882+1055134197+1055629818+1056489684+1057161945+1057428309
2279+1057503190+1057808532+1058613240+1059728638+1060630090+1060923799
2271+1060575601+1059766748+1058779450+1058025956+1057971667+1058842965
2262+1060274270+1061349152+1061302084+1060260296+1059082452+1058442149
2254+1058354966+1058599868+1059178862+1060142759+1061342333+1062598669
2245+1063808137+1064678098+1064752177+1063983841+1063017135+1062607962
2237+1062770027+1062666597+1061540100+1059702363+1058301078+1058121363
2228+1058977886+1060114010+1060815087+1060923264+1061031174+1061806664
2220+1063083325+1064044080+1064172248+1063679969+1063245925+1063483941
2211+1064280558+1064704374+1063999552+1062446165+1060886158+1059755248
2203+1059034247+1058763270+1059037657+1059710921+1060674417+1062137613
2194+1063839226+1064396491+1062622804+1059418950+1057198583+1057326082
2186+1058890568+1060066407+1060179331+1060099903+1060673481+1061466355
2177+1061622937+1061266783+1061196581+1061654494+1062168702+1062301216
2169+1062030840+1061626080+1061318130+1061109732+1061224862+1062511686
2160+1065394687+1068454060+1069830072+1069889643+1070164698+1070780799
2152+1070804266+1070077248+1069281499+1068658111+1067891112+1067074771
2143+1066811884+1067334783+1068010254+1067816832+1066409664+1064677831
2135+1063822110+1063921395+1064191637+1064441486+1065181408+1066410867
2126+1067342205+1067468366+1067162021+1067040339+1067235365+1067407860
2118+1067212031+1066680507+1066220655+1066116155+1066089212+1065658710
2109+1064827326+1063970135+1063224998+1062559289+1062185484+1062244453
2101+1062347615+1062085530+1061698487+1061697417+1062185952+1062949876
2092+1063772903+1064350492+1064375965+1063977222+1063714602+1064021014
2084+1064849456+1065731519+1065996412+1065312317+1064167568+1063364598
2075+1062996877+1062493032+1061577139+1060470499+1059362856+1058454852
2067+1058243647+1059082452+1060712593+1062554609+1064033316+1064595328
2058+1064086669+1063068683+1062266717+1062011251+1062416145+1063376633
2050+1064200930+1064149850+1063580217+1063518974+1064186154+1065000556
2041+1065558958+1065716810+1065306901+1064381782+1063246326+1062047755
2033+1060732718+1059425168+1058817960+1060133265+1063952217+1068887369
2024+1072418161+1073241121+1071969741+1069931095+1068402244+1068330706
2016+1069562839+1070828535+1071051976+1070134545+1068524662+1066886565
2007+1066077712+1066515501+1067551204+1068195251+1068333848+1068547728
1999+1068859823+1068497919+1067153530+1065648615+1064914376+1064936372
1990+1065088007+1064938512+1064250673+1062954222+1061611237+1061160678
1982+1061692671+1062240976+1062406384+1063402708+1066370953+1070313124
1973+1073090355+1073741823+1072758202+1070871592+1068792363+1067537699
1965+1067613182+1068173054+1068047293+1067219787+1066512225+1066331038
1956+1066569990+1067173855+1068045822+1068812621+1069116426+1068879346
1948+1068253284+1067594796+1067304496+1067412406+1067463954+1067038467
1939+1066217312+1065409529+1065004300+1065130863+1065574937+1065994540
1931+1066278755+1066598338+1067094160+1067626553+1067927416+1067916050
1922+1067745762+1067518176+1067169175+1066758263+1066583295+1066755188
1914+1067003500+1067073367+1066924407+1066468299+1065553141+1064381046
1905+1063454924+1062928280+1062363528+1061191634+1059178193+1056549321
1897+1053931615+1052030496+1051052091+1050595515+1050340784+1050560748
1888+1051714189+1053695404+1055848512+1057555874+1058665389+1059463411
1880+1060235692+1061015729+1061798909+1062666062+1063528468+1064070222
1871+1064169640+1064164158+1064388133+1064544047+1064188227+1063509547
1863+1063081252+1063255686+1063929151+1064681842+1065093757+1065074435
1854+1064892313+1064790354+1064766552+1064833811+1065141628+1065617124
1846+1065798110+1065371286+1064780057+1064601813+1064708653+1064732120
1837+1064725100+1065027099+1065607497+1066000691+1065908627+1065569922
1829+1065432462+1065502128+1065419357+1065044817+1064635376+1064484677
1820+1064632835+1064893449+1064954625+1064617057+1064041473+1063574935
1812+1063342134+1063187290+1063027699+1063021882+1063271732+1063625814
1803+1063881481+1064026764+1064145772+1064177797+1064032982+1063852197
1795+1063863763+1064047223+1064075236+1063726770+1063163421+1062603482
1786+1062148110+1061882348+1061888432+1062106925+1062259028+1062057383
1778+1061568916+1061165292+1061108863+1061280489+1061233153+1060708916
1769+1059959968+1059276208+1058684712+1058085059+1057437134+1056870977
1761+1056638711+1056812877+1057157666+1057320199+1057117685+1056670602
1752+1056178859+1055673142+1055017863+1054183270+1053339049+1052628411
1744+1052061652+1051560281+1050995662+1050288434+1049512208+1048719067
1735+1047813002+1046884473+1046393665+1046415194+1046582808+1046675741
1727+1046722341+1046860738+1047180990+1047589829+1047852047+1047823298
1718+1047634089+1047664577+1048063521+1048577528+1049039386+1049440135
1710+1049755974+1049933750+1049997333+1050081909+1050268443+1050491884
1701+1050714055+1051005357+1051392400+1051786062+1052098358+1052264434
1693+1052257614+1052066332+1051731840+1051461063+1051446355+1051434320
1684+1050716261+1049327144+1048310963+1047965573+1047972326+1048117943
1676+1048425425+1048947522+1049602801+1050325808+1051074956+1051668258
1667+1052005892+1052259888+1052583549+1052958892+1053326011+1053722682
1659+1054186345+1054684641+1055208276+1055694002+1055703964+1055047949
1650+1054430512+1054249593+1054476912+1054753572+1054719073+1054561688
1642+1054603074+1054871644+1055152984+1055280951+1055369806+1055643591
1633+1056013719+1056332968+1056652083+1057013319+1057302749+1057426370
1625+1057463810+1057455520+1057313780+1057090139+1056922592+1056700288
1616+1056055973+1054914567+1053580408+1052227929+1050943914+1049844093
1608+1048846365+1047492884+1044984558+1040013235+1030864801+1017025047
1599+1001163964+988312711+982354492+983523511+989352493+997400438+1006249280
1589+1014773457+1022030601+1027782897+1032341502+1036014101+1038941295
1581+1041231061+1043067193+1044686102+1046138534+1047083176+1047306951
1572+1046949727+1045991378+1044410445+1042831851+1042128902+1042556662
1564+1043770744+1045248715+1046801836+1048623660+1050488207+1051769816
1555+1052729902+1053717735+1054714928+1055531402+1055978284+1056027492
1547+1055781787+1055240234+1054300205+1052971395+1051354291+1049726489
1538+1048618579+1048097685+1048011638+1048483659+1049632018+1051134326
1530+1052596185+1053905874+1055057777+1056034044+1056705837+1056745751
1521+1055909821+1054413196+1052462535+1050001946+1047372940+1045277799
1513+1044033564+1043459852+1042937488+1040305072+1030221623+1011168720
1504+991707245+974977002+957544880+935695424+909382569+887520543+883373585
1494+897405423+919541768+943150068+965578384+983726827+995479529+1002177604
1485+1005978035+1007990740+1008525474+1007823126+1006712073+1006420972
1476+1007807749+1010862174+1014538985+1017134494+1017972497+1017852019
1468+1017571013+1017395911+1017186844+1016569474+1014997968+1010642745
1459+998529342+974365382+950358472+944454810+953229372+966368918+978198307
1449+987350485+994588040+1000448244+1004911376+1008281240+1010984392+1013071376
1439+1014281045+1014253165+1013001576+1011501140+1010770378+1010982252
1431+1011661934+1011740426+1010089893+1006048638+999262110+990236026+980624731
1421+972032024+965993307+964314226+966589617+970452963+974810124+980183600
1411+987168831+995189966+1002892855+1009430068+1014727191+1018894140+1022033142
1401+1024309068+1025763840+1026290216+1025878770+1024716035+1023215666
1392+1021962807+1021385083+1021652383+1022768317+1024454820+1026165525
1384+1027429818+1028015831+1027950912+1027576304+1027360820+1027608864
1375+1028412302+1029648914+1030947371+1031927582+1032434235+1032473882
1367+1032171682+1031788918+1031649585+1031999522+1032816999+1033839598
1358+1034874165+1035923441+1037067722+1038308079+1039516143+1040559870
1350+1041439258+1042221434+1042892091+1043354483+1043550646+1043532929
1341+1043449088+1043470683+1043650399+1043857660+1043974796+1044061778
1333+1044242563+1044483454+1044568164+1044298791+1043606272+1042420071
1324+1040629335+1038286617+1035675530+1033137585+1031077344+1030085232
1316+1030642698+1032606262+1035185658+1037493008+1039063378+1039852642
1307+1039968708+1039587682+1038947713+1038154706+1036958475+1034927518
1299+1032098472+1029412236+1028111171+1028520813+1029711761+1030438913
1290+1030025862+1028338022+1025503962+1021996102+1018683938+1016480352
1282+1015868063+1016712685+1018478883+1020596088+1022633664+1024281389
1273+1025333071+1025663018+1025171675+1023828022+1021697713+1018765237
1265+1014809160+1009675839+1003696025+997725771+992772968+989607290+988631826
1255+989892174+993003429+997159547+1001464759+1005351906+1008645886+1011289934
1245+1013192925+1014303643+1014561382+1013678985+1011101126+1006075715
1237+997609170+984803515+968119738+950524214+936712742+930563107+933093897
1227+942482153+955472939+968808580+980182329+988673345+994522117+998437411
1217+1001024965+1002672891+1003698833+1004417293+1005100719+1006016679
1208+1007496189+1009770979+1012680054+1015692091+1018285595+1020211318
1200+1021426335+1021957792+1021883981+1021313344+1020283525+1018714425
1191+1016544135+1013853753+1010745306+1007192986+1003209429+999118832+995464286
1181+992473108+989546649+985668462+980966712+977666381+978463868+983785529
1171+991445093+998918725+1005046029+1009723375+1013071376+1015228295+1016425127
1162+1016873011+1016581509+1015498470+1013887851+1012252027+1010856558
1153+1009882365+1010043159+1012192523+1016119584+1020445255+1023846676
1145+1025854099+1026508308+1025720650+1023049991+1018145861+1011785021
1136+1006370427+1004628365+1007382864+1012887984+1018424995+1022168931
1128+1023515660+1022246220+1017885114+1010024907+999483144+989158804+983033773
1118+983422220+988980760+995657172+999658781+999643604+996721758+993183746
1108+991261300+992259964+996041875+1001124116+1005441095+1007238516+1005435546
1098+999308576+988309034+973117804+957280790+946700048+945933249+954666092
1088+968309750+981830522+992550396+999934237+1003903085+1003757467+998802458
1078+990310573+982419545+979821829+984086191+992745690+1001899205+1009072108
1068+1013862044+1016926498+1018850883+1019662945+1018918744+1015705597
1060+1008354517+995179536+977157522+959884189+950900961+953728737+965125552
1050+978607614+989692000+997514298+1003084872+1007423848+1010959988+1013702987
1040+1015618079+1016851282+1017661940+1018261994+1018783824+1019350315
1031+1020054601+1020823674+1021453212+1021871211+1022229505+1022769052
1023+1023735557+1025210988+1026902973+1028445798+1029880311+1031407758
1014+1032513462+1030910666+1022354263+1004130270+981170363+965896964+967635282
1004+983313040+1001745565+1015034940+1022662747+1027189462+1030352933
996+1032813389+1034827699+1036430628+1037473753+1037659285+1036509053
987+1033150623+1026702666+1018134027+1011045032+1008023300+1006125592+998634042
977+982111996+960617759+943354722+938795715+949198947+968987828+989111134
967+1003737009+1012524541+1017636601+1020580376+1021574426+1020107420
959+1015863249+1009998966+1005314800+1004221933+1006528480+1010017419
950+1013211311+1016544068+1020589937+1024273834+1025221217+1021153954
942+1011646824+1000076512+992887630+994644401+1003986658+1015610457+1025223624
932+1031583261+1035275449+1037266960+1038348261+1038912880+1038816203
924+1037436981+1033584467+1024615948+1006682121+979385511+951098595+934937250
914+936051512+945743438+950676117+945454142+934597944+925562901+922727972
904+926459339+934950221+945916468+957257857+967467000+976186270+984034643
894+991536155+998481471+1004383596+1009086750+1012727189+1015398650+1017153415
884+1018263799+1019199616+1020282722+1021562994+1023008940+1024580915
875+1026187321+1027799611+1029490727+1031225302+1032794602+1034046659
867+1034996516+1035724069+1036315899+1036792533+1036969708+1036606667
858+1035737240+1034524897+1032738307+1029726537+1024904910+1017770518
850+1007111887+990326218+964147280+927418088+884386021+844822033+819110302
840+812019167+820890540+839140207+860821514+882508437+902556661+919900062
830+933839101+944559309+953149275+960674923+967370456+972921508+977202250
820+980376219+982515086+983535813+983517493+982897248+982312170+982228464
810+982668927+983335772+984018263+984710515+985180328+984557275+981615372
800+975618442+966982878+957318832+949032336+944772521+946575357+954648909
790+966817069+979770883+991171776+1000368683+1007528348+1012973629+1017204696
781+1020667760+1023346842+1024928311+1025235525+1024290415+1022024785
772+1017898351+1010502877+996848054+971449955+928078114+867045763+802504549
762+757853507+748846211+771807321+809905907+848131524+880352388+906059038
752+925862962+940650701+951939874+961160181+968763986+974423950+977911618
742+979346265+978642714+975271447+968649992+958546352+945528221+931461349
732+919180867+911145825+908057034+908331689+909008630+907991379+905809790
722+904931605+907290770+912152512+915661307+912905739+902192149+888688493
713+882765909+891971173+914168894+939514977+958109366+965033822+960735764
703+948532837+929964056+903826637+873481886+850164219+840831390+838410113
693+834263355+833550377+846833468+871801066+893360691+898556256+885969897
683+865220796+850785802+852158739+867514975+886967424+900941095+906140539
673+906151838+907219366+914177385+928673956+945325841+956664690+963271636
663+968502302+973595574+978183464+981749423+984277406+986198849+987859745
653+988840625+988379636+986487811+983774029+980232072+975033565+967501699
643+957805561+946970958+936857958+930051172+928869450+933824793+943138702
633+954056076+964593894+974018454+982262561+989240705+994606024+998287649
623+1001065481+1004002035+1007249013+1009394298+1007982650+1001997621+994595060
613+991400566+994920393+1002191042+1008750185+1013088091+1016068571+1018214324
603+1019337946+1019503421+1019038354+1018134495+1016647030+1013765767
595+1007914054+996718014+976801367+945957318+908330753+875842188+861383659
585+869491911+893592756+922298340+947004254+964538803+975927662+983618984
575+989241976+993311913+996141361+998352902+1000590051+1002917793+1004735539
565+1005698433+1006482147+1008016347+1010219799+1012131414+1012861708
557+1011526412+1006947415+999232893+991712393+989282826+993745156+1001823990
547+1008606439+1011959588+1012768240+1012256907+1010823263+1008885640
538+1007232900+1006345689+1006170654+1006543925+1007273884+1007998228
530+1008338738+1007806946+1005276490+998951820+986618586+965043918+930545322
520+883874956+836184732+805826743+803906704+825787316+858392816+890603584
510+916988246+936457944+949601368+957261936+960564406+961025461+960181909
500+959068449+958110970+957160645+954900029+948970693+938615130+927500324
490+922042740+926094827+938467774+954681135+969525503+979466075+984290109
480+986303683+987994131+990419820+993032579+994903277+996055180+996888436
470+996420494+993103449+987755580+983854861+984062724+987620459+991949206
460+995582826+998670480+1001343545+1002981576+1003397301+1003336193+1003659186
450+1004604764+1005674699+1006322824+1006680048+1007159222+1007544594
442+1007573945+1008101859+1009888248+1011716424+1011455008+1009015144
433+1006531422+1005185696+1003813160+1000834419+996580955+993574667+994546654
424+999354040+1004434943+1006647889+1006804539+1008304573+1011104536+1012524408
414+1011759949+1009742363+1007956108+1007771645+1009700376+1012988940
405+1016511174+1019670500+1021559316+1020281519+1014779541+1008177609
397+1006582502+1010739824+1015569273+1017235517+1015206432+1010443106
388+1003448515+994947938+988109863+987013987+991840895+999769899+1008763690
378+1017568138+1025222822+1030292894+1029120867
##END=
