##TITLE=X7500
##JCAMP-DX=4.24
##DATA TYPE=INFRARED SPECTRUM
##DATE=29/10/2018
##SAMPLING PROCEDURE=Diamant-ATR
##ORIGIN=ComPlat
##XUNITS=1/CM
##YUNITS=TRANSMITTANCE
##RESOLUTION=4
##FIRSTX=3997.453
##LASTX=373.96442
##DELTAX=-1.4165319
##MAXY=0.99379921
##MINY=0.52822769
##XFACTOR=1
##YFACTOR=9.2554764e-010
##NPOINTS=2559
##FIRSTY=0.98084068
##XYDATA=(X++(Y..Y))
3997+1059740894+1060334076+1060724530+1060415220+1059824034+1059449358
3989+1059263373+1059226150+1059592325+1060341032+1060979229+1061195353
3980+1061170108+1061125737+1061025661+1060774954+1060418826+1060143068
3972+1060122782+1060324610+1060536355+1060649826+1060730647+1060773151
3963+1060667214+1060475948+1060446711+1060632245+1060743785+1060445423
3955+1059683772+1058772522+1058200205+1058282829+1058944983+1059746819
3946+1060139011+1059942786+1059666127+1060026892+1060937240+1061662377
3938+1061962864+1062051156+1061828527+1061141322+1060491082+1060487733
3929+1060770639+1060579502+1059930615+1059510731+1059713782+1060053424
3921+1059829636+1059035206+1058241034+1057880720+1057963730+1058403642
3912+1059186867+1060193621+1060997132+1060957526+1059768715+1057990392
3904+1056804092+1056819290+1057546616+1058399263+1059167933+1059739864
3895+1060066562+1060138882+1059958306+1059729496+1059751262+1059897385
3887+1059651508+1058619831+1057066970+1055795083+1055530853+1056662349
3878+1058657504+1060360802+1061038927+1060525342+1059197557+1057877822
3870+1057439584+1058168907+1059372981+1060200705+1060293827+1059739993
3861+1058912268+1058161887+1057649462+1057332488+1056986793+1056421173
3853+1056157458+1057103677+1058804142+1060374584+1061388937+1061701854
3844+1061345790+1060507053+1059457730+1058416458+1057663243+1057744515
3836+1058848899+1060185958+1060685439+1060000423+1058811934+1058072243
3827+1058173672+1058926887+1059816950+1060284875+1060023736+1059345032
3819+1058947688+1059072558+1059665289+1060550201+1061180348+1061004924
3810+1059887016+1058205292+1056930765+1056907388+1057484084+1057343694
3802+1056375192+1055833851+1056664925+1058532441+1060661289+1062143633
3793+1062489586+1062143762+1061760199+1061496935+1061228647+1060954886
3785+1060731871+1060491662+1060126904+1059638113+1059195754+1059000366
3776+1059017690+1059126138+1059370920+1059773223+1060044859+1059781659
3768+1059096643+1058678370+1059037460+1059896097+1060433573+1060102174
3759+1059065732+1058052730+1057645018+1057749860+1057827139+1057304539
3751+1056218122+1055524091+1055548884+1055520034+1055004775+1054572011
3742+1054862516+1055218001+1054616769+1052746161+1050338914+1048852964
3734+1049005591+1050326936+1052349268+1054643108+1056535160+1057495805
3725+1057470045+1056854001+1056259789+1056183926+1056648567+1057273048
3717+1057785795+1058104185+1058049446+1057500892+1056977970+1057329977
3708+1058376401+1059210823+1059319529+1058778961+1058064580+1057692352
3700+1057745867+1058007780+1058449366+1059211983+1060390426+1061881335
3691+1063195403+1063491575+1062422740+1060844248+1059565470+1058587953
3683+1057756944+1057085517+1056663379+1056457945+1056302357+1056368495
3674+1057079334+1057798804+1057439262+1056216577+1056105552+1058153773
3666+1060763877+1062179053+1061915015+1060554837+1058962113+1057633491
3657+1056872097+1056962514+1057520727+1057580104+1056750254+1055555196
3649+1054788844+1054538008+1054787556+1055930322+1057783927+1059520455
3640+1060565528+1061095083+1061324280+1060902336+1059597606+1057945634
3632+1056510109+1055100987+1053665075+1053357375+1054514116+1055824385
3623+1056487633+1056707815+1057029361+1057666721+1058304338+1058512219
3615+1058178502+1057649397+1057558015+1058143082+1059146360+1060369818
3606+1061514902+1061940453+1061334134+1060042283+1058646428+1057565485
3598+1056954529+1056675744+1056463612+1056331787+1056447126+1056580046
3589+1056307380+1055768293+1055828635+1056871775+1058142117+1058825265
3581+1058845422+1058773230+1059019751+1059297827+1059282242+1059222608
3572+1059339751+1059274836+1058671737+1057869965+1057624797+1057975773
3564+1058255395+1058321082+1058559102+1059184226+1060033267+1060807347
3555+1061165729+1060800714+1059880061+1059156599+1059105530+1059416772
3547+1059505643+1059051757+1058338277+1058266600+1059501908+1061511940
3538+1062904511+1062876240+1061924353+1060921334+1060164899+1059620532
3530+1059316825+1059202709+1059069209+1058890630+1059051950+1059944589
3521+1061219052+1061808692+1061129988+1059972410+1059636825+1060276825
3513+1060790024+1060398154+1059661876+1059655179+1060495010+1061244876
3504+1061147633+1060477107+1060067850+1060131991+1060122460+1059723120
3496+1059366927+1059652216+1060512463+1061247710+1061377345+1061240239
3488+1061601648+1062666813+1063735327+1063939344+1063116707+1061864269
3479+1060816492+1060204119+1060147962+1060756858+1061661669+1062050640
3471+1061515933+1060393131+1059175404+1058097681+1057244197+1056543918
3462+1055736737+1054774225+1054101188+1054207962+1055058355+1056143355
3454+1057021311+1057691257+1058402676+1059187897+1059749717+1059823905
3445+1059478467+1059036494+1058894751+1059261699+1059760922+1059653376
3437+1058843554+1058209027+1058476027+1059250300+1059676108+1059614156
3428+1059618729+1060055678+1060671915+1060888297+1060364280+1059387857
3420+1058664266+1058647522+1059227696+1059986964+1060474853+1060387657
3411+1059838202+1059387986+1059547181+1060249778+1061012716+1061540147
3403+1061874186+1062013289+1061800642+1061231352+1060498939+1059705088
3394+1058846774+1058048866+1057525235+1057362563+1057508427+1057817093
3386+1058069088+1058198917+1058523361+1059413037+1060630957+1061347979
3377+1061073703+1060326670+1060021997+1060359836+1060631086+1060121945
3369+1059026706+1058309748+1058527997+1059051950+1058990964+1058638313
3360+1059054462+1060283652+1061076407+1060609770+1059505901+1058761187
3352+1058593298+1058763119+1059157758+1059608489+1059791254+1059631287
3343+1059367249+1059214623+1059272840+1059452965+1059289004+1058388251
3335+1057208713+1056744651+1057379371+1058572755+1059578028+1060046984
3326+1060076157+1060018391+1060187375+1060485737+1060392165+1059611580
3318+1058642692+1058319730+1058906215+1059996753+1061011300+1061403556
3309+1060855840+1059702641+1058806074+1058773166+1059490445+1060293762
3301+1060490180+1059947358+1059153057+1058546931+1058130718+1057874022
3292+1057959995+1058398104+1058838724+1058989740+1058920576+1058829515
3284+1058760479+1058751721+1059014599+1059612224+1060107133+1059998105
3275+1059461852+1059199682+1059550143+1060166574+1060562887+1060550201
3267+1060112350+1059348251+1058724029+1058872276+1059777344+1060599595
3258+1060616532+1059923273+1058991028+1058063936+1057245420+1056761846
3250+1056864047+1057551381+1058422898+1058867317+1058652868+1058356437
3241+1058797959+1059913356+1060672881+1060424107+1059747141+1059461401
3233+1059428815+1058985876+1058014348+1056992073+1056402433+1056484091
3224+1057154746+1057909893+1058209607+1058141473+1058291137+1058818181
3216+1059191826+1059053818+1058753846+1058728408+1058907696+1059031793
3207+1059059227+1059020652+1058844005+1058489036+1058095169+1057959029
3199+1058337311+1059198845+1060211782+1060954499+1061097852+1060600174
3190+1059783784+1058943824+1058022076+1057062655+1056616496+1057076952
3182+1057956646+1058406411+1058194666+1057740651+1057387614+1057118103
3173+1056913699+1056925549+1057206909+1057660152+1058256683+1058947366
3165+1059476020+1059644166+1059548598+1059311608+1058909112+1058358176
3156+1057723263+1057071220+1056692488+1056977648+1057813616+1058550408
3148+1058709153+1058359078+1057847039+1057437395+1057094275+1056581656
3139+1055988474+1055880863+1056536255+1057376022+1057617326+1057214251
3131+1056758497+1056680445+1056915374+1057195124+1057396179+1057573535
3122+1057786375+1058028645+1058299895+1058563352+1058656152+1058413882
3114+1057876147+1057234923+1056647666+1056210137+1056026599+1056155268
3105+1056461874+1056644768+1056531940+1056290507+1056183733+1056252769
3097+1056446740+1056812077+1057255080+1057407964+1057061496+1056530201
3088+1056382727+1056929864+1057976739+1058934808+1059241606+1058812707
3080+1058038434+1057324631+1056787605+1056464514+1056551067+1057114046
3071+1057689904+1057604575+1056730612+1055629126+1055034076+1055391428
3063+1056586615+1057896433+1058567474+1058523296+1058126403+1057459419
3054+1056452793+1055450547+1054958278+1054969999+1055057775+1055028087
3046+1055074004+1055235453+1055114060+1054420930+1053546581+1053134167
3037+1053260004+1053498281+1053600354+1053630622+1053627659+1053496478
3029+1053090762+1052285964+1051172049+1050111778+1049441317+1049291653
3020+1049663366+1050278572+1050486582+1049895074+1048951495+1048363014
3012+1048181795+1047980933+1047596856+1047173237+1046746269+1046221608
3003+1045595067+1044903740+1044001055+1042524700+1040165173+1036951454
2995+1033152924+1028971025+1024573774+1020337200+1016714609+1013890892
2986+1011709043+1009785628+1007726846+1005516017+1003605933+1002417444
2978+1002000458+1002241054+1002850271+1003001417+1001550564+997920245+992605047
2968+986818445+981735020+977924576+975321362+973512965+971902531+969814898
2958+966803650+962930674+958743173+954991139+952230855+950576823+949841060
2948+949770865+950014681+950062723+949528273+948467036+947198434+945723883
2938+943497856+939972830+935159109+929364135+922770675+915860305+909927388
2928+906444930+905843440+907159634+908899060+910168435+910939488+911373217
2918+911304181+910616590+909862989+910329433+913493630+920071184+929263415
2908+939225218+948479465+956591720+963571319+969294423+973670293+976925743
2898+979504163+981783770+983933162+985976102+987892819+989636174+991176477
2888+992571946+993843961+994768285+994958842+994114181+991977669+988136378
2878+982240812+974640597+966666608+960070636+956200430+955670359+958408747
2868+963663732+970117510+976376159+981498868+985100207+987051507+987147462
2859+985085460+980823512+974933614+968394120+961855334+955310238+948954668
2849+944297116+943603664+947776354+955103838+962370207+967176136+969503141
2839+971412517+975135313+981290278+988932289+996888890+1004512611+1011470057
2829+1017580394+1022909180+1027620442+1031671675+1034830204+1037000719
2820+1038414156+1039432438+1040288176+1041106756+1042006736+1043024053
2812+1044086899+1045153674+1046233457+1047266938+1048135556+1048809881
2803+1049368803+1049808393+1049920898+1049567604+1049073597+1049041075
2795+1049663430+1050498754+1050992246+1051003966+1050817723+1050818174
2786+1051167734+1051712874+1052176742+1052382434+1052288797+1051965835
2778+1051611445+1051459270+1051553808+1051687179+1051679129+1051634436
2769+1051744108+1051968089+1052208298+1052618200+1053333741+1054053081
2761+1054317312+1054129910+1053939223+1054068215+1054407922+1054635960
2752+1054570208+1054287624+1053985333+1053810618+1053830839+1054060552
2744+1054413524+1054641949+1054477924+1053970006+1053591982+1053812228
2735+1054552369+1055246530+1055448615+1055170345+1054627008+1053976317
2727+1053380495+1053008524+1052842245+1052710355+1052572154+1052553350
2718+1052707522+1052944382+1053154517+1053270694+1053288790+1053325433
2710+1053557915+1054035436+1054606143+1055061446+1055297985+1055310800
2701+1055110905+1054741574+1054316990+1053955967+1053719622+1053627015
2693+1053642793+1053691737+1053768565+1053900455+1053961634+1053790976
2684+1053531318+1053525071+1053808299+1054016631+1053866001+1053474196
2676+1053121223+1052904004+1052750540+1052620196+1052543819+1052559081
2667+1052680667+1052857315+1052988818+1053077625+1053223360+1053387901
2659+1053403936+1053266572+1053172163+1053269728+1053564548+1053930916
2650+1054115098+1053970457+1053720008+1053699143+1053911854+1054126625
2642+1054246086+1054299795+1054238101+1053992803+1053604282+1053175576
2633+1052870581+1052953398+1053546774+1054382033+1055089524+1055617534
2625+1055991050+1055932382+1055267137+1054473738+1054228891+1054543675
2616+1054876942+1054987000+1055141365+1055509279+1055904111+1056254379
2608+1056803383+1057585191+1058159698+1058145014+1057642635+1056942357
2599+1056179933+1055507798+1055274028+1055693719+1056437595+1056894186
2591+1056895024+1056852327+1057085581+1057368809+1057336352+1057036573
2582+1056835261+1056909707+1057113595+1057371450+1057856763+1058513507
2574+1058823912+1058543840+1058210187+1058341368+1058694598+1058962500
2565+1059524126+1060664574+1061651365+1061514258+1060404722+1059327708
2557+1058806138+1058593813+1058471905+1058588533+1059058197+1059669411
2548+1059947874+1059453544+1058311165+1057375443+1057445316+1058382197
2540+1059348123+1059733810+1059583953+1059361131+1059529600+1060196391
2531+1061053159+1061703914+1061956360+1061792592+1061338319+1060878830
2523+1060568683+1060183060+1059559417+1059142753+1059539582+1060579760
2514+1061352552+1061283322+1060827375+1060963065+1062155483+1063871660
2506+1065062983+1065097952+1064170473+1062870701+1061650077+1060797236
2497+1060591030+1061139261+1062146531+1063046061+1063360974+1062973225
2489+1062202816+1061632496+1061726325+1062585734+1063965941+1065290184
2480+1065783032+1065083269+1063787361+1062922221+1062798123+1062801021
2472+1062414239+1061960224+1062036022+1062587988+1062989840+1062922607
2463+1062775519+1063075556+1063751233+1064184319+1063968452+1063346806
2455+1062759291+1062344623+1062168169+1062447083+1063131648+1063732558
2446+1063918479+1063832055+1063675564+1063516498+1063467490+1063515983
2438+1063322527+1062666169+1061910572+1061661218+1062129787+1063033503
2429+1063923180+1064458531+1064520226+1064181743+1063545220+1062684909
2421+1061883653+1061692902+1062348874+1063267981+1063558357+1062952231
2412+1061894601+1060963322+1060515554+1060607580+1061020573+1061554444
2404+1062207002+1062839532+1063011028+1062512512+1061721045+1061140227
2395+1060935051+1061063914+1061472721+1062032287+1062539045+1062745445
2387+1062253627+1060727427+1058463727+1056324252+1054808357+1053599903
2378+1052223496+1050649899+1049057110+1047519448+1046077418+1044661470
2370+1043038542+1041100960+1038846339+1036179048+1033497009+1031945179
2361+1032086471+1033055166+1033905237+1034868200+1036546511+1038725333
2353+1040583962+1041676239+1042239476+1042570037+1042495398+1041616863
2344+1040130655+1038991882+1038751930+1039045076+1039476165+1040166976
2336+1041289843+1042574159+1043526239+1044005112+1044269922+1044398849
2327+1044113110+1043370585+1042648347+1042443364+1042840965+1043730835
2319+1045056946+1046571361+1047705562+1047992847+1047530975+1046929421
2310+1046803327+1047359930+1048467084+1049889729+1051300783+1052336839
2302+1052956168+1053582065+1054649805+1056081467+1057204334+1057148435
2293+1055666864+1053730569+1052818353+1053426218+1054787169+1056009790
2285+1056739048+1056823798+1056331529+1055881056+1056078247+1056658227
2276+1056824957+1056300425+1055532913+1055086240+1055156886+1055493050
2268+1055644582+1055515526+1055602465+1056301648+1057133945+1057229836
2259+1056489437+1055573421+1054842939+1054103635+1053331938+1052756401
2251+1052317004+1052036738+1052676352+1054806618+1057425545+1058836921
2242+1058875303+1058879553+1059392043+1059349411+1057971587+1056182638
2234+1055460271+1056188692+1057651265+1058873757+1059255452+1059141658
2225+1059682806+1061363306+1063091978+1063435870+1062198372+1060307479
2217+1058784693+1058101867+1058116421+1058512477+1059188606+1060013110
2208+1060650470+1060996166+1061252990+1061404522+1061275659+1060939172
2200+1060422239+1059455863+1058011965+1056614114+1055765717+1055426783
2191+1055215811+1054872885+1054267853+1053249442+1052044981+1051619495
2183+1052763678+1054889435+1056774468+1058177665+1059496628+1060168699
2174+1058901900+1055774218+1052771857+1051540284+1051690270+1052015873
2166+1052295946+1052966793+1054431170+1057342341+1061401946+1063704029
2157+1061890157+1058266794+1056693776+1058191704+1061300646+1064173886
2149+1065642448+1065516934+1064281176+1062381073+1060199353+1058204455
2140+1056383178+1054341333+1052700502+1053183111+1056340030+1060308188
2132+1062716594+1062885707+1061728837+1060435119+1059495919+1058626013
2123+1057693575+1057349747+1057995415+1058692409+1058304081+1057222172
2115+1056656166+1056720501+1056579982+1056177486+1056492850+1057967079
2106+1059707535+1060631150+1060750869+1060842831+1061259430+1061570415
2098+1061255824+1060476013+1059992502+1060248039+1060839997+1061170752
2089+1061145572+1060957591+1060788414+1060880891+1061209650+1061185693
2081+1060503060+1059928232+1060328216+1061355385+1061987400+1061980188
2072+1061934400+1062302184+1063134095+1064533621+1066557177+1068648609
2064+1069757372+1069214422+1067206837+1064463619+1061906772+1060534165
2055+1060937562+1062328974+1062547868+1060175461+1056631308+1055148514
2047+1057301448+1061559596+1065677031+1069072292+1072057459+1073741823
2038+1072298054+1067793837+1063219875+1061300517+1061611823+1062491454
2030+1063758833+1065438560+1066325403+1066172584+1066918779+1069547237
2021+1071764248+1070832261+1067291458+1064218644+1063837013+1065924518
2013+1068399963+1068747398+1066464441+1064331471+1065092929+1067221584
2004+1066806016+1063151676+1059511182+1058864355+1060923974+1062825686
1996+1062091341+1059143140+1056858638+1057426576+1060029017+1062213764
1987+1062513865+1060985669+1058547897+1056390197+1055491698+1056448607
1979+1059447362+1063597641+1066561427+1066541527+1064407978+1062301476
1970+1060834974+1059285333+1057920776+1057933398+1058995150+1059422375
1962+1058929076+1059030376+1060584976+1062489393+1062988617+1061306571
1953+1058247731+1055809508+1055797723+1058287981+1061499575+1063453000
1945+1063599187+1062619480+1061285963+1060131863+1059635408+1059940918
1936+1060575574+1060817393+1060303422+1059246565+1058268339+1057945505
1928+1058268919+1058624145+1058471583+1057939903+1057567031+1057498960
1919+1057468113+1057564648+1058165236+1058884383+1058796800+1057921227
1911+1057475777+1058312002+1059742247+1060635208+1060870394+1060896540
1902+1060723692+1060123619+1059235037+1058348710+1057580490+1057098075
1894+1057073989+1057257270+1057113724+1056446353+1055836427+1056353683
1885+1058389603+1060808571+1061807082+1060952246+1059518845+1058714562
1877+1058602572+1058706448+1058811226+1058989998+1059177207+1058948525
1868+1058022334+1056982607+1056670721+1057165243+1057873507+1058062712
1860+1057422712+1056374033+1055691078+1055797917+1056447770+1056975330
1851+1056856642+1056069231+1054941406+1053829551+1053028552+1052776944
1843+1053065002+1053575496+1053971938+1054043486+1053725417+1053039243
1834+1052007759+1050751650+1049565801+1048869257+1049051250+1050056910
1826+1051231038+1051816235+1051596505+1050806132+1049678306+1048602000
1817+1048042628+1047884270+1047518804+1046602466+1045270816+1043935367
1809+1042971310+1042385855+1041916320+1041326551+1040513316+1039632848
1800+1039112115+1039150047+1039476165+1039756366+1039697956+1039021184
1792+1037945715+1037194304+1036945658+1036789811+1036300119+1035186139
1783+1033548786+1031798477+1030089255+1028348283+1026641121+1024927906
1775+1022849482+1020079474+1016869554+1014148876+1012480160+1011400248
1766+1010151094+1008417464+1006059032+1002852203+999014648+994725395+989151504
1756+981702434+973005885+962856873+948596415+926534815+895905787+860644515
1747+824123142+786576338+748350830+710870164+674994587+643168182+620269134
1737+607239219+600036218+596351418+599195227+610083930+626725296+646258771
1727+666299326+686329384+706691228+726306618+744075745+761264054+780485192
1717+801907822+821633142+837565278+851028279+863198335+874196130+884150592
1707+893844429+903650128+912525128+919348688+923712322+925473965+925625690
1697+926370017+929754846+936122845+943910655+952104182+960311618+967441139
1687+972680346+976872807+981526688+986414082+990199668+992859424+994800806
1677+996243480+997373946+998291121+998869169+999096241+999559144+1000979407
1667+1002840096+1004096398+1004615006+1004995027+1005795897+1006929132
1659+1008017673+1008885519+1009598097+1010653409+1012869905+1015414644
1650+1016893511+1017720913+1018990610+1021524080+1024540287+1026850033
1642+1028319497+1029237702+1029812788+1030239434+1031006430+1032456252
1633+1033908070+1034722979+1034957135+1034977743+1035146405+1035508329
1625+1035915590+1036420674+1037098993+1037663388+1037795278+1037630545
1616+1037797596+1038516679+1039158547+1039338801+1039292562+1039429347
1608+1039772466+1039955489+1039799256+1039540822+1039461289+1039516350
1599+1039470884+1039300290+1039246388+1039491621+1039902424+1040184235
1591+1040246059+1040309557+1040636126+1041209086+1041782305+1042182289
1582+1042416638+1042494626+1042308640+1041843935+1041606108+1042258731
1574+1043238631+1043520700+1042992433+1042423915+1042443493+1042603976
1565+1042406270+1041913100+1041082735+1039486211+1037348154+1037015982
1557+1038860057+1040427665+1041194081+1041554009+1041773740+1041951997
1548+1041951611+1041384446+1040009005+1038042765+1035938903+1034377413
1540+1034859506+1037229015+1039094663+1039493359+1038977263+1038739694
1531+1039257207+1039820830+1039857666+1039393541+1038616563+1037457568
1523+1035970652+1034925837+1034896664+1035295232+1035716597+1036415909
1514+1037258574+1037565888+1036790262+1034727874+1031763122+1030104968
1506+1032241995+1035549802+1037316791+1037510118+1036748918+1035767343
1497+1035185431+1034920556+1034296398+1032780374+1030118814+1026540530
1489+1022985751+1019644070+1015101535+1008296394+1000080521+993312602+990868390
1479+992642527+995653647+996755906+994438303+989501965+985027951+983318793
1469+983744859+985160034+987247538+989724272+991601963+992000917+990568483
1459+986566322+978832929+968698536+959842276+953537453+950178577+950354709
1449+953515750+957742793+961293579+963661285+964854411+964741712+963228972
1439+960239555+955740039+950989816+948555199+949157204+951992835+956837532
1429+963395058+970359652+976617656+982074791+986775877+990445802+993193464
1419+995938614+999521728+1003430703+1006655434+1008838572+1010179301+1011095510
1409+1011719540+1011750838+1010913003+1009208803+1006601725+1002492276
1401+995753916+985942679+974999752+966564600+962827120+962852494+963658902
1391+963097855+961043517+958298753+955086128+950070193+941112376+926858486
1381+907941442+887632856+870406359+858813256+851986026+846804778+840390992
1371+831909214+822496608+814592621+810393463+810414007+815261924+827524586
1361+848650849+875407868+902831935+927590063+947996599+963524050+974615803
1351+982459835+988550787+994045917+999392994+1004468047+1008820089+1011906362
1341+1013499022+1014072434+1014605274+1015619821+1016852681+1018057722
1333+1019270490+1020242662+1020450285+1019987383+1019805391+1020608901
1324+1021939005+1022679661+1022254111+1021188624+1020609352+1021147086
1316+1022340985+1023203163+1023085506+1021902941+1019854270+1017266254
1307+1014657952+1012572767+1011164740+1010061386+1008582005+1006041516
1299+1002210464+997755834+993890586+991305147+989805673+989110933+989281526
1289+990049617+990411670+989340645+986480478+981987144+976330371+970488901
1279+965715108+962589938+960374472+957409141+952075395+943512603+932055834
1269+919536734+908788615+901869229+898193960+894536400+887048368+873349408
1259+853271115+828360747+800795967+772441201+744410815+717027899+690176278
1249+664130163+640336158+621129381+608163606+600796066+596075144+590696835
1239+583435489+575920345+571070560+570719069+574514057+580487674+586198091
1230+589587041+589491151+585984929+580464233+575156633+572125164+572463647
1220+576203444+582785313+591722716+603014880+616873937+632994248+650249082
1210+667242647+683119335+697837415+711846007+725652514+739604307+753787872
1200+767936211+781535159+794221376+806100282+817557888+828728080+839257821
1190+848729094+857243329+865414445+873804453+882501905+891087558+898794226
1180+904963810+909742111+914196935+919463769+925826874+932683985+939178464
1170+944724212+949115473+952407116+954832781+956854083+959108510+961998752
1160+965218654+967826247+968772724+967064532+961592714+951981694+940487767
1150+932167374+931498329+938528546+948966324+957790771+962254739+962302717
1140+959670974+956864387+955893374+957066085+959015389+960240135+960646881
1130+961502169+964033835+968228485+972883333+976618043+978751786+979323716
1120+978657892+977245743+975784265+974798182+974256520+973878045+973608083
1111+973506911+973462927+973360532+973347716+973766956+974919317+976811627
1101+978916648+980290479+980205472+978758290+976867461+975643617+975592677
1091+976243239+976528914+975524478+972866460+968780516+964017864+959569352
1081+955980763+952809547+948832825+942562133+932445708+917515947+899226989
1071+882522706+873276443+873538871+879925738+887164931+892305929+894848221
1061+894196822+888701370+876851379+858308237+834123714+806788003+779601698
1051+755119650+734254397+717122308+704307744+696807219+694804013+696627287
1041+698807269+697269670+689080588+673924721+654645752+636335865+624004682
1031+620097446+623641920+631568769+640974870+650614226+660933445+673145683
1021+688118655+705654205+724556116+743403867+761250852+777669203+792493026
1011+805769141+817772596+828824615+839118010+848781322+857949983+866610727
1001+874408648+880642310+884420554+885069055+882866212+879518155+877479465
992+878293151+881355790+884288535+884718594+882169540+878638331+877264758
982+879849296+885071566+889074500+888302159+882485611+875330138+872148554
972+876168102+886573552+899804651+912396845+922539739+929766116+934183781
962+936082016+935818429+934071662+932212518+931944488+934299313+939231078
952+946160639+954390744+962931512+970519555+976109868+979126783+979383286
942+977363658+974613356+973104287+973819828+976136594+978499598+979359973
932+977688038+973211061+966375845+957902568+948187157+936910577+923156684
922+906428444+888107802+871678889+860777693+856734768+858066868+862077529
912+866832582+872195436+879456525+889570568+901323316+911437102+916601477
902+915281226+908282951+898779543+891700382+891623296+900120272+914914923
892+931589712+946229482+956892529+963158906+964848164+961603919+953964099
882+944824160+939076133+940469413+948458793+958971468+968353935+975687666
873+981591345+986461931+990350749+993409330+995837120+997802459+999521406
863+1001121407+1002516940+1003550936+1003954720+1003102008+1000415784+996420707
853+992955057+991867932+993638270+997353724+1001638018+1005383355+1007985667
843+1009361301+1009815381+1009779768+1009641116+1009695276+1009930527
834+1009754459+1008393830+1005920252+1003449894+1001881319+1000889119+999751505
824+998796269+999270957+1001814988+1005650225+1009394209+1012261847+1014285145
815+1015703025+1016562047+1016930154+1017163666+1017621223+1018159601
806+1018258712+1017688649+1016774951+1016085879+1016084204+1016803030
798+1017687297+1018180274+1018424927+1018876430+1019503229+1019917703
789+1019989057+1019976693+1020327089+1021331268+1022757198+1024094321
781+1025184022+1026126957+1026737205+1026723875+1026235213+1025735603
772+1025529525+1025634302+1025866526+1025964349+1025857060+1025848945
764+1026344756+1027325429+1028283626+1028822584+1029104782+1029464324
755+1029827922+1029819099+1029260435+1028341650+1027369478+1026444768
747+1025439494+1024386823+1023706251+1023713335+1024080475+1024196716
738+1023952385+1023728855+1023665551+1023470871+1023096583+1023036047
730+1023609137+1024463329+1025184215+1025886168+1026799930+1027723674
721+1028223477+1028153218+1027835214+1027762893+1028119150+1028702286
713+1029375903+1030230418+1031112753+1031532894+1031377692+1031164659
704+1031227255+1031141668+1030309243+1028737835+1026941544+1025196773
696+1022990452+1019331927+1013985173+1008419010+1005031348+1005127947
687+1007936273+1011685344+1015088333+1017533833+1018591012+1017930855
679+1015425721+1011054102+1005183910+999244424+995182308+993795211+994981189
669+999379856+1006418316+1011987634+1013625116+1012315234+1010469871+1010089400
659+1011024414+1011452347+1009817570+1005377623+997307164+984808478+969122283
649+954729420+946907156+947483208+953668119+961081448+967407522+973151942
639+979617892+987140828+995160283+1002756377+1008797227+1012499867+1014126851
629+1014598254+1014511251+1013947370+1012822185+1010759990+1006823967+999930986
619+989447677+974961306+955739395+931749486+906079528+885030286+873877225
609+872758866+878234998+887979067+901808758+919035514+937343405+954447609
599+969373247+981938458+991930722+999078982+1003432441+1005509513+1006167094
589+1006447425+1007363505+1009387061+1011870041+1013203751+1011729264
581+1006419218+997353596+986524978+978041590+976044567+981189687+989905234
571+997049373+998455661+992611100+981847783+971510403+966833660+969885286
561+978822496+989608611+998417923+1003316458+1004676958+1003733830+1000463826
551+993957368+985427098+979228598+979267882+985336359+994102911+1002615793
541+1009633581+1014585890+1017159480+1017948050+1018301215+1019246018
533+1020939141+1022990903+1024940271+1026464474+1027341078+1027401162
524+1026768310+1025836452+1024430035+1021398694+1016161677+1010646389
516+1007666761+1007391519+1007868460+1008436462+1010354661+1014154350
507+1018354603+1021406165+1023096003+1023276063+1021427738+1018489455
499+1016691941+1016788153+1017307341+1016871164+1016038159+1016151824
490+1017498735+1019343390+1020695711+1020507021+1018092304+1013725965
482+1007856675+999327950+985694098+966956856+947977537+934328100+926499009
472+921075427+918105008+922648316+937524110+958432832+977283481+988336273
462+990318549+985604905+978835376+975202803+977404230+983978628+991855761
452+997710948+998086524+991928725+982803019+977124801+978981627+986484857
442+993628674+995409702+990758139+981857830+973453009+970869115+975111743
432+981644604+985016037+982823691+975597314+965649163+957284013+954655747
422+957615218+963900399+974433553+989698705+1003614498+1011132540+1012233060
412+1009238556+1005038883+1001253941+997801815+994565362+992644009+993621977
402+997383670+1000560103+998167796+990679571+987097874+990275079+993325225
392+993008187+991313647+988083248+980001584+967781038+960202139+965697141
382+980404723+994105551+1002222120+1004937969+1002390911+995605605+990536154
##END=
