##TITLE=X8163
##JCAMP-DX=4.24
##DATA TYPE=INFRARED SPECTRUM
##DATE=31/10/2018
##SAMPLING PROCEDURE=Diamant-ATR
##ORIGIN=ComPlat
##XUNITS=1/CM
##YUNITS=TRANSMITTANCE
##RESOLUTION=4
##FIRSTX=3997.453
##LASTX=373.96442
##DELTAX=-1.4165319
##MAXY=0.9917804
##MINY=0.56161207
##XFACTOR=1
##YFACTOR=9.2366748e-010
##NPOINTS=2559
##FIRSTY=0.9769159
##XYDATA=(X++(Y..Y))
3997+1057648906+1058294791+1058789416+1058687716+1058091004+1057313670
3989+1056606030+1056210329+1056376108+1057089427+1057935421+1058470378
3980+1058638738+1058654160+1058653257+1058649643+1058637124+1058619056
3972+1058610409+1058626025+1058631446+1058591243+1058550331+1058550589
3963+1058559752+1058613893+1058873241+1059355929+1059734593+1059571460
3955+1058781544+1057877279+1057635612+1058383972+1059625343+1060515669
3946+1060735976+1060661831+1060800313+1061226278+1061443423+1060991968
3938+1060058794+1059186214+1058715981+1058828264+1059647864+1060766047
3929+1061383926+1061410513+1061409674+1061483432+1061113931+1060165785
3921+1059157627+1058466119+1058027054+1057713952+1057551529+1057568952
3912+1057800681+1058397588+1059434720+1060694741+1061926627+1063186196
3904+1064535721+1065500837+1065526004+1064747316+1063644943+1062580836
3895+1061910688+1061903460+1062307679+1062294966+1061568548+1060986548
3887+1061324752+1062277543+1062781784+1062473909+1061847964+1061295132
3878+1061043335+1061369600+1062258700+1063217945+1063824853+1064265015
3870+1064809717+1065338479+1065793870+1066133558+1065695913+1063754515
3861+1061041592+1059287849+1059465824+1061447618+1064624708+1067859230
3853+1068764334+1066549069+1063774713+1062087824+1061612944+1061995674
3844+1062709897+1063332228+1063918487+1064773709+1065725661+1066190022
3836+1066133042+1065961907+1065553043+1064543851+1063294994+1062693893
3827+1063043648+1063836598+1064701370+1065922995+1067425263+1067927116
3819+1066827905+1065291114+1064031222+1062733580+1061266352+1060035499
3810+1059405811+1059582818+1060707131+1062614521+1064642002+1066017468
3802+1066034633+1064793326+1063915970+1064329159+1065016795+1064634710
3793+1063310223+1062168616+1061732907+1061755686+1061994513+1062390471
3785+1062669178+1062583546+1062356787+1062138351+1061525699+1060301364
3776+1059061089+1058514968+1058949710+1060326724+1062147837+1063412569
3768+1063547308+1063024870+1062550959+1062515144+1063090562+1064136084
3759+1064975431+1064885733+1064214295+1064076393+1065183412+1067383125
3751+1069364144+1069588000+1068591005+1067758240+1067218379+1066060639
3742+1064040256+1062059495+1060739203+1060465981+1061671345+1063716378
3734+1064252819+1062346010+1059985358+1058880404+1058967907+1059462662
3725+1059921925+1060483791+1061266287+1061812989+1061574742+1060786633
3717+1060311172+1060756949+1062199720+1064288117+1065894408+1065673069
3708+1063910034+1061855385+1060223605+1059309854+1059223061+1059515319
3700+1059407553+1058907959+1058664679+1059104389+1060515024+1063313450
3691+1067341826+1070629650+1070219818+1066398004+1062420091+1060040016
3683+1059236031+1059583592+1060771016+1062655691+1065078099+1067270197
3674+1067945508+1067306011+1066528936+1065728694+1064593862+1063562537
3666+1063020934+1062638784+1062024713+1061236280+1060594203+1060338340
3657+1060652538+1061559900+1062705961+1063929586+1065720628+1068392574
3649+1070284090+1068862356+1065492578+1063067718+1062249731+1062120605
3640+1061835058+1061462653+1061333915+1061192400+1060612465+1059757501
3632+1059164273+1059056637+1059134073+1058862271+1058183088+1057635935
3623+1057890378+1059518545+1062482944+1065541814+1067170046+1067438621
3615+1067135651+1066267781+1064838755+1063729865+1063821240+1064813201
3606+1065421271+1064876764+1063650815+1062602583+1062018131+1061543703
3598+1060980159+1060509797+1060037951+1059221512+1058318989+1058144241
3589+1059143882+1060859229+1062199655+1062690151+1062654465+1062169261
3581+1061236345+1060425198+1060378413+1060868844+1061194916+1061244218
3572+1061466202+1062269541+1063978500+1066553070+1068534477+1067989582
3564+1065544395+1063281443+1061989479+1061213630+1060656475+1060651893
3555+1061296875+1061966571+1062051816+1061834026+1062142804+1063269634
3547+1064522040+1064750542+1063648105+1062350398+1062219853+1063475550
3538+1065075840+1065661389+1064763771+1063185228+1062126219+1062152483
3530+1062943174+1063707344+1063847181+1063379077+1062779590+1062523920
3521+1062644205+1062676148+1062211851+1061501500+1061230408+1061627722
3513+1062156678+1062232630+1061906687+1061674958+1061889135+1062528502
3504+1063279120+1063630681+1063212912+1062221983+1061286937+1060941312
3496+1061262609+1061878035+1062349237+1062544441+1062598066+1062652465
3488+1062779396+1063024354+1063326421+1063433606+1063075655+1062269219
3479+1061332495+1060642020+1060523219+1061118835+1062056139+1062581611
3471+1062329297+1061568289+1060646214+1059773505+1059317210+1059530806
3462+1059981874+1059984907+1059566233+1059393356+1059852361+1060620725
3454+1061091022+1061092313+1061128966+1061725163+1062576771+1062769910
3445+1061966636+1060839612+1060250191+1060455462+1060986354+1061098960
3437+1060510636+1059735368+1059512867+1059977421+1060601237+1060854519
3428+1060684997+1060366346+1060080928+1059801576+1059514093+1059324696
3420+1059286300+1059358639+1059545842+1059814998+1059966967+1059836229
3411+1059498735+1059147754+1058989525+1059288107+1060179143+1061344885
3403+1062098278+1061946954+1061034171+1059956191+1059172533+1058697718
3394+1058361451+1058110621+1057971042+1057944003+1057996015+1058011115
3386+1057864954+1057679429+1057850047+1058627832+1059689228+1060294201
3377+1060046985+1059398583+1059116198+1059411748+1059869333+1060042920
3369+1059852555+1059544874+1059339667+1059100066+1058646223+1058419657
3360+1059137364+1060572843+1061465105+1061010553+1059800221+1058924156
3352+1058783479+1059111939+1059573074+1059949350+1060084864+1059904244
3343+1059425622+1058835362+1058564399+1058906216+1059459629+1059462985
3335+1058823230+1058314343+1058605698+1059493508+1060219346+1060316141
3326+1060010654+1059873205+1060184177+1060624726+1060539158+1059650187
3318+1058562914+1058283369+1059171501+1060642343+1061832929+1062273091
3309+1062044008+1061561449+1061193755+1061037011+1061006294+1060910208
3301+1060517992+1059839326+1059172985+1058680424+1058294016+1058145854
3292+1058546072+1059440270+1060358280+1060917371+1061028105+1060683577
3284+1059950318+1059238290+1059196990+1060025432+1061081085+1061579389
3275+1061498209+1061336238+1061248928+1061047077+1060805088+1060770048
3267+1060794699+1060538707+1060227347+1060503021+1061390250+1062071627
3258+1061928885+1061249187+1060614207+1060070797+1059247969+1058062610
3250+1057022896+1056806074+1057569146+1058704817+1059380579+1059411231
3241+1059362575+1059582818+1059538034+1058618475+1057245784+1056396435
3233+1056275182+1056240336+1055827922+1055199267+1054782723+1054963021
3224+1055890323+1057208615+1058215289+1058543039+1058469023+1058380810
3216+1058304535+1058183024+1058199995+1058489027+1058808840+1058811421
3207+1058474250+1058081001+1057859275+1057748605+1057584892+1057472092
3199+1057750541+1058552138+1059593852+1060385318+1060500182+1059876237
3190+1058957453+1058204061+1057569727+1056934812+1056692371+1057225134
3182+1058159212+1058772380+1058853624+1058723273+1058609764+1058387327
3173+1057898767+1057289794+1056909516+1056945847+1057211260+1057307927
3165+1057060001+1056703987+1056428055+1055927299+1054839832+1053385575
3156+1052080770+1051165922+1050677621+1050586891+1050589666+1050258108
3148+1049453543+1048223593+1046570711+1044655061+1042797295+1041103566
3139+1039499727+1038028691+1036606764+1034663559+1031504989+1026977471
3131+1021524715+1015676711+1009714101+1003818215+998409469+994197763+991918097
3121+992118077+995064019+1000510967+1007541233+1014941774+1021818200+1027734671
3111+1032497273+1036142855+1039034979+1041614646+1043989559+1045942443
3102+1047332751+1048214817+1048497848+1047881066+1046376346+1044617053
3094+1043341158+1042740638+1042583635+1042833561+1043808358+1045655670
3085+1047903135+1049725023+1050522425+1050112076+1048633942+1046482434
3077+1044033956+1041311999+1038241835+1035224458+1033066883+1032333108
3068+1032978928+1034449512+1035960298+1036808486+1036449374+1034356975
3060+1030274910+1024738782+1018982088+1014325638+1011883678+1012372754
3051+1015572107+1020098851+1024149619+1026641074+1027669753+1027964851
3043+1028083974+1028298473+1028969202+1030412231+1032382087+1034297995
3034+1035997209+1037731335+1039542252+1041157707+1042397659+1043333866
3026+1044147723+1044946739+1045670706+1046261417+1046815540+1047260412
3017+1047130706+1046217924+1045156592+1044739209+1044886016+1044804837
3009+1043861854+1041888514+1038964899+1035262531+1030903501+1025851802
3000+1020045936+1013624386+1007046478+1001134331+996809115+994540290+994173306
2990+995274388+997261796+999284115+1000424238+999982656+997419250+992369487
2980+984881184+975437223+964914893+954643265+945867322+938678763+931797369
2970+923658212+913571205+902040459+890449441+880390247+872885230+868104043
2961+865829798+865996092+868532525+872834961+877791478+882399014+886195532
2951+889322030+892519641+896743996+902209786+907872588+912166184+914160367
2941+913857913+911667945+908013587+903402631+898382100+893207407+887930948
2931+883066581+879807085+879320784+881999377+887362822+894465491+902413703
2921+910604290+918520171+925550889+931240729+935560331+938792465+941235651
2911+942954161+943707102+943288557+941990206+940518589+939478682+939146931
2901+939600386+940809880+942682101+945162908+948245268+951807992+955532752
2891+959048111+962104400+964539778+966158072+966728198+966038110+963900733
2881+960168165+954801945+948022509+940578087+933812911+929119163+927159310
2871+927627994+929565068+931764974+933196001+933425148+932732995+931795239
2861+931206528+931232727+932011480+933982691+937929565+944398868+953062979
2851+962688723+971810291+979592336+986083321+991676624+996554026+1000699783
2842+1004135576+1006985884+1009461529+1011801595+1014121593+1016346537
2833+1018335171+1019996635+1021301440+1022305404+1023180243+1024137165
2825+1025262252+1026440771+1027473387+1028231942+1028677654+1028857629
2816+1028984431+1029363999+1030126168+1031132713+1032160941+1033053719
2808+1033749486+1034286379+1034729058+1035035125+1035071069+1034807398
2799+1034476357+1034480358+1035055065+1036023860+1036954583+1037527032
2791+1037750243+1037956353+1038560228+1039676024+1041006576+1042166188
2782+1042958428+1043353160+1043434985+1043400784+1043436211+1043578178
2774+1043734858+1043799840+1043758799+1043692397+1043713240+1044001691
2765+1044794318+1046058404+1047290419+1047959083+1048036068+1047857448
2757+1047659533+1047437290+1047088955+1046604848+1046182690+1046087185
2748+1046359181+1046781274+1047116187+1047240731+1047079534+1046595556
2740+1045948186+1045548162+1045733365+1046385638+1047052818+1047415608
2731+1047410446+1047040170+1046429777+1045943669+1045860941+1046008264
2723+1046015814+1045852552+1045827450+1046112416+1046514376+1046718809
2714+1046608849+1046349824+1046280583+1046679961+1047513307+1048435963
2706+1049106434+1049419342+1049440572+1049264856+1048968145+1048596515
2697+1048221657+1048021226+1048116021+1048334973+1048406344+1048354913
2689+1048361882+1048306902+1047895779+1047204465+1046667701+1046497727
2680+1046475529+1046353179+1046153587+1045997488+1045888560+1045805187
2672+1045821449+1046019041+1046385057+1046841739+1047283256+1047611974
2663+1047822472+1047972118+1048054524+1048042973+1048017354+1048128153
2655+1048533791+1049367718+1050487256+1051342865+1051517936+1051304146
2646+1051310922+1051670421+1052021531+1052064186+1051785156+1051303630
2638+1050741893+1050169573+1049641198+1049357328+1049630808+1050510293
2629+1051594081+1052425362+1052944316+1053314075+1053443523+1053063374
2621+1052323146+1051870465+1052081673+1052602885+1052959739+1053160106
2612+1053314914+1053225604+1052835001+1052565458+1052752596+1053194049
2604+1053516572+1053521992+1053049113+1052023467+1050823588+1050184156
2595+1050456088+1051154758+1051517613+1051389585+1051222451+1051317440
2587+1051513741+1051602212+1051657192+1051914217+1052487957+1053210568
2578+1053768563+1054025781+1054055207+1053942085+1053885879+1054264479
2570+1055097180+1055759971+1055841925+1055899551+1056648684+1057746540
2561+1058151017+1057505067+1056395596+1055411314+1054732776+1054485625
2553+1054704770+1055024002+1054953599+1054363791+1053455397+1052589592
2544+1052275329+1052864169+1054101024+1055249213+1055699635+1055429124
2536+1054994963+1055010644+1055496429+1055980278+1056213168+1056320418
2527+1056310868+1056061264+1055723383+1055510497+1055220949+1054597004
2519+1053956863+1053862326+1054308360+1054768462+1054953212+1055145577
2510+1055765392+1056774777+1057568888+1057535913+1056717216+1055695054
2502+1054829701+1053981320+1053079184+1052515318+1052713942+1053590975
2493+1054636174+1055334651+1055446805+1055133575+1054922431+1055343879
2485+1056494263+1057973236+1059147044+1059472922+1058879307+1057972139
2476+1057523007+1057598701+1057557724+1057039158+1056477485+1056434701
2468+1056854020+1057249333+1057369683+1057454540+1057848305+1058435983
2459+1058620734+1058012147+1056908677+1055881353+1055281607+1055384727
2451+1056379205+1057811910+1058660484+1058400427+1057518103+1056755030
2442+1056376882+1056295251+1056352425+1056305124+1055959499+1055490686
2434+1055328908+1055654916+1056255371+1056840081+1057216229+1057301216
2425+1057227522+1057204807+1057126467+1056777745+1056457093+1056706374
2417+1057426469+1057954651+1057939615+1057582052+1057252689+1057259916
2408+1057701175+1058350029+1058907378+1059253132+1059276298+1058819616
2400+1058018407+1057317090+1056995858+1056992309+1057211777+1057670136
2391+1058310859+1058939837+1059244420+1058665647+1056591123+1053061051
2383+1048922974+1044893372+1040851187+1036385295+1031566809+1026776523
2374+1022136722+1017401996+1012194521+1006341870+1000024536+993483992+987014431
2364+981634272+978791062+978715948+980091414+981950406+984790842+989321070
2354+995283035+1001788927+1007774317+1012060814+1013624192+1012007899
2346+1007899054+1003466976+1000949967+1000532907+1000780962+1000712108
2337+1000720368+1001628698+1003326042+1004949949+1006207066+1007574853
2329+1009186629+1010606621+1011766749+1013129631+1014944484+1017084442
2320+1019578349+1022566236+1025738616+1028484385+1030529676+1032037171
2312+1033255828+1034400921+1035755995+1037602984+1039916722+1042196195
2303+1043821780+1044670613+1045217573+1046010845+1047252540+1048767907
2295+1050104978+1050869598+1051254781+1051941836+1053248577+1054770656
2286+1055991313+1056782972+1057236556+1057545722+1058032474+1058749730
2278+1059183891+1058891245+1058260589+1058128496+1058752311+1059558425
2269+1059849135+1059543196+1059211058+1059502864+1060541288+1061728777
2261+1062143643+1061360502+1059834809+1058294016+1057129307+1056595382
2252+1056754708+1056971143+1056691662+1056813559+1058604601+1061266481
2244+1062518242+1061752717+1060748172+1060989000+1061856740+1061930628
2235+1061012941+1060102868+1059864170+1059963612+1059811062+1059309983
2227+1058899053+1059138203+1060074281+1061080633+1061578292+1061489369
2218+1060817026+1059629731+1058642222+1058908217+1060718682+1063255244
2210+1065331961+1066339281+1066522418+1066384710+1066048507+1065457279
2201+1064703500+1063790330+1062582385+1061090442+1059404068+1057585924
2193+1055872900+1054577193+1053774887+1053332724+1052968192+1052329599
2184+1051562397+1051588080+1053196759+1056084366+1058965003+1060355311
2176+1059394518+1056469612+1053201599+1051554266+1052489376+1055139963
2167+1057522491+1058331960+1057949553+1058098747+1060478822+1064465382
2159+1066534615+1064544819+1061003584+1059282687+1060059181+1062237534
2150+1064559339+1066109037+1066508351+1065841687+1064373233+1062638075
2142+1061179429+1059802286+1058078097+1056858085+1057933227+1061608427
2133+1065788127+1068185496+1068477561+1067801927+1067089834+1066423687
2125+1065540717+1064575471+1064156927+1064513328+1064746993+1063840147
2116+1062279286+1061539509+1061967152+1062369370+1061837575+1060936859
2108+1060790633+1061628109+1062579481+1062868706+1062841023+1063257825
2099+1063888158+1063807495+1062983958+1062380082+1062421123+1062537988
2091+1062291353+1061926627+1061770979+1061884037+1062237534+1062570253
2082+1062310712+1061364696+1060654216+1061135871+1062615037+1064151765
2074+1065185477+1065569756+1065121011+1064032706+1063271570+1063745417
2065+1065216645+1066423042+1066187376+1064279083+1061474011+1059164919
2057+1058764443+1060739203+1063623519+1064600186+1062182425+1058189800
2048+1056298865+1058503417+1063496329+1068459815+1071712987+1073374645
2040+1073741823+1072131208+1068471237+1064878764+1063623454+1064506488
2031+1066184989+1068466462+1071146281+1072694882+1072369390+1071826238
2023+1072647968+1073729885+1072875373+1070017644+1067363508+1066909472
2014+1068747104+1071011348+1071091623+1068308491+1065242264+1064527719
2006+1065250459+1064750736+1062611165+1060717133+1060733266+1062635881
1997+1064731248+1065079776+1063508332+1061770979+1061578872+1063083205
1989+1065174314+1066325601+1065301309+1062110861+1058193542+1055386727
1980+1055041941+1057734150+1062566123+1066852104+1068202726+1066885854
1972+1064865084+1063382820+1062656401+1062970793+1064377621+1065741471
1963+1065782513+1064816234+1064376072+1065377584+1067145330+1067946217
1955+1066308565+1062555605+1059159240+1058757990+1061597844+1065447535
1946+1068135679+1069373437+1069720868+1069097569+1067462949+1065770897
1938+1064962912+1064850758+1064503391+1063289574+1061434647+1059976969
1929+1060072603+1061813247+1063945138+1065165279+1065317377+1065063192
1921+1064809846+1064456864+1063923520+1063366558+1062870578+1062371241
1912+1062051041+1062373242+1063341972+1064044192+1063601320+1062220176
1904+1060604528+1058846784+1056641005+1054306811+1052805575+1052723751
1895+1053748429+1055248568+1056979015+1058771412+1060009235+1060438685
1887+1061083537+1062848379+1064888508+1065609313+1064889993+1064083620
1878+1064080717+1064550433+1064908319+1065231358+1066084902+1067602593
1870+1068656568+1067440041+1063941976+1060306397+1058081840+1057283083
1861+1057313799+1057674460+1058121591+1058643126+1059401810+1060531157
1853+1061926304+1063303448+1064448153+1065396879+1066381548+1067402549
1844+1067814382+1067017560+1065606538+1064618707+1064402272+1064538818
1836+1064339161+1063665463+1063098886+1063140702+1063678628+1064442990
1827+1065445148+1066373482+1066447047+1065497288+1064254884+1063239627
1819+1062331491+1061228989+1059883917+1058682231+1058176894+1058456826
1810+1058949645+1059168403+1059293076+1059683356+1060399644+1061297778
1802+1062136093+1062620587+1062722093+1062801530+1063187680+1063852989
1793+1064338967+1063850149+1062161195+1060161268+1058615765+1057393107
1785+1055981117+1054297519+1052569071+1050679298+1048591804+1047065918
1776+1047021263+1048598386+1050977687+1052655542+1052729623+1051796707
1768+1050680137+1049750964+1049291120+1049415793+1049756449+1049831820
1759+1049758320+1049799942+1049795748+1049790844+1050421951+1052089804
1751+1054083987+1054966118+1054470783+1053669251+1053226056+1053058793
1742+1052975161+1052884819+1052693873+1052593270+1053143973+1054554608
1734+1055774491+1055419573+1054039591+1052635925+1051456374+1050649227
1725+1050362841+1050481513+1050827137+1051569044+1053134745+1055516563
1717+1057258626+1056640424+1054433936+1052516092+1051904344+1052586301
1708+1054011004+1055607809+1056920680+1057803198+1058603569+1059604435
1700+1060277036+1059776925+1058028796+1055377435+1052828613+1051557493
1691+1051740695+1052789314+1054042817+1055427962+1057187191+1058513420
1683+1057932517+1056211233+1054811245+1054105670+1053904464+1053707840
1674+1053035239+1052118391+1051513935+1051119976+1050307474+1049217813
1666+1048721252+1049187871+1050047675+1050169831+1049349004+1048585803
1657+1048807336+1050334383+1052495055+1052312757+1048443900+1044590596
1649+1041605935+1037135784+1029269204+1020104982+1011969245+1004720157
1640+998112629+992004761+984069069+968767811+944851226+920292176+899018499
1630+878993550+858198044+836816472+816516171+798573296+784801731+778387021
1621+780540014+790574429+807841993+825939354+832601668+826061446+814936854
1611+808848732+814330462+831076104+853149958+875059518+894357209+910260085
1601+922736072+932698278+941590698+950367802+958889753+966215246+971567721
1591+974968022+977132114+979118489+981859999+985701043+990286832+994738850
1581+997941301+998655137+995020267+985741891+975507819+972013303+976328388
1571+986127202+998109016+1007352288+1011566317+1011982216+1010142131+1007312731
1561+1004847411+1004459841+1006793003+1009200955+1010846545+1012590350
1553+1014606861+1016573168+1017922305+1018342011+1018343882+1018539538
1544+1018696025+1017844868+1013770418+1003553060+990183455+977653068+962729055
1534+938817052+904465705+868131017+835587296+805046342+776227511+754184244
1524+743892224+747435331+764189168+787052746+809493262+831664299+852811819
1514+870207412+884407717+897665297+910906873+925203070+941733826+955654714
1504+962945296+967556639+972627568+978870757+985905475+992380393+996500789
1494+998183484+998843888+999097493+997481264+990529209+976056844+955650778
1485+932868444+911926647+896722056+888263667+883550882+878761628+872583228
1475+866286931+861383781+856589817+848519320+835221990+815591451+789062868
1465+759742184+736508331+723176799+717445918+719254124+734173040+762150265
1455+790394970+813988257+835302136+854723984+870592400+881385693+886734361
1445+887601456+885884818+884004853+884607438+890336448+903621325+923257026
1435+941739505+954526465+963755669+971526099+977296021+980188920+981077052
1425+981581357+982686182+984641002+987564036+991125147+993589951+993560009
1415+991643262+988524700+983945751+977228329+967855609+955388849+938930496
1405+918389691+897162153+879653180+865569482+849965124+828049241+800194171
1395+773318609+757837504+759330932+774530425+797778733+824539754+848982971
1385+865139709+871848098+871795183+867502942+860173061+850390057+838146056
1375+822254732+801743546+778397539+755379476+734734519+718430458+707985178
1366+702219386+699304547+701057257+711582362+730848046+754333438+777861743
1356+799604557+819311371+837049749+852626165+865319943+873735419+876548945
1346+873662370+866464648+857115933+847979782+841957610+842165914+849523414
1336+861738376+875589506+888799786+900139844+909100280+915769627+920591081
1326+923952083+926024155+926874279+926659780+925947945+925868379+927624445
1316+931747809+937903817+945181235+952529829+959220988+964970454+969776615
1306+973816090+977274274+980115484+982132834+983177646+983188229+982017518
1296+979330084+974800630+968613196+961886545+956554526+954602481+957015209
1286+963179477+971317601+979471019+986139656+990485973+992306570+991705534
1276+988690350+983162546+975370305+966430971+958305817+952885198+950981615
1266+952356758+956472379+962820688+970644936+978778930+986064866+991920162
1256+996267447+998884994+998987662+995278970+986248713+970977719+950534936
1247+928740821+910995796+901644758+901851578+909539474+921083190+933150636
1237+943600756+951485082+956645708+959257383+959513633+957501446+953282254
1227+947288927+940816978+935885435+934208677+936121810+940402112+945012229
1217+948159636+948960974+947307641+943304884+936995939+928431591+917596741
1207+904181255+887731033+868201290+846211971+822729482+798818318+775875175
1197+755848870+740957703+733091704+733182563+740731330+753932124+770497145
1187+788494484+806662119+824306025+841002624+856378996+870257616+882896608
1177+894751361+905916091+915999226+924563251+931462649+936655992+939899356
1167+940818979+939292060+935922411+932436284+931345720+934461507+941481964
1157+950354186+959006295+966454589+972503025+977013636+979656028+980020560
1147+977587505+971334121+959237314+938576740+908227570+871993549+838520591
1137+815069529+800807081+788647099+774713111+763847351+764632557+780648618
1128+807668019+837953239+865596649+888180423+905352740+917304225+924523242
1118+928092290+929515896+929923599+929126906+925428539+916928593+903672885
1108+888517594+875380041+866506076+861828331+860978982+864963670+875074554
1098+890629094+908633402+925715700+940011832+951349826+960269801+967246184
1088+972589495+976564892+979345959+980924502+981115189+979583173+975848088
1078+969293282+959098315+944250771+924255247+900590525+877372482+859618358
1068+850173041+848388259+851696153+857693609+864277906+868841819+868935001
1058+863866395+854831750+843858224+833796900+828779918+832612767+845811818
1048+864895784+884988168+902864125+917735481+930084086+940491035+949383520
1038+957084837+963659325+968946560+972866847+975349655+975913393+973660829
1028+967692411+957341797+942508643+924653658+907245224+893452687+882267049
1018+868801036+851233341+836377407+834605402+848818161+871218281+891236970
1009+904112659+911723828+918182419+926129791+935879885+946449644+956789804
999+966164396+974016198+980063408+984505295+987892238+990739578+993206059
989+995116998+996357789+997137188+997691181+997871415+997186295+995052855
979+990819144+983784812+973778597+962171254+952089667+946813338+947536272
969+952958053+960994219+970227231+979696875+988329173+995257610+1000343768
959+1003991350+1006646260+1008616051+1010132581+1011368273+1012388886
950+1013134664+1013479128+1013317156+1012517496+1010721356+1007159729
942+1000763603+990873349+978306116+965651573+956132304+952143227+954719733
932+963444632+976159576+989387859+999995240+1006717050+1010212017+1011953113
922+1013038772+1013649036+1013333805+1011728418+1008897920+1005015319+999847400
912+992571596+981905493+966201178+943342957+910902937+867340455+814177008
902+757586610+707535208+674041341+662475297+671167479+693163316+720416833
892+747078413+770435842+790227578+807315941+822510853+836164521+848345024
882+858986024+868014797+875562275+881897354+887213241+891816131+896314417
873+901082117+905696042+909418673+912160505+914611177+917551634+921302852
863+925718797+930541026+935731078+941324703+946971373+951919242+955351292
853+956356031+954268020+950229771+947794845+950248421+957329666+965713005
843+972438881+976922519+980096770+982914555+985883471+989124123+992308635
833+994902887+996905653+998992114+1001509510+1003750910+1004671630+1004036457
823+1002585426+1001254938+1000236390+998473548+993887823+984196646+968293319
813+948065099+928947060+917317002+916287161+923901621+935162565+945416061
803+952241959+955441441+956138241+955587474+954377528+952905525+952266674
793+953732805+957346121+961580026+964106456+962498939+954414698+937584069
783+911426601+881081690+858302389+853586184+866552538+887056367+905193931
773+917036423+922760142+924652303+926777160+932359816+940831110+949342285
764+956338608+961724768+964597662+962371040+950682904+922878233+872527925
754+800574965+720322813+652966612+616188147+614425822+636789353+663427121
744+676468782+668870068+646214988+621668651+608024082+611663339+631228316
734+660506281+693018252+724988491+755093413+782820454+807769009+829753424
724+848665546+864333079+876850882+886850451+895196234+902529599+909187460
714+915402772+921451143+927480284+933276148+938583516+943660833+948899025
704+953837409+957331344+958877879+959223827+959652115+960987637+963058870
694+964906956+965788893+965967062+966240348+966964895+968004029+969366072
684+971202285+973183433+974571354+975157354+975576350+976466289+977845046
674+979189924+979352541+976914453+972068412+969258887+973768595+981684993
664+986597564+987872362+987649152+987567263+987598947+986876142+985010051
654+982299645+978772800+973355601+964501318+951675253+935981779+919759865
645+906103100+898013180+896892287+901873389+910859701+922037014+934273142
635+946400988+956946936+964961291+970632417+974820893+978295081+981447392
625+984230008+986048991+986183989+984809104+983210363+982338750+981392541
615+978542103+972799994+964597791+955249334+946635686+940900222+939611485
605+942903440+949286659+956346158+961964627+965101515+965491602+962818494
595+956349513+945380375+930297230+913321278+897354131+883908251+873313196
585+866828406+866871706+873847895+883049868+886681252+880737936+869369742
575+861621318+863744239+875213875+891221096+906618762+918404404+926678558
565+933401788+939952916+946147771+951370863+955653811+959173364+961750580
555+963735535+966468398+970616930+974506307+975492332+973291070+970662682
545+970316283+972444625+975649205+978812099+981400478+983245080+984753349
535+986566202+988735070+990763067+992423305+994130006+996412382+999050966
526+1000953129+1001334310+1000475991+998798007+996477622+994453690+994303464
516+996192785+998399403+999492741+999790291+1000437531+1001787507+1003254606
506+1004430867+1005194713+1004641881+1001803317+997976277+995820896+995951764
496+996561705+996182460+995328077+995209729+996427934+999059742+1002360989
486+1004450613+1003979218+1002171076+1001540743+1002841483+1004645430
477+1005457610+1005412826+1005598545+1006329739+1007122688+1008018822
469+1009223734+1009929245+1009252708+1007584984+1005733349+1003806277
460+1001804414+999960264+997759971+993962227+988155393+980728071+972128619
450+963589568+957810224+957785702+964073223+973119097+979428171+979870204
441+975585514+968771683+958427715+940603705+912652550+876154470+836368437
431+802581861+786558895+794846471+823857022+862547458+898360676+924510013
421+941650001+952744070+959669926+963674361+965519608+965331760+963288404
411+959558288+953639365+945271061+936593463+931800337+933480709+939996474
401+947050358+951608593+955422405+962675494+971723368+977864857+981096992
391+984327255+987091867+985305407+978211643+972297624+974225793+981260963
381+986294658+986735272+982552475+971148467+949254588+922710131
##END=
