##TITLE=CHS- 272
##JCAMP-DX=4.24
##DATA TYPE=INFRARED SPECTRUM
##DATE=26/9/2019
##SAMPLING PROCEDURE=Diamant-ATR
##ORIGIN=Marie
##XUNITS=1/CM
##YUNITS=TRANSMITTANCE
##RESOLUTION=4
##FIRSTX=3997.453
##LASTX=373.96442
##DELTAX=-1.4165319
##MAXY=1.0002939
##MINY=0.81139749
##XFACTOR=1
##YFACTOR=9.3159625e-010
##NPOINTS=2559
##FIRSTY=0.99786723
##XYDATA=(X++(Y..Y))
3997+1071137020+1070637391+1070489339+1070797024+1071469083+1072272367
3989+1072828107+1072835273+1072353303+1071739851+1071342016+1071345855
3980+1071769794+1072377488+1072656254+1072200644+1071226530+1070467649
3972+1070389848+1070710970+1070877257+1070787619+1070766313+1071004323
3963+1071399919+1071841773+1072265009+1072538081+1072644162+1072793750
3955+1073049227+1073135601+1072912563+1072686069+1072807697+1073201566
3946+1073426396+1073067653+1072109151+1071082317+1070568803+1070558630
3938+1070769960+1071167220+1071701974+1072000447+1071771970+1071328516
3929+1071249179+1071671263+1072248438+1072491374+1072134615+1071392689
3921+1070718839+1070407251+1070534382+1071079757+1071898461+1072643906
3912+1072976608+1072905589+1072778650+1072821645+1072862721+1072666107
3904+1072352983+1072209025+1072119196+1071747209+1071214118+1071009634
3895+1071299597+1071765444+1072013499+1072004733+1071995136+1072020857
3887+1071924821+1071776768+1071813110+1071904155+1071643112+1071102918
3878+1070956785+1071481559+1072166222+1072327647+1071754439+1070833558
3870+1070155293+1070105771+1070627410+1071419369+1072143765+1072465398
3861+1072363348+1072221630+1072346201+1072628742+1072629062+1071791996
3853+1070182805+1069220784+1069627960+1070690048+1071501649+1071523467
3844+1070940086+1070526768+1070663560+1070733043+1070105196+1069435121
3836+1069835835+1071043928+1071972487+1072130520+1071822963+1071524363
3827+1071544069+1072039539+1072752930+1072947432+1072144084+1071090698
3819+1070827032+1070864524+1070301042+1069544017+1069619258+1070487291
3810+1071405166+1071842093+1071755399+1071534920+1071469851+1071289040
3802+1070699517+1070197329+1070407379+1070843603+1070743152+1070226696
3793+1069985615+1070249281+1070738609+1071157942+1071340609+1071302860
3785+1071346815+1071688666+1071923029+1071487126+1070661896+1070463042
3776+1071251611+1072395211+1073142703+1073021395+1071978053+1070729972
3768+1070276025+1070637007+1071046295+1071131966+1071100807+1071067409
3759+1070883335+1070545450+1070332969+1070456260+1070860366+1071116930
3751+1070624659+1069809986+1069922465+1071023646+1072091172+1072208769
3742+1071779776+1071665377+1071867238+1072058798+1072002302+1071604595
3734+1071104454+1070960944+1071325381+1071948686+1072439294+1072432512
3725+1071788605+1070836693+1070221513+1070373341+1071136445+1071946830
3717+1072446524+1072686261+1072661372+1072061101+1070844498+1069742998
3708+1069273312+1069177980+1069177660+1069273760+1069546192+1070000458
3700+1070516083+1070929082+1071166836+1071210279+1070973612+1070373149
3691+1069548687+1068957053+1068999664+1069393021+1069600704+1069609021
3683+1069770382+1070394327+1071489365+1072706543+1073426396+1073069509
3674+1071932755+1071083788+1070642638+1070160091+1069714910+1069707936
3666+1070101037+1070656074+1071256025+1071799610+1072054127+1071625069
3657+1070231047+1068534393+1068084221+1069332303+1071000293+1071332803
3649+1069840377+1068344113+1068272262+1069152708+1070134307+1070596251
3640+1070329002+1069759377+1069531348+1069827389+1070327658+1070665223
3632+1070706811+1070395670+1069631415+1068745723+1068458512+1068883411
3623+1069630071+1070288566+1070569763+1070375772+1069886060+1069377409
3615+1068911946+1068494981+1068303037+1068372201+1068343729+1068028878
3606+1067897460+1068257419+1068540663+1068093499+1067278122+1067232632
3598+1068285890+1069452523+1069747861+1069321042+1068979318+1069024105
3589+1069131274+1068999792+1068761271+1068633180+1068415516+1067820619
3581+1066960968+1066307464+1066241883+1066740680+1067439035+1067890103
3572+1067851458+1067368336+1066557374+1065553189+1064807104+1064854706
3564+1065472061+1065946354+1065976169+1065890882+1066149110+1066753732
3555+1067272428+1067278442+1066664927+1065707064+1064834872+1064264032
3547+1063959546+1063901962+1064135302+1064497883+1064652654+1064487071
3538+1064237928+1064147458+1064110925+1063794922+1063123631+1062532701
3530+1062615748+1063447568+1064410741+1064848372+1064603004+1063894285
3521+1063099958+1062627265+1062636350+1062933927+1063299196+1063702661
3513+1064038306+1064017640+1063611232+1063230992+1063166435+1063209238
3504+1063079228+1062814410+1062579919+1062391430+1062180868+1061911571
3496+1061571575+1061203044+1060935986+1060913337+1061157937+1061503563
3488+1061662301+1061443933+1060963242+1060571037+1060516717+1060662978
3479+1060644936+1060371736+1060184463+1060392466+1060793116+1060841934
3471+1060292335+1059442409+1058710208+1058228174+1058017484+1058240138
3462+1058885836+1059457125+1059414961+1058762545+1057877493+1057076896
3454+1056599276+1056663897+1057260650+1058071036+1058717438+1058969780
3445+1058746102+1058131818+1057389124+1056780535+1056434333+1056486605
3437+1057073569+1057952863+1058495359+1058363174+1057874614+1057530267
3428+1057540440+1057847742+1058177117+1058110896+1057532634+1056912208
3420+1056786037+1057062180+1057185984+1056943367+1056780087+1057176579
3411+1057878197+1058131306+1057690156+1057121683+1056942088+1056922637
3403+1056585840+1056023446+1055760483+1056010649+1056450392+1056632099
3394+1056384619+1055923123+1055697014+1055954410+1056437340+1056695440
3386+1056582385+1056281738+1056043280+1056001116+1056072775+1056050702
3377+1055918260+1055860613+1055854343+1055596435+1054996227+1054433449
3369+1054428778+1055155285+1056219548+1056931979+1056941256+1056524738
3360+1056119417+1055783068+1055308648+1054679520+1054158202+1054006054
3352+1054301712+1055042486+1056184678+1057417276+1058083640+1057696874
3343+1056537279+1055480117+1055198984+1055686649+1056481679+1057130640
3335+1057434743+1057469357+1057473196+1057615810+1057787023+1057699753
3326+1057264361+1056751552+1056484878+1056490188+1056570229+1056611049
3318+1056641568+1056622246+1056358579+1055723438+1054902495+1054293394
3309+1054148413+1054426475+1054971915+1055622539+1056130230+1056241749
3301+1055985441+1055693111+1055653186+1055872706+1056186278+1056480911
3292+1056779959+1057133711+1057478250+1057697322+1057815879+1057956893
3284+1058104242+1058140839+1058104818+1058137192+1058228622+1058279231
3275+1058275264+1058208915+1058073019+1058071932+1058446797+1058991981
3267+1059219882+1059091728+1059056474+1059309136+1059553928+1059547722
3258+1059398454+1059275482+1059177847+1058996460+1058590691+1057931237
3250+1057319513+1057243119+1057840768+1058722364+1059436395+1059876649
3241+1060115299+1060140188+1059929818+1059602938+1059370622+1059420719
3233+1059817531+1060414539+1060887552+1060987555+1060767715+1060467388
3224+1060197451+1059920412+1059723862+1059840756+1060298285+1060818453
3216+1061155122+1061310980+1061364276+1061282380+1060988707+1060535208
3207+1060119522+1059921052+1059968974+1060190093+1060468219+1060625549
3199+1060531881+1060325221+1060341345+1060725488+1061220574+1061426658
3190+1061186280+1060650502+1060107110+1059912735+1060359899+1061249046
3182+1061806258+1061459736+1060527786+1059825080+1059824185+1060452288
3173+1061360117+1062144463+1062538139+1062531293+1062274729+1061959685
3165+1061775931+1061799924+1061961221+1062203070+1062493992+1062615045
3156+1062244913+1061445084+1060794332+1060790813+1061244055+1061530627
3148+1061437087+1061430753+1061969794+1062865723+1063582504+1063900107
3139+1063984370+1064005228+1064010411+1064022631+1063999918+1063804903
3131+1063398686+1062979290+1062815882+1063015951+1063475464+1063978868
3122+1064315729+1064346504+1064051423+1063570156+1063124079+1062849984
3114+1062762073+1062839619+1063017294+1063142314+1063111603+1063011792
3105+1063008785+1063113906+1063154150+1063041671+1063014927+1063384291
3097+1064032548+1064497499+1064584386+1064515798+1064441900+1064221740
3088+1063731133+1063085690+1062529566+1062238387+1062196864+1062233717
3080+1062235636+1062299489+1062601353+1063155558+1063742777+1064053470
3071+1063923076+1063464203+1062952098+1062591244+1062435066+1062495080
3063+1062771991+1063111347+1063201688+1062909038+1062511075+1062390535
3054+1062566739+1062734434+1062707433+1062635711+1062779156+1063226705
3046+1063854232+1064424369+1064724185+1064763789+1064825659+1065118181
3037+1065443270+1065450243+1065119141+1064716251+1064429040+1064309651
3029+1064371073+1064494428+1064458535+1064252643+1064119946+1064137285
3020+1064018728+1063513725+1062798991+1062303840+1062273641+1062602312
3012+1062946659+1062935526+1062443831+1061747652+1061240473+1061010268
3003+1060910266+1060943536+1061205411+1061538817+1061665884+1061628327
2995+1061712462+1061949448+1062023858+1061700049+1061051600+1060228418
2986+1059219818+1057934308+1056380333+1054692253+1052987858+1051149806
2978+1048790947+1045636610+1041859672+1037732820+1033114337+1027719763
2969+1021698940+1015486365+1009329711+1003357706+997802282+992818722+988387129
2959+984586645+981689001+979868672+979065580+979180298+980165737+981767762
2949+983354815+984281263+984328097+983489880+981494370+977954674+972870792
2939+966561926+959198714+950737648+941237720+931046730+920714982+910761939
2929+901464447+892894869+885203689+878786439+874128224+871529819+870975486
2919+872237004+875092676+879440903+885246749+892424160+900636850+909149997
2910+917113545+924128251+930341785+935945451+940903610+945236033+949214192
2900+953128050+957066348+960996649+964880884+968678552+972360862+975916233
2890+979276398+982295543+984878720+987075002+989004867+990732232+992192091
2880+993175226+993419570+992802727+991448117+989654084+987791016+986241199
2870+985243412+984628681+983751051+981847610+978531465+973838444+967858441
2860+960595615+952292583+943679050+935768991+929490260+925466738+924078282
2850+925699821+930679414+938789031+948846876+959256361+968892313+977314094
2840+984478133+990612587+996089249+1001076136+1005465054+1009219087+1012507721
2830+1015443498+1017983936+1020120844+1021939061+1023526115+1024988085
2822+1026436108+1027824244+1028959718+1029763002+1030375174+1030995216
2813+1031743220+1032639469+1033607633+1034526658+1035296928+1035858683
2805+1036248904+1036666510+1037328395+1038229314+1039153331+1039889499
2796+1040348244+1040556183+1040622595+1040651963+1040672564+1040730339
2788+1041015120+1041729854+1042777994+1043709240+1044110914+1044012127
2779+1043813785+1043850511+1044130172+1044504462+1044955018+1045557337
2771+1046195422+1046593896+1046730816+1046919177+1047316308+1047664366
2762+1047728475+1047688039+1047864179+1048300275+1048818459+1049277140
2754+1049567359+1049523851+1049096777+1048553897+1048305394+1048490747
2745+1048832215+1048942966+1048737395+1048475711+1048412434+1048530479
2737+1048695295+1048896324+1049197036+1049559937+1049841710+1049892319
2728+1049653733+1049243934+1048896516+1048774120+1048883528+1049156024
2720+1049519629+1049911706+1050256628+1050424835+1050301415+1049985348
2711+1049794556+1049959563+1050399690+1050856964+1051158635+1051316861
2703+1051417311+1051489866+1051534653+1051603304+1051705418+1051704459
2694+1051508356+1051282823+1051290052+1051589868+1052038824+1052454126
2686+1052660658+1052552977+1052265766+1052130318+1052286816+1052456366
2677+1052287647+1051842786+1051515842+1051526847+1051737793+1051949443
2669+1052128334+1052308569+1052477480+1052633594+1052817860+1053012938
2660+1053115692+1053066618+1052914023+1052712035+1052495330+1052404925
2652+1052643959+1053196244+1053764973+1054119493+1054344451+1054624753
2643+1054915739+1054981704+1054743182+1054446629+1054384695+1054540809
2635+1054678561+1054724179+1054835571+1055115872+1055458939+1055672317
2626+1055643205+1055444096+1055304681+1055396174+1055668478+1055964135
2618+1056169387+1056240278+1056254546+1056403366+1056735044+1057005237
2609+1056953604+1056608426+1056221211+1056065609+1056305411+1056849507
2601+1057342546+1057459696+1057223925+1056952772+1056933258+1057207418
2592+1057655926+1058157219+1058604703+1058906374+1059053531+1059037472
2584+1058716222+1058090870+1057668146+1058042436+1059067991+1059953555
2575+1060217093+1060034107+1059676964+1059234150+1058907654+1058948986
2567+1059203503+1059283672+1059264029+1059615478+1060369688+1060943728
2558+1060960427+1060720945+1060656004+1060708341+1060530793+1060038010
2550+1059476383+1059047773+1058725180+1058430226+1058164384+1057917673
2541+1057653239+1057466669+1057559506+1057985813+1058614108+1059373245
2533+1060262584+1061054863+1061330302+1060975270+1060387411+1060081901
2524+1060293039+1060941744+1061717452+1062212347+1062235444+1062022003
2516+1061971970+1062214586+1062541978+1062662391+1062376907+1061649056
2507+1060720497+1060035003+1059842419+1059990344+1060184655+1060230209
2499+1060017472+1059614390+1059353027+1059510101+1059978187+1060435653
2490+1060651142+1060574940+1060373143+1060344992+1060595286+1060914552
2482+1061063245+1061000159+1060854538+1060847500+1061127162+1061569784
2473+1061868384+1061826860+1061460824+1060895422+1060287153+1059790083
2465+1059538637+1059647213+1060137117+1060829521+1061397290+1061593841
2456+1061431392+1061135223+1060956268+1061014043+1061233563+1061374385
2448+1061230364+1060905211+1060724272+1060770211+1060752104+1060469371
2439+1060080237+1059766858+1059496217+1059302994+1059442985+1060014145
2431+1060675199+1060992034+1060910649+1060712116+1060641161+1060750185
2422+1061009308+1061375601+1061740997+1061910676+1061727881+1061276430
2414+1060878531+1060823763+1061158193+1061742725+1062313181+1062494952
2405+1062062951+1061271439+1060666241+1060521004+1060650310+1060739500
2397+1060649414+1060414859+1060128607+1059878633+1059719448+1059677988
2388+1059807550+1060177617+1060735405+1061228572+1061408679+1061309892
2380+1061173996+1061093252+1060892799+1060433926+1059884327+1059542795
2371+1059457956+1059411634+1059292949+1059231015+1059209581+1058986223
2363+1058675338+1058824159+1059507670+1060052342+1060043000+1059853680
2354+1059865197+1059894564+1059682658+1059371838+1059272155+1059511253
2346+1059925659+1060158039+1059933721+1059212524+1058149797+1057154057
2337+1056774265+1057243247+1058187802+1058922562+1059076053+1058867666
2329+1058676938+1058514746+1058207508+1057843135+1057695530+1057867256
2320+1058260036+1058737592+1059161467+1059456805+1059680163+1059851825
2312+1059874922+1059798784+1059900194+1060301868+1060764708+1061021593
2303+1061109823+1061244567+1061489231+1061662876+1061563961+1061223965
2295+1060832017+1060411660+1059819578+1059192434+1059026403+1059480222
2286+1059955794+1059847730+1059438122+1059523153+1060355037+1061491791
2278+1062532061+1063446160+1064172731+1064389563+1063897100+1062976410
2269+1062130067+1061596400+1061294793+1061127994+1061103873+1061244247
2261+1061546111+1061965252+1062353489+1062527646+1062419262+1062091614
2252+1061742149+1061745540+1062343828+1063193755+1063642711+1063514620
2244+1063111027+1062540698+1061737351+1060968744+1060619023+1060630860
2235+1060737644+1061022872+1061766718+1062882358+1063834334+1064159935
2227+1063920325+1063444625+1062753884+1061782585+1061077320+1061430049
2218+1062662647+1063636440+1063762228+1063710019+1064321679+1065605846
2210+1067128598+1068550708+1069321298+1068806825+1067337305+1066246681
2201+1066431715+1067605834+1068871382+1069233836+1067978972+1065472765
2193+1063150503+1062204285+1062677298+1063779119+1064558985+1064661355
2184+1064759055+1065501364+1066122686+1065391509+1063631642+1062240691
2176+1061695379+1061545791+1061897112+1063304122+1065415310+1067116762
2167+1068078975+1069112719+1070766697+1072336796+1072585875+1071111876
2159+1069018219+1067989273+1068382566+1069104274+1069371779+1069518104
2150+1069964245+1070290165+1069891626+1068940162+1067973406+1067015863
2142+1065801820+1064579012+1064115212+1064936347+1066766401+1068583275
2133+1069203956+1068196509+1066373044+1065098475+1064926557+1065174293
2125+1064966226+1064191541+1063127086+1061838697+1060487094+1059602810
2116+1059488219+1059845426+1060346463+1060987939+1061654175+1062017588
2108+1062098716+1062294947+1062748062+1063309177+1064070937+1065131745
2099+1065908157+1065600151+1064365122+1063185373+1062608391+1062446966
2091+1062541466+1062929704+1063368999+1063340911+1062540507+1061094339
2082+1059508438+1058560684+1058857301+1060245885+1061857763+1062866235
2074+1063180958+1063414810+1064099664+1064928989+1065044347+1064075160
2065+1062430651+1060765156+1059864877+1060599829+1062912109+1065213449
2057+1065776868+1064442923+1062524511+1061552317+1062160714+1063544755
2048+1064218733+1063913991+1063926659+1065055543+1066565628+1067523298
2040+1067922221+1068182625+1068364971+1068426329+1068787311+1069788425
2031+1070742704+1070670278+1069931423+1069961430+1071359739+1073050250
2023+1073426396+1072114653+1070255871+1069372035+1069606206+1069798022
2014+1069050274+1067657467+1066645220+1066710801+1067439995+1067669175
2006+1066871458+1065761512+1065251774+1065320426+1065233731+1064787462
1997+1064817981+1065901055+1067185861+1067418369+1066585846+1065660998
1989+1065241025+1065339940+1065762792+1066048916+1065761768+1065046586
1980+1064391547+1064140420+1064662251+1066293260+1068635228+1070747375
1972+1072185416+1073105210+1073426396+1072767133+1071204329+1069434225
1963+1067782678+1066034136+1064342473+1063501056+1064040802+1065610900
1955+1067356947+1068470028+1068520445+1067726567+1066880415+1066753860
1946+1067554009+1068873110+1069944347+1070052091+1069017195+1067262063
1938+1065508978+1064545293+1064759375+1065722036+1066669149+1067277611
1929+1067612232+1067724903+1067714666+1067778199+1067951524+1068095610
1921+1068122482+1067968799+1067615559+1067292966+1067239606+1067300324
1912+1067175241+1066856678+1066653282+1066948235+1067931114+1069278495
1904+1070128997+1069758993+1068391459+1067043759+1066519689+1066816818
1895+1067414594+1067855105+1068045129+1068174051+1068417244+1068700488
1887+1068814183+1068700616+1068481737+1068319352+1068333300+1068556659
1878+1068923463+1069322322+1069675562+1069977169+1070285687+1070650251
1870+1071025565+1071267286+1071209319+1070776294+1070118056+1069615675
1861+1069615548+1070119783+1070844434+1071490645+1071868006+1071928404
1853+1071789117+1071614320+1071468699+1071352765+1071269525+1071159478
1844+1070968174+1070953266+1071499154+1072460280+1073170087+1073117366
1836+1072566296+1072221502+1072373073+1072784088+1073127987+1073276104
1827+1073227414+1072958629+1072603150+1072573974+1073061959+1073642908
1819+1073741823+1073344372+1072957797+1072865345+1072849925+1072654271
1810+1072377040+1072288874+1072396490+1072455417+1072342874+1072231931
1802+1072394059+1072831818+1073235924+1073406945+1073419102+1073299201
1793+1072871039+1072142101+1071595702+1071534983+1071692377+1071709972
1785+1071564159+1071497810+1071556161+1071482199+1071160118+1070778214
1776+1070462787+1070138530+1069785098+1069547472+1069480995+1069400059
1768+1069130058+1068685517+1068157928+1067488621+1066565756+1065546919
1759+1064584834+1063340591+1061442141+1059048413+1056338489+1052898092
1751+1048151903+1042338507+1036484419+1031174364+1026319598+1021779620
1742+1017539330+1013521247+1009838873+1006999451+1005211753+1004044224
1734+1002985975+1002082176+1001603085+1001579732+1001992987+1002709256
1725+1003482213+1004238791+1005174452+1006516137+1008311386+1010311374
1717+1011989665+1013258348+1014656081+1016423882+1018312543+1019961722
1708+1021257278+1022424167+1023745826+1025202678+1026627796+1028004479
1700+1029342326+1030528985+1031534194+1032413168+1033196169+1033902266
1691+1034493964+1034903892+1035154442+1035260011+1034976062+1034076551
1683+1033130077+1032698780+1032542154+1032409265+1032254750+1032095629
1674+1031998761+1031955062+1031711486+1031054975+1030350158+1030164228
1666+1030365321+1030503777+1030457902+1030517277+1030891247+1031468869
1657+1032145854+1032892643+1033485876+1033538213+1033486516+1033958697
1649+1034683796+1035207546+1035346961+1035392708+1035600903+1035955870
1640+1036415128+1036958904+1037500313+1037773576+1037547147+1037090321
1632+1036808676+1036937086+1037633010+1038821780+1040120919+1041135724
1623+1041669775+1041821859+1041892430+1041976437+1041876947+1041499905
1615+1041171746+1041108852+1041147497+1041052421+1040646332+1039852709
1606+1038737197+1037443305+1036123693+1034956996+1034114684+1033651844
1598+1033469881+1033404364+1033380179+1033495154+1033849801+1034330108
1589+1034690450+1034827690+1034866655+1035006709+1035339923+1035805835
1581+1036282239+1036659408+1036773550+1036441040+1035879733+1035558163
1572+1035355983+1034737540+1033468473+1032049626+1030912872+1029905232
1564+1029009752+1028575127+1028973602+1030457326+1032488217+1033959913
1555+1035098394+1036327217+1037558408+1038570590+1039300744+1039793783
1547+1040086113+1040259566+1040521569+1040982873+1041298429+1041183710
1538+1041305211+1042082134+1043232516+1044551617+1046071554+1047770703
1530+1049409453+1050746660+1051715719+1052469482+1053211920+1053999592
1521+1054742158+1055293100+1055615437+1055848073+1056181991+1056657371
1513+1057165126+1057656950+1058189273+1058717438+1058928384+1058833948
1504+1059029218+1059554696+1060107557+1060510639+1060650438+1060333795
1496+1059613559+1058965877+1058612957+1058330160+1057910187+1057514527
1487+1057393795+1057484776+1057602821+1057629502+1057563601+1057518174
1479+1057485032+1057087197+1055629129+1052249131+1046308796+1038638154
1470+1031375648+1025444335+1020509018+1016425354+1013601415+1012218974
1462+1011709619+1011360922+1010716695+1009797285+1009451531+1010192049
1453+1011501616+1012870366+1014060289+1015027044+1015785542+1016229251
1445+1016271479+1016128481+1016267064+1017052113+1018540956+1020684198
1436+1023389323+1026241093+1028810834+1031052799+1033029115+1034668953
1428+1035894385+1036798759+1037555464+1038248317+1038771491+1038850060
1419+1038298606+1037483102+1037011240+1036921987+1036983536+1037118793
1411+1037322701+1037542540+1037705628+1037756877+1037762764+1037960209
1402+1038450497+1038997857+1039314052+1039395244+1039480275+1039700882
1394+1039934477+1039991037+1039815024+1039429922+1038835472+1038049783
1385+1037142658+1036089975+1034730055+1032977226+1031049408+1029419807
1377+1028504876+1028417478+1028955304+1029727109+1030359115+1030636538
1368+1030554258+1030316440+1030184574+1030348174+1030935778+1031908164
1360+1032971148+1033788827+1034203425+1034294599+1034318272+1034497355
1351+1034839079+1035168134+1035299615+1035181698+1034932363+1034789237
1343+1035023025+1035834178+1037240037+1039023641+1040881591+1042604861
1334+1044077068+1045263983+1046242256+1047110353+1047857909+1048394711
1326+1048700605+1048891589+1049089227+1049236640+1049150905+1048815260
1317+1048488124+1048398230+1048453126+1048379484+1048054267+1047579207
1309+1047071260+1046521790+1045909106+1045334682+1044920916+1044637735
1300+1044355194+1044024220+1043666053+1043217161+1042566920+1041729790
1292+1040804622+1039795446+1038652422+1037467426+1036417815+1035524061
1283+1034641313+1033680379+1032662502+1031567080+1030275108+1028677753
1275+1026705213+1024203100+1020868016+1016308524+1010093966+1001804114
1266+991309150+979218495+967014977+956638762+949836729+947615238+949952343
1256+955888646+963909074+972445381+980343156+987061694+992542708+996988889
1247+1000728398+1004109037+1007351796+1010432555+1013158601+1015422960
1238+1017342972+1019114483+1020796933+1022299915+1023553691+1024628703
1230+1025645748+1026602139+1027399601+1028028472+1028603087+1029224281
1221+1029918157+1030661746+1031363172+1031876429+1032093006+1031987245
1213+1031580644+1030923557+1030096920+1029241044+1028580374+1028325217
1204+1028497070+1028921586+1029418719+1029925962+1030468267+1031075577
1196+1031689412+1032121093+1032155963+1031725562+1030944607+1029990008
1187+1028963621+1027865448+1026680196+1025446895+1024208027+1022952076
1179+1021685056+1020519958+1019647703+1019245645+1019361899+1019815013
1170+1020274399+1020536977+1020674025+1020866481+1021193360+1021603160
1162+1021989351+1022268053+1022443489+1022596468+1022775935+1022943182
1153+1023055021+1023128920+1023197444+1023270126+1023385356+1023596302
1145+1023843974+1023957604+1023855170+1023636802+1023433982+1023242166
1136+1022924180+1022309448+1021306543+1019968121+1018431804+1016773347
1128+1014908615+1012660252+1009961333+1006966629+1003894508+1000825138
1119+997747450+994670786+991572369+988381754+985085827+981741082+978396656
1109+975110134+971960788+968982591+966183861+963608042+961269849+959083931
1099+956976455+955022597+953399778+952207744+951371766+950767911+950419022
1089+950437192+950760937+951137786+951430244+951735115+952106846+952373071
1079+952367633+952178505+952001661+951893916+951818674+951818994+952025654
1069+952595214+953654167+955147232+956767492+958194017+959336977+960226636
1060+960825948+961108169+961174581+961170614+961217768+961438951+961842737
1050+962147415+961964557+961212074+960144996+958979706+957748132+956507856
1040+955398422+954408121+953345394+952125400+950879750+949680871+948347374
1030+946664477+944659690+942530588+940394767+938227084+935953896+933513461
1020+930852611+927915618+924719565+921638871+919600302+919647648+922098960
1010+926323510+931410207+936850977+942579085+948638745+954880751+960859474
1000+966103373+970538805+974475505+978203433+981831039+985413858+988917917
990+992119088+994767334+996843780+998607229+1000432037+1002485898+1004496571
980+1006024442+1007011544+1007808622+1008695145+1009674441+1010708633
972+1011835406+1013024561+1014128876+1015051165+1015862191+1016706295
963+1017642596+1018659065+1019777393+1021013893+1022246875+1023289896
955+1024149100+1025079642+1026287799+1027646184+1028838602+1029719815
946+1030376774+1030920742+1031427409+1032007975+1032705242+1033393807
938+1033962536+1034480464+1035029487+1035508194+1035739678+1035696299
929+1035553813+1035575310+1035926887+1036541554+1037223274+1037894117
921+1038590936+1039226461+1039600815+1039698579+1039737095+1039853093
912+1039921681+1039761536+1039472469+1039502668+1040211516+1041366249
904+1042350279+1042855091+1043012549+1042961812+1042732375+1042422578
895+1042131912+1041862679+1041635034+1041450448+1041167971+1040673780
887+1040057897+1039443294+1038822548+1038129248+1037318862+1036398620
878+1035476267+1034718410+1034239703+1034045072+1034012761+1033937520
870+1033683642+1033299883+1032981257+1032913692+1033057970+1033127965
861+1032979849+1032972747+1033661953+1035106712+1036738936+1038045241
853+1039135992+1040358225+1041561135+1042209393+1042083094+1041383204
844+1040347796+1039240281+1038477689+1038371417+1038835920+1039400618
836+1039382703+1038260281+1036056321+1033188492+1029987256+1026523570
827+1022637864+1017962310+1012254035+1005831858+999406930+993501914+988294484
817+983858155+980191265+976987215+973595059+969343509+964004981+958000794
807+951990912+946116478+939909086+933210958+926843293+922068057+919718475
798+919943561+922311185+926119602+930959076+936863709+943792553+951321668
788+958930568+966213612+972866953+978863975+984560093+990301766+995994301
778+1001199172+1005559810+1009017738+1011686970+1013685039+1015139843
769+1016219142+1017065357+1017711632+1018039215+1017892187+1017324161
761+1016464254+1015019751+1012499339+1009274303+1006752036+1006049459
752+1006989022+1008651446+1010438953+1012353270+1014500095+1016598679
744+1018207358+1019402527+1020716509+1022194410+1023154320+1023184327
735+1022691480+1022115266+1021288564+1019990706+1018508389+1017215329
727+1016058933+1014774895+1013290915+1011827473+1010828534+1010659048
718+1011140890+1011646598+1011790555+1011701174+1011591318+1011399758
710+1010899681+1009874830+1008074080+1005207786+1001337371+997441364+995261461
700+996086626+999567587+1003959897+1007611879+1010124741+1012140661+1014212692
690+1016123682+1017408617+1018167562+1018869755+1019689035+1020656238
681+1022090505+1024135280+1026153375+1027318920+1027628845+1027735886
673+1027991427+1028096612+1027409262+1025488098+1023300773+1022517067
664+1023251316+1024836450+1026638160+1028305575+1030075870+1032213738
656+1034113916+1034730631+1033948076+1032856749+1032627760+1033723758
647+1036111409+1039383663+1042498588+1044085258+1043417550+1041046727
639+1038461246+1037009961+1036925314+1037434668+1037840501+1038158423
630+1038618960+1039145077+1039595313+1039949321+1039928463+1039102274
622+1037808574+1037151103+1037555656+1038240255+1038694202+1039527173
613+1041089146+1042481569+1042678951+1041745913+1040540763+1039863714
605+1040062248+1040946596+1041851290+1042026791+1041346734+1040567699
596+1040338263+1040199935+1039532611+1039129466+1040279144+1042448235
588+1043710584+1043255741+1041961466+1040942757+1040715368+1041388322
579+1042611963+1043562979+1043626129+1042883179+1041736700+1040597834
571+1040213819+1041562863+1044613230+1047543697+1048267261+1046771828
562+1045058220+1044648484+1045116507+1045425152+1045446778+1045277739
554+1044370230+1042619128+1041353516+1041945278+1043859212+1045082469
545+1044282640+1041818980+1038995297+1037175224+1037276059+1039194727
537+1041815589+1044018141+1045397320+1046023056+1046248974+1046592809
528+1047057888+1046984054+1046150763+1045278315+1044902937+1044858598
520+1044957001+1045079589+1044693719+1043153947+1040457716+1037362561
511+1035028975+1034352566+1035299103+1037137795+1039302599+1041566382
503+1043486330+1044481941+1044739657+1045212606+1046234578+1046793006
494+1045714795+1043512882+1042282523+1043178708+1044708562+1044432420
486+1041817060+1038717875+1037221866+1037899491+1040139665+1042594816
477+1043450692+1042224876+1040969245+1041995760+1044751238+1046848094
469+1047493024+1047419958+1047266595+1047645811+1049117315+1051159979
460+1052396735+1052243436+1051422302+1050657854+1049842030+1048769065
452+1047544465+1046505283+1046633949+1049383541+1054753419+1060088875
443+1062636734+1062533405+1061384558+1059590909+1057232114+1055490354
435+1055293228+1056261520+1058512058+1063122096+1069328208+1073426396
426+1072453817+1066493201+1059195441+1053480577+1049861480+1048584991
418+1049861800+1051944068+1053334572+1054186865+1054249631+1051691471
409+1045481839+1038426568+1035446324+1038191757+1043370844+1046990324
401+1047838971+1046914378+1046978743+1052290654+1063013775+1072514984
392+1073426396+1064946392+1051924426+1042149826+1039363573+1043351137
384+1052666928+1062977882+1067313248+1063336625+1057350096+1058878799
375+1068667282+1073426396
##END=
