##TITLE=X7684
##JCAMP-DX=5.0
##DATA TYPE=LINK
##BLOCKS=1


$$ === CHEMSPECTRA SPECTRUM ORIG ===
##TITLE=X7684
##JCAMP-DX=5.00
##DATA TYPE=INFRARED SPECTRUM
##DATA CLASS=XYDATA
##ORIGIN=ComPlat
##OWNER=
##XUNITS=1/CM
##YUNITS=TRANSMITTANCE
##XFACTOR=1
##YFACTOR=8.9524793e-010
##FIRSTX=3997.453
##LASTX=373.96442
##MAXX=3997.453
##MAXY=0.9612651443951764
##MINX=373.96442
##MINY=0.5747515542099897
##NPOINTS=2559
##XYDATA= (X++(Y..Y))
2559A057780857A058204499A058636863A058560097A058036986A057354752A056731241
2552A056516124A057070727A058214885A059250853A059692205A059620167A059302119
2545A058854176A058319747A057809287A057505354A057536446A057796237A057976333
2538A057908356A057734718A057617606A057531786A057499561A057740777A058357497
2531A059029012A059169095A058461161A057326589A056665794A056930511A057647367
2524A058047439A057935587A057717408A057945773A058828210A059811381A060131892
2517A059750395A059107376A058395314A057698699A057402689A057690310A058059357
2510A058065349A057850033A057714545A057763946A057904428A057886452A057462544
2503A056708336A056098008A056022108A056447947A057241102A058353103A059455650
2496A059798132A058835534A056942429A055343336A054986407A055660585A056712066
2489A057737981A058499244A058875881A058875948A058645784A058522480A058764161
2482A059178416A059305049A058781272A057679723A056455604A055569771A055541209
2475A056488494A057655622A058110823A057469534A056182098A055237675A055533685
2468A057105281A058786266A059361042A058538259A057085973A056070645A055796872
2461A056011056A056463527A056971657A057245829A057080314A057091233A057820605
2454A058999584A060080760A060523643A059990479A058547048A056693490A055081348
2447A054274079A054632673A055960456A057509215A058466820A058455102A057912351
2440A057666142A058043844A058712696A059158375A059023154A058115084A056750815
2433A055720106A055339142A055631224A056635500A057886518A058653374A058566822
2426A057706688A056680640A056370383A056699749A056530705A055292603A054072611
2419A054324679A055935090A058042313A059841608A060773047A060797881A060263585
2412A059595999A059073221A058726145A058458564A058166749A057682787A056905611
2405A056220647A056258996A056910005A057500027A057758953A057891512A058086987
2398A058253701A058155830A057784120A057555155A057912550A058655238A059015164
2391A058423544A057244964A056461529A056405936A056521517A055976502A054442124
2384A052884976A052439097A053000690A053730129A053510485A052298616A051090275
2377A050100579A049078326A048323388A048562007A049630132A050700056A051737355
2370A052951755A054094649A054821291A055059044A054949322A054615895A054146647
2363A053741248A053707758A054185995A054923756A055448797A055493339A055337344
2356A055568173A056194415A056684302A056717126A056387028A056012654A055826034
2349A055775500A055777564A055935156A056388293A057249957A058628540A060320710
2342A061324454A060471578A058372811A056668124A055874237A055589412A055338543
2335A054998058A054701848A054401444A054021212A054026538A054499848A054527478
2328A053692046A053380922A054892530A057134842A058493252A058471614A057554356
2321A056383299A055301725A054678213A054987139A055969777A056592424A056257065
2314A055252656A054278673A053568276A053237645A053777266A055154252A056554274
2307A057198758A057165002A056990033A056702345A055927367A054684804A053314077
2300A051798475A050201180A049581796A050308771A051261849A051879368A052580045
2293A053758825A054943530A055334681A054927551A054151906A053479060A053645174
2286A054992599A056849951A058192581A058561029A058168879A057406417A056515192
2279A055526428A054469688A053595373A053100892A052851021A052672523A052577781
2272A052480243A052177375A051854334A052288762A053772873A055411114A056188889
2265A055968646A055540943A055604792A055932360A056120579A056428173A057045160
2258A057364340A056763997A055606656A054948590A055072493A055334348A055557987
2251A056017581A056711001A057332115A057616474A057382382A056574048A055570570
2244A055019896A055057380A055240139A055216437A055012506A054919761A055355520
2237A056517256A057961153A058831206A058708169A057980328A057222926A056642757
2230A056285495A056228437A056340422A056213589A055673168A055229220A055682489
2223A057070127A058338123A058504703A057889514A057654557A058188853A058630005
2216A058147574A057100554A056586698A057068862A057914548A058309893A058218214
2209A058228334A058498512A058515689A058036654A057560082A057619470A058076068
2202A058460229A058617754A058720020A058926414A059236273A059485411A059400523
2195A058858437A058125670A057602626A057425659A057591107A058116215A058749181
2188A058963099A058587860A057981460A057396431A056724516A055969378A055423564
2181A055287343A055518372A056036223A056792027A057662081A058377005A058621683
2174A058370747A058078132A058222808A058640524A058614026A057786450A056697818
2167A056219781A056602410A057120593A056847421A055775966A054846125A054811371
2160A055453924A056018447A056098341A055958060A056105266A056601279A056899818
2153A056560799A055914983A055630025A055857192A056263457A056574247A056650480
2146A056378838A055839349A055394935A055412845A055916781A056562330A056999287
2139A057211341A057337109A057282314A056828978A056045145A055283415A054836271
2132A054745657A054818029A054762369A054454707A053999041A053501697A053014272
2125A052796759A053250361A054292654A055127687A055053718A054333334A053858626
2118A054089256A054627147A054759905A054260031A053639182A053486850A053638849
2111A053532123A053334184A053818213A054984742A055786419A055527960A054691928
2104A054039921A053701633A053493707A053421070A053496171A053546771A053448167
2097A053246233A053047628A052999825A053150093A053209149A052897493A052538366
2090A052731179A053503028A054337462A054888203A055203654A055419103A055602994
2083A055796339A055945476A055822771A055249860A054456372A053980133A054114156
2076A054651248A055154652A055238608A054749985A053996245A053618876A053973408
2069A054782942A055462047A055638813A055335147A054762702A054081466A053458886
2062A053190107A053474399A054159363A054915766A055519770A055853396A055859722
2055A055628028A055410115A055451261A055748669A055950936A055699267A055134012
2048A054773288A054850852A055158447A055536282A056006596A056393153A056398546
2041A056207464A056411262A057099688A057591374A057362076A056722519A056217318
2034A055799269A055057646A054054502A053476064A053865018A054944395A055884024
2027A056200473A056264256A056744357A057615342A058074404A057639111A056878247
2020A056594820A056758671A056773851A056369517A055771372A055363443A055477759
2013A056166851A056992230A057349692A057135308A056849085A056918194A057187240
2006A057273459A057139503A057022989A057026984A057090900A057158078A057130048
1999A056850017A056293151A055678761A055384416A055753463A056822653A058140650
1992A058981142A058874083A058013884A057062670A056393219A055770906A055057580
1985A054734805A055184013A055974371A056475711A056702811A057014134A057363674
1978A057375325A056912069A056216719A055687882A055722770A056465591A057498896
1971A058143712A058216283A058065016A057879660A057529322A056990898A056414525
1964A055966382A055893345A056328305A056933840A057198891A056981178A056415656
1957A055678029A055061108A054773354A054619556A054358701A054177606A054351577
1950A054726216A054919828A054818095A054616028A054498450A054459568A054419487
1943A054390525A054418555A054446185A054362163A054125009A053726933A053151425
1936A052460868A051816384A051276895A050666167A049866487A049243642A049404496
1929A050403912A051570974A052284101A052516395A052477979A052220119A051839754
1922A051664518A051907398A052347751A052608208A052611403A052545557A052496821
1915A052366260A052072114A051574503A050785143A049723809A048645297A047777640
1908A047134355A046785814A046964312A047612724A048183306A048201548A047794684
1901A047523908A047888294A048940774A050195121A051055720A051384287A051361051
1894A050978489A050262432A049748643A049998380A050748126A051150329A050820963
1887A050190860A049760161A049449237A048994636A048631914A048771797A049189779
1880A049291910A049064078A048997832A049248768A049495044A049431328A048992106
1873A048319593A047640221A047021503A046402053A045854974A045393582A044665275
1866A043425775A042108178A041365957A041316422A041616626A041910972A041930080
1859A041516691A040756693A039890901A039086760A038373500A037677217A036938858
1852A036345905A036253760A036708428A037312632A037701519A037850390A037854784
1845A037678083A037113161A035888442A033907120A031367001A028546850A025660654
1838A022910012A020285138A017326038A013537963A008978705A004033489I98764366
1831I92877458I86287343I79435972I72926351I66968402I61438024I56426429I52376299
1823I49658814I48293680I48069642I48782835I50425603I53121784I56712851I60518902
1815I63699244I65794283I66865405I67276996I67451299I67756364I68387532I69182085
1807I69708857I69788619I69793612I70283699I71520337I73322562I75229981I76939062
1799I78647743I80684393I82866185I84666079I85952717I87155132I88708152I90543933
1791I92165063I93242643I94064627I95192673I96781180I98516693A000067249
1784A001321996A002309361A003116364A003871569A004705470A005685379A006778005
1777A007918835A009083168A010191307A010992585A011208234A010804233A009997363
1770A008926707A007387935A005040562A001928929I98648718I95945415I94285535
1763I93761826I94148516I94985679I95812923I96476981I97222731I98419487A000131098
1755A001977598A003485944A004552738A005513405A006765089A008312317A009724189
1748A010620541A011117154A011642528A012430023A013341156A014123325A014763149
1741A015586730A016956259A018910683A021250799A023875606A026748021A029599330
1734A032021804A033895134A035454347A036880734A038076958A038895279A039330905
1727A039444689A039398483A039544024A040113141A040883393A041515360A042071161
1720A042844741A043851947A044785450A045364487A045544117A045416951A045062419
1713A044618470A044413807A044740177A045466087A046129213A046413438A046386407
1706A046358843A046612176A047180627A047853607A048374387A048576055A048431445
1699A048123784A047946484A048008869A048120255A048014262A047648544A047303532
1692A047319244A047735629A048356810A049101895A049963360A050701387A050970033
1685A050748791A050388200A050244989A050375683A050550320A050548322A050427947
1678A050398187A050499453A050615234A050743731A050991005A051278693A051312848
1671A050981551A050607711A050610507A051007251A051435153A051576501A051358987
1664A050855717A050265761A049893052A049869350A049978340A049958433A049850375
1657A049872413A050116824A050506577A050889872A051112911A051143871A051150329
1650A051367310A051908064A052695226A053483454A053985659A054088457A053923874
1643A053686786A053455957A053249363A053161145A053285249A053528728A053706627
1636A053822740A053973342A054004434A053662218A053078854A052702616A052731645
1629A052952820A053088508A053024925A052752284A052314128A051825506A051448736
1622A051330358A051540215A051981567A052373583A052464330A052310600A052194087
1615A052239227A052303143A052263462A052225246A052407805A052902753A053511484
1608A053856696A053798905A053630727A053676533A053887988A054030933A054010027
1601A053816415A053416076A052884244A052428511A052190891A052219919A052577515
1594A053195633A053744177A053982729A054087591A054281669A054381138A054120215
1587A053676533A053425863A053401029A053427062A053565679A053948574A054359566
1580A054487131A054452377A054597652A054908310A055127155A055252123A055440542
1573A055596137A055498798A055251591A055249194A055661983A056187158A056450477
1566A056454938A056387028A056204402A055792078A055360048A055303988A055717843
1559A056239422A056436163A056335362A056401009A056844025A057325924A057603957
1552A057889048A058228867A058274873A058097507A058449376A059660447A060857802
1545A060877909A059676492A058244580A057335045A056933174A056859072A057095560
1538A057433848A057454887A057000020A056280568A055610984A055315640A055640678
1531A056441489A057126520A057160075A056629375A056191219A056353938A056930644
1524A057457217A057928729A058613160A059341867A059654189A059505118A059154314
1517A058569152A057667473A056946823A057117065A058161289A059312772A059918507
1510A059989680A060015046A060463788A061338502A062132389A062368678A062068607
1503A061477386A060632899A059599060A058845121A058892193A059654854A060437157
1496A060544748A059844937A058885269A058503638A059168296A060669717A062387320
1489A063621427A063767568A062711426A061184239A060219643A060091479A060188751
1482A059983288A059612111A059385476A059232810A058910502A058493252A058370081
1475A058714627A059081410A058804109A057870007A057002883A056724250A056879312
1468A057242234A057853229A058519151A058749980A058463291A058125070A058082526
1461A058261357A058463757A058541588A058351705A057865413A057336110A057153085
1454A057438708A057897437A058206496A058397778A058653441A058955243A059159640
1447A059196458A059112103A059122423A059470564A060037151A060368514A060229897
1440A059806787A059396195A059207377A059330748A059689009A060176767A060757268
1433A061203147A061087034A060361923A059567902A059196325A059216698A059372626
1426A059557716A059789876A060058988A060199670A059780888A058356832A056035624
1419A053499034A051185416A048769999A045765559A042325093A039059330A036279526
1412A033743202A030984638A027767078A024260499A020775825A017578039A015235926
1405A014428856A014868943A015417020A015840396A017198739A020015627A023426931
1398A026437031A028838732A030668321A031597696A031078181A028977283A026271449
1391A024601583A024673688A025831229A027086375A028015617A028796721A029603058
1384A030240219A030498478A030484364A030328236A029978098A029559649A029519369
1377A030217649A031668470A033745799A036226729A038516778A039905148A040321000
1370A040430856A040842846A041624549A042703128A044177451A045974949A047625308
1363A048696829A049299235A050018620A051358321A053185114A054677281A054971160
1356A054034128A052869330A052658408A053672538A055198394A056488427A057375591
1349A057919674A058093778A058070409A058219945A058546781A058624745A058248308
1342A057664810A057100953A056545218A056039885A055799935A056010524A056730641
1335A057795505A058619619A058545050A057673398A056804344A056364524A056146278
1328A056126771A056434498A056574913A056098741A055921441A057378521A060039814
1321A062084319A062877274A063502716A064524836A064961061A064081021A062737259
1314A062072468A062111950A062260554A062085318A061313602A060212919A059890277
1307A061030375A062719083A063481611A062895916A061606482A060494415A060150002
1300A060631367A061671996A063023149A064330359A065133301A065397353A065452481
1293A065236099A064328828A062670746A060693552A059019092A058174938A058198707
1286A058541522A058526208A057760617A056307998A054689332A053495971A053047229
1279A053653363A055605058A058433797A061087899A063141193A064719313A065188495
1272A063454380A060084022A057593238A057652959A059142862A059903061A059499659
1265A059333212A061090163A065472587A070683720A072644602A069756009A065451016
1258A063378347A063973297A065760009A067026007A066866018A065878519A065075178
1251A064246670A062761560A060944621A059182144A057171527A055381020A055554591
1244A058437658A062369943A065088893A065813072A065146883A063995534A062865357
1237A061818137A061010534A060935567A061605018A062061549A061575656A060794619
1230A060717587A061092227A060816923A059590006A058302570A057870273A058219679
1223A058564425A058517686A058558832A059148522A059835283A059868240A059432281
1216A059446595A060160788A060819453A060841957A060597079A060768254A061446227
1209A062079259A062046969A061258607A060406397A060415985A061319194A062056955
1202A061871267A061347024A061340233A061707549A062099433A062992855A064732563
1195A066440778A066954967A066140907A064531295A062524406A060565454A059477089
1188A059882155A061102080A061178646A058863497A055491408A054067351A056202804
1181A060585628A064877239A068338011A071548846A073741823A072509980A067387930
1174A061649359A058854842A059326620A061368662A063778021A065694162A066231587
1167A065870596A066469207A068468572A069450545A067039456A062206691A058234593
1160A057479921A060248738A065067721A069022509A070045361A069504740A070142899
1153A071726479A071571883A068821441A065532375A064056054A064781432A066025392
1146A065876189A064301531A063056372A063409639A064679766A065438366A064964457
1139A062998182A059526357A055520237A053090106A054253572A059315834A065985112
1132A070515142A071041115A069209263A067500515A066151426A063968436A061275452
1125A059995938A060654603A061643367A061916274A062376601A063969635A065655813
1118A065254608A061937113A057341636A054263759A054532738A057908556A062283390
1111A065156604A065644294A064852538A064155190A063953389A064279893A065190559
1104A066195168A066483655A065899225A065046016A064583160A064709327A065034099
1097A064941620A064295405A063553849A063002376A062332459A061441233A061122187
1090A062071669A063432210A063706382A062787992A062050963A062488986A063540400
1083A064268108A064640950A064915522A064842884A064227428A063497324A063112098
1076A063050846A063190395A063456045A063498256A062939392A061994704A061520928
1069A062338651A064440947A066689450A067604844A066959228A065893033A065361867
1062A065366327A065524119A065641365A065775788A065929186A065621658A064338415
1055A062818152A062452767A063417829A064687955A065252145A065023912A064697542
1048A064868517A065570392A066441710A066940053A066681061A065937841A065462667
1041A065625785A066104421A066455825A066625069A066756096A066838587A066789119
1034A066591113A066175794A065376714A064203993A062980805A062197370A062294442
1027A063313832A064705931A065643695A065763737A065400682A064996015A064834295
1020A064983099A065123581A064927905A064509124A064126029A063841737A063677287
1013A063675223A063738939A063691135A063447390A063119954A062953707A062987928
1006A063003175A062887195A062635060A062210353A061841306A061933518A062359091
999A062677671A062592050A061931188A060849147A059836016A059130279A058582667
992A058116881A057673599A056865197A055112441A052158201A048446226A044365870
985A039520722A033460508A026033829A016432882A003533481I88198757I72179601
978I54877736I35794419I17091866I00033946H82777554H63615873H44383419
971H28436302H16225061H06190352G97387620G89685570G82779072G76555274
964G71760926G68561941G65773949G62612515G60471337G60687452G63121311
957G67437423G73373467G81185439G91389125H03366008H16046097H30266423
950H48712114H71774655H94436722I13100459I28666611I42409035I54489115
943I64830819I73937285I82284018I89435993I95074030I99902866A004540621
936A008403863A011306837A014037505A016678491A018722331A020180876A021359389
929A022333306A022922729A022858680A022018587A020892405A019833533A018510410
922A016590674A013641094A009055604A003088068I96855149I90299522I82449068
915I73974835I66669463I60122824I52539950I43131283I33222275I24615018
908I17511713I11411419I05714194H98857496H89712881H82536471H79765857
901H79226434H80365666H84301679H90656771H98026924I06173056I15078186
894I24558959I35528303I49718602I64941806I76307495I83860807I89839794
887I95278094A000042482A003688011A006070804A007214630A007029674A005268262
880A001189437I93361753I81833412I70325645I61496946I54981466I50655967
873I49314934I51223152I55457572I60621700I65450802I69223630I72346648
866I76166347I81894132I89768821I98750651A006918420A012789350A016157777
859A017626242A017989496A018023652A018359210A019462689A021520510A024103706
852A026481838A028533135A030951348A033985749A036587654A038058915A038725836
845A039515861A040973674A042468970A043382499A043682903A043313257A042141202
838A040994113A042000187A044338306A045840926A046467300A046557781A046310707
831A045869821A045222607A044171859A042435214A039875454A036569411A032138451
824A026408335A021002659A015678143A007336003I92789973I72677345I52023231
817I32401890I10836709H85890918H60868960H39196521H19687631H01051458
810G86214677G77605889G75126224G78932008G88889286H03757558H21577674
803H40656597H63095026H95114762I30138938I52678568I64730285I72436995
796I78069706I82143936I85043249I87327372I89392983I91308392I93287717
789I96031634A000014918A004464255A008200131A010622472A011742396A012136743
782A012324429A012026289A010530260A007391197A002378137I95547606I88167665
775I81794397I76202500I70200543I62984186I55033930I47952995I42241789
768I36706284I29845192I21742937I16002568I14657008I15342372I16114021
761I16274011I15684987I14549350I13049993I10807348I06929259I00908793
754H93156343H84041422H73449314H63209409H57488548H57444606H61413775
747H68112547H75981178H82734811H86984677H88668125H88390291H86951986
740H84909811H83089210H83288414H86487731H91872701H98650969I06577656
733I15447366I24726005I33774481I42557040I51402716I59801314I66720862
726I71976536I75918807I78478167I79193225I77731418I74228501I69310915
719I63551772I57414526I52054457I49273522I49590504I51496193I53195486
712I53656878I52566116I50000164I45959289I40344689I33747516I27838970
705I24116542I22985566I24133919I26774373I30018697I33413689I36622794
698I38668165I38040658I33250704I22863726I05773649H81979939H52810513
691H20402889G87706977G58843815G38411009G29938575G34525264G50701612
684G75784689H06304335H36990229H62504338H80964943H93428451I01298280
677I05454136I06672397I05960469I04332215I02463344I00764383H99562101
670H98993384H98956366H99270352H99638467H99510636H98304958H95824360
663H92421512H88809205H85740250H83754467H82960513H82902323H82745796
656H81784396H79862263H77384395H75039152H73489794H73084795H73653778
649H74494736H74550663H72850703H69122616H64012750H58582706H53622710
642H49409329H45874254H42902970H40522041H38827608H37825728H37397426
635H37288436H37049351H36125102H34159759H31271099H27983831H24700092
628H21037386H15746758H07465805G95608365G80589091G63531704G45980833
621G29650555G16125778G06611450G01764038G01594262G05501979G12461806
614G21287110G30924076G40703655G50356600G59765001G68781519G77295765
607G85285103G92712314G99483125H05527293H10837428H15371786H18895076
600H20956626H21160624H19490758H16306154H12020602H06800282H00498519
593G92870439G83935481G74147247G64198292G54740290G46280772G39186254
586G33674518G29815204G27600789G27032338G28076629G30537053G34029584
579G38011270G41685161G43970083G43761558G40300652G33364860G23226620
572G10467102F95894241F80701396F66472348F54706254F46356924F42002662
565F42317514F48053555F59444010F75704914F95168797G15841552G35900185
558G54080559G69956903G83737009G95581600H05228420H12387918H17379806
551H21303236H25660560H31780828H40342877H51154629H63259410H75359330
544H86366025H95761710I03554174I09927574I14942565I18567322I20924016
537I22363985I23233572I23641435I23480314I22534959I20477138I16916431
530I11652967I04872569H97069852H88871056H80858683H73328141H66202331
523H59362412H53051596H47904912H44750668H44376961H47071210H52121621
516H57965054H63046690H66592218H68739521H70160648H71489830H72910957
509H74230551H75328438H76374393H77550974H78756387H79737893H80434176
502H81076263H82034800H83709459H86519756H90794056H96487220I02982394
495I09301466I14639964I18791759I22122570I25166292I28269535I31584101
488I35210588I39153925I43248861I47327753I51316230I54968949I57746622
481I59204767I59310894I58152487I55455908I50581997I43022493I32857556
474I20720551I07394046H93567801H79987165H67653086H57636220H50570732
467H46367138H44469040H44330289H45639697H48251388H52010368H56605246
460H61500062H65867772H68512154H68209220H64647514H59111410H53991490
453H51489388H52589005H56908313H63284976H70456325H77343516H83197001
446H87940550H92298274H97286300I03526344I11010747I19270994I27643627
439I35515386I42462365I48215516I52557327I55308036I56347932I55611702
432I53264129I50109553I47646533I47275288I49304747I52804069I56329223
425I58771671I59777945I59590126I58565010I56917848I54804100I52297536
418I49243828I45365738I40550817I34955591I28939586I22947150I17353255
411I12456575I08688274I06706885I07173537I10462469I16482136I24546642
404I33405234I41648770I48352802I53357806I56867314I58966548I59741726
397I59588595I59010357I58284247I57597152I57204670I57105933I56830097
390I55894396I54293240I52245605I49579252I45702694I40354942I34291732
383I29107564I26326696I26504395I28937189I32170195I34926030I36710145
376I37801973I38953655I40961276I44169248I48302268I52881833I57695556
369I62725527I67679998I71847173I74670785I76391251I77752058I79117258
362I80267010I80911893I80988060I80650105I80270871I80100429I79737175
355I78272572I74923452I69198463I60801197I50001363I38178277I27787704
348I21495196I20648712I23978657I27731578I27263262I19137836I03225140
341H83941088H68525936H62185825H64311956H69792800H73671022H73989602
334H71056068H65696398H58630710H50544633H42089842H33901366H26641534
327H20853695H16854166H14978171H15819462H19838033H26516765H34080863
320H40322304H43792531H44243537H42185050H38404232H33986188H30478211
313H29555692H32213058H38298438H46985656H57665315H70128357H83867451
306H97609075I09853538I19755090I27357071I33076933I36992706I38696394
299I38067556I35964661I33657701I31753810I30128818I28604960I27142154
292I25597790I23867004I22304596I21694001I22577370I24684194I27174778
285I29317887I30675032I30886820I29824819I27960143I26250463I25619761
278I26538217I28839052I31753011I34186471I35211786I34579087I32835518
271I30723302I28352027I25162364I20923749I16664496I14234698I14726383
264I17469102I20635862I22493214I21985484I18794223I13513116I07640855
257I02926601I00470304I00359450I02031913I04739545I07641853I09969120
250I11540981I12877420I14531507I16616692I19197757I22753405I27797491
243I34033739I40114525I44362460I45810685I44413327I40297085I33409029
236I24106688I13418707I02260944H90804909H79098736H68127727H59942115
229H56817233H60173610H69775423H83780233H99663101I15128121I28526996
222I39046067I46745453I52250532I56286613I59491256I62420063I65377033
215I68204107I70461599I71737917I71573400I69442675I65646078I63002695
208I64818369I68321153I69114574I67076127I64626156I63927809I65257990
201I67707961I70504875I73247527I75537709I76884667I77182941I77017093
194I77037266I77179412I76845785I75658550I73867577I72276540I71781126
187I72690395I74421647I75935385I76595981I76797249I77632415I79705750
180I82422769I84656825I85728413I85354505I83231636I79551753I75701893
173I73532685I73694938I75236573I76852843I77710246I77239866I75366535
166I73140402I72197777I73248593I75384511I76925081I76844787I75470464
159I73923703I72979547I72428607I71279321I68716033I65284754I62660613
152I61752143I61848416I62031309I62620199I64503784I67503364I70138292
145I70921393I69567177I67296570I66054207I66916071I69039939I70330705
138I69543742I67533058I65770647I64369494I62569999I60433947I58716011
131I57375112I55664499I53689834I52403397I51578817I48909268I41974874
124I30794341I17837017I06034505H97564534H93830255H95333607I01287760
117I09984632I19871869I29901984I39049063I46344715I51512837I55189126
110I58370866I61526507I64127812I65328697I64927958I63059554I59763764
103I55910242I53737439I54760890I57689630I60016830I61026366I62051549
96I64084736I66594961I69022628I71552628I73584017I73655723I72210161
89I71878199I73915181I76571014I77498192I76561626I75427521I75478054
82I77060436I79755218I82467044I84129919I85044381I86517439I88772268
75I90260240I89430068I86665378I83731378I81716500I80520143I80152894
68I81035730I82792815I84232850I84623269I83887372I82087544I80220738
61I80653634I84305088I87873918I87984306I85373414I81918300I77543333
54I71998307I67422404I66361469I68126343I69486550I68465496I65514718
47I61541754I57009860I53098614I51828754I53704149I56664581I58910422
40I61336756I65481895I70471053I73820372I74064850I70823722I63889393
33I56503926I56471569I63850445I70148744I70258733I65096602I58672668
26I53326048I48565388I44257199I41811622I42024941I43890150I45480654
19I44932043I42614497I43024091I48276769I54153757I57176773I57694291
12I55860907I49923665I40715400I34456116I36067792I41171799I42233266
5I36784181I25319556I08393929H89878596H77944524
##END=


$$ === CHEMSPECTRA PEAK TABLE EDIT ===
##TITLE=X7684
##JCAMP-DX=5.00
##DATA TYPE=INFRAREDPEAKTABLE
##DATA CLASS=PEAKTABLE
##$CSTHRESHOLD=0.93
##MAXX=3997.453
##MAXY=0.9612651443951764
##MINX=373.96442
##MINY=0.5747515542099897
##$CSSOLVENTNAME=- - -
##$CSSOLVENTVALUE=0
##$CSSOLVENTX=0
##NPOINTS=35
##PEAKTABLE= (XY..XY)
385.29667513682534, 0.8365699035248398
398.0454621657541, 0.8438736772272412
405.12812162627006, 0.8431549050454424
417.87690865519926, 0.8562791922511022
434.8752913604376, 0.8521227217329792
517.0341411024233, 0.8538314680282513
542.5317151602812, 0.8001996855601221
696.9336913995307, 0.7670638542315776
733.7635205942138, 0.8060449338684385
749.3453714073494, 0.8184667209186751
767.7602860046909, 0.8286591750023447
781.9256049257228, 0.8251446464886679
815.9223703362, 0.7426580169779654
832.9207530414383, 0.729607520582936
852.7521995308834, 0.7718700751065922
913.6630708913212, 0.8292920570977392
951.9094319781075, 0.811727461912998
1014.2368352306485, 0.7622941120239668
1031.2352179358872, 0.7558849434635517
1107.7279401094602, 0.7559267264749407
1174.3049390383107, 0.5747515542099897
1198.3859812040655, 0.6508741956375603
1246.5480655355746, 0.6281008107553776
1345.705297982799, 0.6534759982958998
1369.7863401485533, 0.8263009173813783
1419.3649563721656, 0.7905837872578353
1433.5302752931975, 0.7676255086111655
1454.7782536747459, 0.8188447930719934
1517.1056569272869, 0.6939301475247163
1609.180229913995, 0.8498722295815866
1648.8431228928848, 0.7871256450397816
1732.4185045269742, 0.6808103902735824
2367.0247921892237, 0.9138474443252922
2869.893613885848, 0.8896632176395202
2952.052463627834, 0.8487573844963411
##END=


$$ === CHEMSPECTRA PEAK TABLE AUTO ===
##TITLE=X7684
##JCAMP-DX=5.00
##DATA TYPE=INFRAREDPEAKTABLE
##DATA CLASS=PEAKTABLE
##$CSTHRESHOLD=0.93
##MAXX=3997.453
##MAXY=0.9612651443951764
##MINX=373.96442
##MINY=0.5747515542099897
##NPOINTS=52
##PEAKTABLE= (XY..XY)
2952.052463627834, 0.8487573844963411
2869.893613885848, 0.8896632176395202
1732.4185045269742, 0.6808103902735824
1648.8431228928848, 0.7871256450397816
1609.180229913995, 0.8498722295815866
1517.1056569272869, 0.6939301475247163
1454.7782536747459, 0.8188447930719934
1433.5302752931975, 0.7676255086111655
1419.3649563721656, 0.7905837872578353
1386.7847228537917, 0.8498351555743094
1369.7863401485533, 0.8263009173813783
1345.705297982799, 0.6534759982958998
1320.207723924941, 0.8047888258218223
1294.7101498670836, 0.7816273554382244
1246.5480655355746, 0.6281008107553776
1198.3859812040655, 0.6508741956375603
1174.3049390383107, 0.5747515542099897
1107.7279401094602, 0.7559267264749407
1031.2352179358872, 0.7558849434635517
1014.2368352306485, 0.7622941120239668
980.2400698201718, 0.8480462407221538
951.9094319781075, 0.811727461912998
913.6630708913212, 0.8292920570977392
864.084454667709, 0.8242088536751662
852.7521995308834, 0.7718700751065922
832.9207530414383, 0.729607520582936
815.9223703362, 0.7426580160827175
781.9256049257228, 0.8251446464886679
767.7602860046909, 0.8286591750023447
749.3453714073494, 0.8184667209186751
733.7635205942138, 0.8060449338684385
696.9336913995307, 0.7670638542315776
668.6030535574664, 0.8621261692831713
660.1038622048472, 0.8629543756766853
648.7716070680217, 0.8746725300828675
638.8558838232993, 0.8699850414645691
617.607905441751, 0.8715531210335921
606.2756503049254, 0.8703580474098516
587.8607357075839, 0.8610066151938139
573.6954167865515, 0.8648580290845415
542.5317151602812, 0.8001996855601221
517.0341411024233, 0.8538314680282513
498.61922650508177, 0.8700719458668781
491.5365670445658, 0.8732494690402814
470.2885886630179, 0.8774798494370094
460.3728654182951, 0.8775405866375723
446.20754649726314, 0.8651331047540092
434.8752913604376, 0.8521227217329792
417.87690865519926, 0.8562791922511022
405.12812162627006, 0.8431549050454424
398.0454621657541, 0.8438736772272412
385.29667513682534, 0.8365699035248398
##END=

##END=

