##TITLE=X8098
##JCAMP-DX=5.0
##DATA TYPE=LINK
##BLOCKS=1


$$ === CHEMSPECTRA SPECTRUM ORIG ===
##TITLE=X8098
##JCAMP-DX=5.00
##DATA TYPE=INFRARED SPECTRUM
##DATA CLASS=XYDATA
##ORIGIN=ComPlat
##OWNER=
##XUNITS=1/CM
##YUNITS=TRANSMITTANCE
##XFACTOR=1
##YFACTOR=7.1527379e-010
##FIRSTX=3997.453
##LASTX=373.96442
##MAXX=3997.453
##MAXY=0.7680193825034454
##MINX=373.96442
##MINY=0.2539427595714625
##NPOINTS=2559
##XYDATA= (X++(Y..Y))
2559I57971744I59038134I59890696I60041025I59491873I58656144I57940662I57618003
2551I57868412I58647144I59627369I60470764I61003834I61076333I60578094I59724450
2543I59013051I58770641I58939803I59321710I59778865I60194938I60420766I60327935
2535I59965277I59654535I59777699I60419849I61299077I61932978I61889312I61137331
2527I60109357I59297376I58949470I59019968I59169881I59214963I59707034I61304327
2519I63387024I64563828I64379916I63197778I61216662I58830556I57366593I57896246
2511I59440790I60146688I59628452I58985135I59063882I59290711I58735558I57566671
2503I56782108I57001352I57938327I59037301I60121689I61248328I62081807I61703733
2495I59480456I56135957I53642937I53372444I54881822I57296511I60042525I62204304
2487I62855454I61865563I60176355I59233046I59174881I58752475I57558670I56381034
2479I55459641I54177007I53187282I54160340I56543030I57937412I57479589I55881714
2471I54113258I53309279I54666161I57410925I58958553I58533646I57632086I57549088
2463I57857830I57722333I57005934I55698468I53827349I52610046I54667077I59275128
2455I62641626I63832930I63520688I62184721I60021109I57167680I53980012I51421909
2447I51046502I53535106I57199347I59883279I61068333I61267411I61010918I60674509
2439I60635094I60809173I60271770I58517314I56929937I57330260I58608895I59204046
2431I60343351I63072116I65610968I66142705I64731240I62497630I61082249I61313577
2423I61688317I60747591I59450040I59456207I60517930I62043475I64424414I67107097
2415I68556560I68511645I67987324I67638750I67354174I67089597I67114264I67259176
2407I66931851I66250535I66215370I67200511I68231985I68473813I68033574I67519170
2399I67588918I68195486I68321400I67654000I67258427I67580085I67566502I66506945
2391I65194229I64701408I64755323I64302750I62720874I60322352I58738225I59042384
2383I59417541I58396649I56925604I56682442I57359926I57161265I55263063I51881731
2375I48397569I47159184I49023469I52293138I55321728I57370926I58080991I57690501
2367I57012685I56689027I56880605I57717833I59302377I61379325I63227695I63810514
2359I62489214I60068608I58883888I60118773I61912394I62378800I61373742I59812448
2351I58949720I59385459I60369600I61063916I61499489I61713733I61367159I60501596
2343I60097524I61447407I64135422I65726715I65330392I64041508I62704375I61338493
2335I59685951I57711000I56081375I56510948I59256378I61118165I60629509I60175022
2327I62609794I66823104I69792529I70515011I69522286I67706165I65670967I63709516
2319I62491880I62762540I63432856I62173304I58375817I54310170I54021427I57974994
2311I62221054I64957568I66474613I67054348I67008100I66853770I66683441I65937710
2303I64147671I61383408I57952911I54717493I54086676I57394759I61039250I62071141
2295I61199246I60096607I59909945I60938253I62300885I62631376I61730565I60660093
2287I60480764I61272161I62796372I65141147I67716915I69096130I68626725I66910769
2279I64936734I63287692I62033974I61161497I60887254I61375075I62062891I61923893
2271I60702925I59685451I60658343I63324359I65797129I67053014I67242427I67098181
2263I67108680I66989433I66424948I65818713I65457472I64679658I62875037I60957419
2255I60927836I62919786I64759656I65358308I65354224I65597468I66257284I66901935
2247I66996683I66365198I65457638I64957985I64911402I64790822I64347083I63869261
2239I63803430I64482330I65962293I67703499I68759139I68653058I67802746I66840104
2231I65977376I65258144I64765239I64299501I63419773I62281802I61985560I63424857
2223I65895961I67612167I67679499I66894686I66477862I66523445I66196120I65191812
2215I64334917I64461914I65168646I65367141I64803405I64343833I64716324I65506804
2207I65907627I65805213I65678883I65815130I65979959I65820046I65358558I65008567
2199I65105731I65453138I65508804I65094231I64706824I64912152I65591135I66204536
2191I66581527I66921518I67197678I67155346I66808605I66281868I65345975I63870345
2183I62474714I61903978I62004976I62110640I62152805I62601377I63532604I64414498
2175I64729157I64442998I63933510I63651268I63784931I64136839I64373499I64392832
2167I64341167I64366750I64432415I64357583I64046508I63659684I63484855I63662433
2159I64125922I64714241I65180146I65189895I64536744I63381441I62242469I61700233
2151I61942061I62581211I63093782I63318443I63361275I63255361I63016784I62841871
2143I62931869I63220778I63514104I63769515I64019674I64137005I63926011I63354358
2135I62495047I61401074I60272020I59566537I59666201I60470681I61449323I61996809
2127I61761232I60843172I59772949I59178297I59233712I59377292I58847805I57581004
2119I56162790I54874572I53308862I51046502I48331737I45934380I44378587I43401029
2111I42501051I41926732I42339222I43471193I44143260I43837018I43313697I43430944
2103I44284340I45736720I47822000I50210190I52065643I52964537I53426859I54157256
2095I55267146I56473949I57521172I58254570I58774724I59549204I60877754I62263803
2087I62836955I62475964I62039308I62353134I63364525I64392082I64852321I64673242
2079I64262668I64122506I64428081I64985567I65442972I65444639I64860404I64011842
2071I63473439I63622017I64395081I65233311I65396224I64742323I63947343I63590269
2063I63527771I63513938I63762431I64445748I65174979I65414889I65101814I64539662
2055I63977175I63630851I63843096I64718907I65721882I66151953I65966959I65696549
2047I65669550I65775214I65858879I65890544I65818796I65664967I65753465I66433447
2039I67493754I68207986I68083656I67325592I66460030I65716549I64970401I64232503
2031I63922177I64447831I65653800I66879186I67551169I67699832I67812496I68051573
2023I67890494I66961267I65909711I65662383I66133205I66375865I65826128I64871820
2015I64322251I64609743I65456222I66181454I66341533I66092373I65932960I66120705
2007I66462697I66720190I66948768I67256843I67510170I67504087I67241260I66939185
1999I66837854I66914519I66844270I66490696I66245035I66508529I67044265I67210594
1991I66713273I65905794I65338475I65076065I64689991I64032675I63575018I63676434
1983I64028258I64176920I64125089I64035841I63716849I62849121I61522071I60151188
1975I59033467I58361401I58413400I59244879I60410516I61409406I62122556I62595044
1967I62804956I62754707I62420965I61756982I61020917I60729675I61054583I61643318
1959I62064141I62084890I61718316I61251994I60937418I60665675I60373767I60461180
1951I61196830I62073641I62335634I61867478I61213829I60981752I61375491I62038142
1943I62339050I61959477I61123248I60285186I59772365I59614703I59576787I59453207
1935I59298127I59179297I58881221I58179656I57294261I56692277I56441865I56122458
1927I55469724I54729243I54163839I53694268I53326195I53383277I53892014I54207839
1919I53671353I52354719I50939672I50049444I49805700I49929197I50143275I50365353
1911I50509849I50236273I48892889I45670055I39952699I31708240I21680160I11422335
1903I03100795H98703740H98885985I02352148I06374380I08234083I06826951I03254125
1895H99644548H97288275H96076139H95369491H94760673H94045191H92995467H91285844
1887H88519080H84511348H79918714H76500050H76132726H79174316H84084442H88900237
1879H92796554H96093722H99316724I02613308I05771145I08512826I10795435I12772635
1871I14461175I15691728I16401710I16729452I16880281I17134607I17818257I18978145
1863I20196281I20957928I21149590I21111924I21326169I22083982I23312202I24644834
1855I25693392I26246711I26293627I25982468I25533313I25145323I25002659I25217737
1847I25583478I25592645I24951161I23859355I22663218I21518164I20439525I19426467
1839I18607654I18368660I19050226I20435691I21874821I22931795I23639361I24187597
1831I24660085I25092491I25612144I26345376I27189021I27880670I28331242I28714316
1823I29266301I30107531I31112172I31915985I32288058I32403973I32459055I32194811
1815I31169254I29425215I27605677I26370292I25874804I25914970I26267210I26533454
1807I25980635I24160431I21606078I19453633I18420576I18325327I18520073I18671069
1799I19028060I19908788I21169505I22385809I23366367I24357508I25811889I27875920
1791I30075698I31744572I32749547I33529611I34495003I35641974I36675697I37357431
1783I37756004I38158577I38746229I39448211I40092445I40600266I41043005I41534326
1775I42099395I42698213I43315447I43952848I44599165I45245982I45870050I46423202
1767I46886107I47286764I47727919I48434068I49550040I50819841I51692569I51815066
1759I51275830I50460767I49808534I49539207I49467375I49168133I48427318I47502258
1751I46806776I46344788I45757051I45045904I44801243I45446643I46677695I47858333
1743I48647646I49181133I49849199I50845841I51911230I52716210I53342694I54038009
1735I54705492I55038068I55014319I54962320I55171398I55602554I55990961I56150039
1727I56101291I55975628I55939962I56158457I56659944I57302844I57963244I58633311
1719I59265545I59679368I59742116I59533705I59226463I58908054I58655977I58667560
1711I59082216I59720032I60203771I60326434I60219937I60242687I60687592I61478489
1703I62223304I62654459I62828622I62848205I62675209I62316884I61931311I61635318
1695I61380242I61132747I61056333I61352659I61989560I62782623I63658183I64585077
1687I65343225I65668550I65578386I65323892I65092981I64885403I64577994I64044008
1679I63305110I62567628I62029474I61699817I61477656I61318410I61227245I61203663
1671I61324493I61769065I62592461I63560353I64324167I64676992I64604827I64259669
1663I63964093I64047591I64553661I65225895I65860212I66541028I67425588I68429647
1655I69302792I69931276I70411847I70909084I71578068I72526710I73696931I74821236
1647I75597966I75921875I75924541I75783878I75510135I74987482I74243834I73537601
1639I73080279I72841619I72777120I73028614I73618599I74151003I74213918I73965424
1631I73927092I74275166I74734655I75073729I75279641I75275474I74899817I74250833
1623I73735346I73669431I73984590I74316748I74299999I73897009I73512769I73611850
1615I74194668I74828569I75115645I74952899I74505994I74074505I73764679I73283191
1607I72367381I71306158I70628675I70430097I70414930I70423930I70536594I70775337
1599I71023748I71198994I71364405I71718981I72466878I73562267I74643490I75388555
1591I75822127I76029289I75787878I74909067I73817761I73316107I73752346I74768987
1583I75815377I76570692I76982181I77301840I77999322I79252206I80628256I81609481
1575I82228132I82822867I83380020I83549515I83281106I83081194I83419519I84042336
1567I84250248I83843508I83367686I83348687I83701428I84008171I84073586I84088252
1559I84361328I84993812I85888456I86946513I88001070I88741134I89075876
1552I89316786I89642528I89812357I89836274I90321345I91567980I92815447
1545I93037026I92156215I90906247I89861022I89204706I89067793I89440533
1538I90003936I90449340I90691252I90676085I90460673I90460673I91052160
1531I91975135I92556288I92388792I91600312I90763333I90602504I91420400
1524I92831781I94263662I95448549I96257861I96510605I96206363I95584962
1517I94842397I94136832I93838173I94299994I95280886I95981285I95868038
1510I95265553I94956310I95338551I96109365I96685184I96787848I96587020
1503I96349526I96136781I95939453I95913870I96264861I96969344I97726074
1496I98112398I97845988I97067341I96316860I96089366I96495855I97364666
1489I98395058I99151037I99249453I98757048I98181063I97907737I97830238
1482I97673659I97498247I97598744I97951485I98088148I97674658I97003676
1475I96664268I96817847I97092923I97179255I97148756I97081424I96853430
1468I96548937I96614352I97251086I98064899I98611301I98878962I99022624
1461I99066124I99019542I98917711I98715216I98472889I98535387I99167538
1454A000158846A001049657A001561978A001656975A001455480A001222403A001143738
1447A001130154A001169404A001667558A002894611A004291992A004951391A004634233
1440A003812171A002976692A002369791A002100464A002135630A002391873A002883611
1433A003506512A003844252A003596260A002993192A002475705A002220878A002184212
1426A002291625A002442955A002526787A002296041A001059657I97951402I92844280
1419I86528607I79697112I72270633I63966676I55010568I45968880I37202602
1412I28636984I19916454I10834849I01613000H92694391H84620678H78226923
1405H74250523H72517734H72283240H73580040H77308780H83815782H92509563
1398I02613558I12687304I20092117I22383559I18955312I11780492I04781170
1391I00882685H99916376I00340614I01332007I03002715I05482569I08059420
1384I09774210I10865683I12519557I14936413I16918779I17648762I17722010
1377I18347077I20359360I24088516I29326800I34976074I39468794I42138060
1370I43834018I45897632I48852058I52375719I56162707I60233437I64428248
1363I68193486I71227410I74023923I77324506I81111660I84475575I86561439
1356I87511249I88333310I89854940I92007135I94207747I96109532I97669493
1349I98790798I99460863A000174429A001636476A003847420A005857203A006684182
1342A006307191A005602209A005438213A005952867A006680348A007311249A008188477
1335A009756771A011513477A012104462A010836910A008490218A006274275A004852145
1328A004703398A006089863A008157228A009569692A010390754A011696305A013254766
1321A013551008A012426286A011813719A013173935A015510875A016734928A016236107
1314A015174134A014677562A014813893A015152135A015446711A015770286A016367187
1307A017286664A018301805A019299113A020202757A020541248A020051011A019525941
1300A020027928A021545890A023210180A024503732A025783283A027740317A030441249
1293A032939436A034044741A033334926A031404558A029551438A028919704A029446856
1286A030040342A029863680A028856539A027460574A026485848A026529348A027229497
1279A028083725A029601603A032200455A034805472A036157188A036506679A036510428
1272A035536454A032719358A029037034A026649677A026476016A027653818A029052951
1265A030172589A031281728A033635668A037998558A042096455A042510777A039568185
1258A036582094A035928860A037815563A040738322A042495610A041818961A039101864
1251A035666534A032969102A031685718A030903654A029461107A028336635A029831181
1244A034100823A038430214A040339666A039820429A038301551A036763089A035285460
1237A033851996A032992685A033247345A034064241A033951077A032292202A030442499
1230A030123424A031129065A031609553A030466582A028538547A027425492A027807899
1223A029004619A029963678A030428999A030750241A030822489A030089758A028538797
1216A026824839A025450625A024507899A024008161A023942830A024270738A025101134
1209A026489265A027902730A028401883A027684735A026629762A026466766A027613820
1202A029558605A031601303A033303677A034454314A035106297A035557952A036058691
1195A036693008A037501654A038279968A038346049A037139496A035172213A033979576
1188A034743890A036723174A037390740A034961468A030745575A028223388A029565438
1181A033792331A038468380A042147287A044802469A046512677A046709172A045349373
1174A043825328A043298675A043140011A042522276A042030289A042149870A042167786
1167A041969708A042790437A044828719A046070355A045018047A043042431A042481028
1160A043830661A046216934A048724871A050034171A049204775A047669397A047648648
1153A048323380A046791170A042820103A039518519A039431689A041877709A044118070
1146A044412896A043495335A043131011A043836577A044517977A044108570A042550610
1139A040154336A037043082A033608252A031028734A030899987A034146072A039734848
1132A044512394A045660781A043342423A039721848A036088523A032361617A028769958
1125A026208022A024703560A023189765A021182649A019367612A018106477A016326772
1118A012557200A006758513A000898244I97720158I98730382A003128021A008549218
1111A012880692A015625873A017758736A020285672A023117849A025644787A027549572
1104A028435632A027680069A025168882A021584639A017884399A014788727A012347122
1097A009905266A007250417A005541961A005961783A007935067A010204760A012577200
1090A015207717A017235165A017643572A016838009A016416686A017273915A018542882
1083A019165950A019475526A020191674A020974571A021030403A020452834A019990763
1076A019932431A019938097A019706103A019366862A019352279A020153675A022151625
1069A025593787A030350000A035294626A038765456A040421247A041564718A043239009
1062A045244292A046932833A047868893A047992805A047800644A047981056A048643540
1055A049516183A050771986A052548441A054277314A055218457A055373953A055469367
1048A056067852A057076244A058084135A058744868A058775451A058007470A056584506
1041A054908465A053479834A052841767A053041762A053367504A053348421A053147509
1034A052955597A052542358A051451469A049528767A047324240A046087437A046675339
1027A048458210A050242083A051207558A050908482A049336271A046872918A044169319
1020A041920376A040323583A039045948A037906561A037100498A036801422A037043749
1013A037845395A038963616A039872011A040368248A040945316A042234950A044084988
1006A045621616A046214268A046042105A046126520A047758145A050795319A053602331
999A055282539A056090435A056445593A056495258A056489757A056816750A057409652
992A057720311A057256656A055728778A053200175A050530492A048741620A047734396
985A046751087A045136545A042606775A039535686A036830171A035155047A034458064
978A034721974A036051191A037826562A039069115A039465438A039599018A040465163
971A042252368A044176068A045573534A046270683A046460511A046527760A046587092
964A046316847A045681198A045541534A047332489A051097978A055425119A059923588
957A064490140A068372124A071055557A072787847A073741822A073405248A071403799
950A068691366A067199570A067015909A066407675A064370309A060510657A054685886
943A046338348A033671917A015927448I94784649I66543195I17610263H42585656
936G62049188F85352248F04957193E33119506D82992604D48499558D22862288
929D06808485D00699306D03699272D18266071D42856242D70783287E00431205
922E31592753E64241929E99246588F33022652F59326197F79655225G00570655
915G22932092G41103550G53502820G63328989G73532148G83957052G92186094
908G97280966G99819485H00553050H01588857H06930389H14332119H18501430
901H21733849H28887001H41354020H53707708H62303992H68218509H72796810
894H76560465H80581113H87295028H96633458I04279431I08889233I12157817
887I15510066I19230804I22823631I26183879I29921535I33763605I36157711
880I36528702I36152210I36868193I38436320I38932725I37344515I33425280
873I26933111I17388268I04568508H89450640H74313522H61815921H53630377
866H49542230H48130516H48451008H50824364H55830738H62823478H69826552
859H74675429H76037895H73495791H67542693H60625534H57074706H59649642
852H67249033H77978179H91705666I06237800I16728452I22677134I27174271
845I32969041I39814618I45590973I49598455I51864898I51916397I49627121
838I47549924I50903339I57188431I61402741I63908511I65551802I66682691
831I67738414I68530978I68136988I66102539I62832705I58952886I55835465
824I56618528I60562679I62978368I62668876I61435740I61678816I63327776
817I64370583I64185587I63596019I63168780I62524713I61785648I62141388
810I63622017I64879987I65957209I67728331I69735364I70653008I69667116
803I66575360I62293552I60470431I62318051I59738866I47492592I26053633
796I00067039H80151875H78658245H95626317I16697536I31018258I34648916
789I22306143H90791773H52069000H24764522H17419791H28307599H49901221
782H72929723H91409007I04402429I13424785I20488940I27488013I33701107
775I35351232I30590018I20932512I10670021I06116303I09411553I15732727
768I20649436I23956436I29043724I38087163I46665196I51669737I53543273
761I52237806I45657887I29843704I01998906H65081504H28678340H04969855
754H00342555H11565522H32219917H56012650H75210416H86593295H93055049
747H97982591I02650723I06392546I08299498I08175083I05756645H99195811
740H83921113H55097922H17560121G86488988G70214482G68640105G79043009
733G95099937H08133524H12633328H09199915H03470643H02181842H07858282
726H19046666H33528801H48457008H61225102H71553675H80168541H86813123
719H91200012H94109189H97039782I01089513I05848809I10264865I14089518
712I17658260I21139340I24333176I27049190I29630375I32774880I36450287
705I39767287I42147894I43495776I43503442I41412412I36067880I26087799
698I10689187H89989460H64281192H34639440H04384953G78650269G61759945
691G55477854G59419503G71697111G89366915H09178499H28127104H44108034
684H56722632H67136120H76813375H86353885H95621734I04358847I12251315
677I18924479I24211013I28237911I31114255I32741714I33061956I32269809
670I30730931I28948393I27533846I26763032I26087464I24170347I19122558
663I09000313H93022716H72554900H50598787H30405880H15032684H07825699
656H11432359H25214011H44719685H64635349H81878331H96013474I07882841
649I18516823I28746648I38866310I48398569I56558779I63050533I68169403
642I72309716I75767129I78850133I81777476I84516323I86965929I89260121
635I91756225I94711317I97997651A001210736A004082997A006698098A009261033
628A011747804A013859584A015338797A016234191A016659847A016310605A014411570
621A010071180A002449955I90777500I74747571I55214897I34579001I16433375
614I04445928I00937767I05978140I17415768I31725406I45346563I55900046
607I62489130I64950401I62801622I54796908I39612707I17469516H91484672
600H67326281H51076024H46627720H54083032H70086628H89919961I09675130
593I27038025I40955840I51128334I57536755I59939445I57705918I50478100
586I39474877I28200995I21268670I21807907I29742957I42468052I56871104
579I70594759I82048053I90370843I95843289I99778189A003519845A007645406
572A012090129A016581682A020864656A024882389A028856539A033023434A037378074
565A041827128A046312932A050316664A052419944A051255974A047289574A042890850
558A039660683A035384291A023989162I99673942I62495880I20021368H82662145
551H57471530H46341561H47811274H58285593H72278573H83509290H86520797
544H77711603H55788073H21580769G77326136G26365338F73367634F23886841
537E82970623E53873524E37572477E33050590E38142379E50467985E67922670
530E88724853F11372282F34648861F57569449F79178779F98388836G14039149
523G24927958G29605673G26473502G14660384F95057128F70464416F44644234
516F21001330F01828606E88285281E80586225E78299741E80952299E88410528
509F00490890F16387697F34698651F53900125F72834564F90983148G08301794
502G24781962G40264571G54553960G67402886G78083450G84639201G84068632
495G75047109G61356539G51024216G50509145G60178735G75655678G92169428
488H07003137H19244328H28914501H36555807H42891981H48446591H53513380
481H58371591H63261051H68234259H73225216H78111593H82648728H86683375
474H90518612H94710090H99456804I04475844I09385304I13891856I17752592
467I20877263I23384617I25444065I27211770I28780231I29848037I29335966
460I24766082I11582415H85484157H49156657H15461174G98155027G97831785
453H01248532G96379988G84945527G78238363G83651809G98322523H14010792
446H24222702H26968050H24907602H24358532H31138445H45483499H62276909
439H76449468H86656044H94169604I00380114I05879559I10735519I14767084
432I17667678I19381968I20454524I21506998I22340977I22092233I20178780
425I16598622I11512250I04893334H96351716H85150831H70584699H52351992
418H30699622H06511482G81077457G55465353G30334155G06322177F83949867
411F63133601F43779589F27276505F16706397F14998982F22912949F38721050
404F59400945F82034415G04607387G26110927G46211420G64904116G82264011
397G98117944H11834765H22557160H29287491H30187469H22540495H05450676
390G83307902G64826618G57181477G61550784G74477624G91974599H11441025
383H31092361H49324569H64856677H77077702H86210472H93102881H98688073
376I03574117I08052670I12284647I16336545I20063367I23148290I25433065
369I27080024I28226828I28731399I28580569I28265910I28363325I29036808
362I30333692I32557468I35885552I39988531I44370254I48630980I52093726
355I53506357I51114834I42764878I26715116I03707280H78414252H57820520
348H47287787H47784775H56487222H69374313H82916055H94113106I00409780
341I00097621H92279652H76345554H52139081H20906203G85703591G50351400
334G17463730F87345948F59531233F36003702F22088303F22850659F38384433
327F62722528F86746713G02354527G05994936G00378994F93041804F92065454
320G01608296G20341824G43704234G67526883G89794988H10046893H28276267
313H44534357H58938743H71698421H83194548H94004775I04633590I15083910
306I24800915I33198035I40145111I45772718I49987028I52620879I54332418
299I57075100I62881620I71589567I79517617I79875858I65189979I33181120
292H93560036H66223308H67067371H94614843I32433472I62615877I74030838
285I60535763I17836924H46445392G57415971F70173506E99712951E47715180
278E10386330D91342977D99444356E35427156E87843042F42632493F91913374
271G33715320G68233865G96157494H18528679H36623890H51646177H64291024
264H74608264H82548981H88576412H93517204H98061339I02792137I08477660
257I15761226I24478506I33647941I42276640I50061443I57415758I65054982
250I73465770I82411211I90859498I97669409A002469538A005796037A008596800
243A011912216A016684179A023290346A031266895A039513937A046632257A051606132
236A054638221A056570505A057057994A054015737A044950715A028203889A002959109
229I68409064I23073041H65293082G94272292G10149331F14699031E15361454
222D28241985C71788577C55028750C73214541D13247406D61896595E10515743
215E54956372E93931263F27143050F53354389F71565013F85052881G02689102
208G28067794G50418481G63350905G70658387G77883205G88059282H00781794
201H13976878H26281484H37728445H48653253H58710916H67199785H73597373
194H76838125H73552541H58290093H28619341G90859211G57555885G36787575
187G25516276G15560861G03509081F90693238F74852763F47777571F03596686
180E46750912D90476041D48614761D28581060D29955984D47378295D73971832
173E03082764E29667052E53001046E76752697F03731683F32031469F57921024
166F80112589F99423685G16558169G31737036G45061783G56440413G65766927
159G73333403G79797657G85721090G91300950G96763561H02824741H10150808
152H18480597H26772971H34190534H41042111H48580754H57405865H66565384
145H74892341H82404068H89813631H97640350I06106803I14890915I23016293
138I29978700I36442787I42033396I41555907I24084849H78465584H02426336
131G06664085F10370765E33180505D88814207D81529391E05420122E47880467
124E96496907F43800588F86142728G21211302G48467781G69548332G85976834
117G96414154G95772420G77526047G39725751F89852426F41580353F06223870
110E89426794E94229631F19955732F57295331F92647481G16622834G24625966
103G14920794F90044421F58588299F33740342F28211357F46960675F83505003
96G25287449G62355597G91038873H12229255H27563451H37646030H43770626
89H48419092H52498906H54423190H52468906H46264813H36023404H22370583
82H06607897G89948901G73803391G61736279G59159428G68969013G88550436
75H11678436H32307914H47237455H56331141H61371682H65423829H71225183
68H79003403H87189364H94788422I02123403I09254057I14831916I17597763
61I18296495I19049810I21022593I24232679I29022225I34783246I38443654
54I37566009I34127596I32706965I35161735I38845893I40558767I40419187
47I40536601I41841985I43729104I45393395I46342621I45805801I42725546
40I36516702I27224770I15444234I03125961H93061882H84588763H71072020
33H47358119H25213844H21482772H33358472H49981386H64491770H74657680
26H79449892H76566464H65259083H48814082H31300940H13934129G95956748
19G78174531G66138251G66873150G80296561H01618272H27632199H55647993
12H79685470H92164987H92699891H92588144I03460453I21789907I36957941
5I46029796I50594096I49400211I40170693I27727424
##END=


$$ === CHEMSPECTRA PEAK TABLE EDIT ===
##TITLE=X8098
##JCAMP-DX=5.00
##DATA TYPE=INFRAREDPEAKTABLE
##DATA CLASS=PEAKTABLE
##$CSTHRESHOLD=0.93
##MAXX=3997.453
##MAXY=0.7680193825034454
##MINX=373.96442
##MINY=0.2539427595714625
##$CSSOLVENTNAME=- - -
##$CSSOLVENTVALUE=0
##$CSSOLVENTX=0
##NPOINTS=41
##PEAKTABLE= (XY..XY)
385.29667513682534, 0.6384449046679458
398.0454621657541, 0.5479986104567413
416.46037676309606, 0.5875850957481459
483.03737569194664, 0.5430068412797922
512.7845454261137, 0.449343118242433
528.3663962392493, 0.42160153687192925
552.4474384050036, 0.3444253524969619
623.2740330101637, 0.30655279982369116
684.1849043706015, 0.2539427595714625
764.9272222204845, 0.3514447533486728
784.7586687099292, 0.619586829214771
827.2546254730255, 0.49501628021065064
840.0034125019542, 0.44496345820147837
865.5009865598122, 0.6060427466282027
922.1622622439404, 0.5415920647715878
949.0763681939011, 0.43989265270128175
1000.0715163096165, 0.5896420515024763
1009.9872395543389, 0.5566535034264057
1015.6533671227521, 0.5706681646394152
1069.481579022674, 0.5368195212890833
1097.8122168647378, 0.41364264750108837
1128.9759184910085, 0.38127711648630985
1151.6404287646596, 0.6053659359709862
1198.3859812040887, 0.6593450352918575
1219.6339595856134, 0.6055706180034588
1240.8819379671618, 0.6444171711562269
1303.2093412197028, 0.5778165500984029
1351.3714255512118, 0.5403735078916466
1403.7831055590304, 0.5737796463965211
1413.6988288037528, 0.5497881210493479
1440.6129347537135, 0.5724640526131335
1464.6939769194682, 0.6481212422275984
1484.525423408913, 0.5846789519295779
1497.2742104378417, 0.6284812137311723
1582.2661239640343, 0.6130430739890295
1597.8479747771694, 0.6066455285939756
1687.0894839796715, 0.28660971125298973
2341.527218131352, 0.6436865969445851
2359.942132728694, 0.6239213390282796
3039.877440938233, 0.6266747754690515
3066.791546888194, 0.6428192301969746
##END=


$$ === CHEMSPECTRA PEAK TABLE AUTO ===
##TITLE=X8098
##JCAMP-DX=5.00
##DATA TYPE=INFRAREDPEAKTABLE
##DATA CLASS=PEAKTABLE
##$CSTHRESHOLD=0.93
##MAXX=3997.453
##MAXY=0.7680193825034454
##MINX=373.96442
##MINY=0.2539427595714625
##NPOINTS=162
##PEAKTABLE= (XY..XY)
3987.5372767552776, 0.6849590583780414
3973.3719578342457, 0.6857835101287993
3962.0397026974197, 0.6864157363401376
3949.290915668491, 0.6859114218253913
3932.2925329632526, 0.6847792313944975
3925.2098735027366, 0.6859369320651116
3918.1272140422207, 0.6843611645933493
3902.545363229085, 0.6819223213014427
3881.297384847537, 0.6817898797759387
3871.381661602815, 0.6818771410324974
3862.8824702501956, 0.6849097652848035
3854.383278897576, 0.6813769979944944
3838.801428084441, 0.6802586359517826
3827.4691729476153, 0.6871171044923863
3821.8030453792026, 0.6844669028024513
3807.6377264581706, 0.6874369427439537
3801.9715988897574, 0.6862694664264516
3786.3897480766223, 0.6917338413157627
3779.3070886161063, 0.6911085296561523
3772.2244291555903, 0.6920411036235543
3765.1417696950743, 0.6918546009897283
3758.0591102345584, 0.6900256323184963
3750.976450774042, 0.6857603238136227
3743.893791313526, 0.6842898761157952
3735.394599960907, 0.6774781392729874
3724.0623448240813, 0.6842945861937023
3711.3135577951525, 0.6858645127396955
3702.8143664425334, 0.6859116006438388
3691.4821113057073, 0.6867325947610959
3677.3167923846754, 0.6838599486446613
3670.2341329241594, 0.6867880270492733
3657.4853458952307, 0.6884452148518252
3648.9861545426115, 0.6823865218314983
3629.1547080531664, 0.682433192731022
3620.655516700547, 0.6865984244188416
3612.156325347928, 0.6870067162883755
3595.1579426426897, 0.6872974679312727
3588.0752831821737, 0.6864378497446293
3579.576091829554, 0.691739981225976
3566.8273048006254, 0.6873264951722184
3561.1611772322126, 0.690492574492989
3544.1627945269743, 0.6893833321910997
3524.331348037529, 0.6880830574264724
3515.83215668491, 0.691296283303837
3510.166029116497, 0.6897634909119255
3503.083369655981, 0.6897698682930371
3496.000710195465, 0.6907247945663766
3488.9180507349492, 0.690245335100559
3481.8353912744333, 0.690029506241343
3463.4204766770913, 0.6880247039601366
3449.2551577560594, 0.6892744947006657
3442.1724982955434, 0.6897679613731129
3433.6733069429242, 0.6891554638434504
3420.924519913995, 0.687878970501793
3409.5922647771695, 0.688695554240861
3392.593882071931, 0.6863527936771652
3381.2616269351056, 0.6860750957809356
3361.430180445661, 0.6737355034999543
3354.3475209851445, 0.6747275632121016
3326.0168831430806, 0.6881215019621373
3316.1011598983578, 0.6896115588909177
3306.1854366536354, 0.6891472982778638
3293.4366496247067, 0.689176266151085
3282.104394487881, 0.6892598909556953
3272.1886712431588, 0.6907181189160945
3265.106011782643, 0.690714840816315
3249.524160969507, 0.6894682688078408
3233.942310156372, 0.6907129925488416
3226.859650695856, 0.6897544312541013
3218.360459343237, 0.6909065291851184
3204.1951404222045, 0.6915537761460466
3198.5290128537918, 0.6911297482531327
3184.36369393276, 0.6892199550741782
3168.7818431196247, 0.6854907914829798
3151.7834604143864, 0.6871847558027182
3139.034673385457, 0.6869301841386669
3129.118950140735, 0.6873650598738801
3096.538716622361, 0.6818892406039291
3085.2064614855353, 0.679371122802603
3066.791546888194, 0.6428192301969746
3039.877440938233, 0.6266747754690515
3007.297207419859, 0.658847216893672
2991.715356606724, 0.6616301576630076
2976.1335057935885, 0.6568850320554214
2937.8871447068022, 0.6622539801225872
2925.1383576778735, 0.6568540370962793
2847.229103612197, 0.6757915658773209
2825.981125230649, 0.6830595179335928
2816.0654019859267, 0.683758799632196
2799.067019280688, 0.6857014939749428
2790.5678279280687, 0.6868201535715512
2770.7363814386235, 0.6874184057084121
2740.9892117044565, 0.6875237869958928
2728.2404246755277, 0.6894982502240224
2691.410595480844, 0.6958019774476848
2682.911404128225, 0.6966245222785187
2670.1626170992963, 0.6964402241185135
2663.07995763878, 0.6963281678960245
2643.248511149335, 0.6941123648536847
2619.167468983581, 0.6961875007219355
2596.5029587099298, 0.7031722115101052
2588.0037673573106, 0.7033635422420137
2554.007001946833, 0.7074542688660455
2545.507810594214, 0.7084505594226607
2534.1755554573883, 0.7085520074195701
2518.593704644253, 0.7108663966483857
2510.094513291634, 0.7116661707381149
2497.3457262627053, 0.7123510883084673
2486.0134711258797, 0.7124766159975171
2470.431620312744, 0.7134843516500461
2461.932428960125, 0.7128878283299357
2452.0167057154026, 0.7128053350884612
2436.434854902267, 0.7141814875272793
2359.942132728694, 0.6239213390282796
2341.527218131352, 0.6436865969445851
1951.9809478029708, 0.7136430787720588
1687.0894839796715, 0.28660971125298973
1617.6794212666146, 0.6696051392635759
1597.8479747771694, 0.6066455285939756
1582.2661239640343, 0.6130430732737557
1559.6016136903827, 0.677757625353692
1541.1866990930412, 0.6836840556669623
1534.1040396325252, 0.6876897855912546
1522.7717844956996, 0.6879400656125659
1507.1899336825645, 0.6869993253643035
1497.2742104378417, 0.6284812130158985
1484.525423408913, 0.5846789519295779
1464.6939769194682, 0.6481212422275984
1440.6129347537135, 0.5724640526131335
1413.6988288037528, 0.5497881210493479
1403.7831055590304, 0.5737796463965211
1351.3714255512118, 0.5403735078916466
1303.2093412197028, 0.5778165493831292
1240.8819379671618, 0.6444171711562269
1219.6339595856134, 0.6055706180034588
1199.8025130961687, 0.6589593331991593
1151.6404287646596, 0.6053659359709862
1128.9759184910085, 0.38127711577103607
1097.8122168647378, 0.41364264750108837
1069.481579022674, 0.5368195205738095
1015.6533671227521, 0.5706681646394152
1009.9872395543389, 0.5566535034264057
1000.0715163096165, 0.5896420515024763
949.0763681939011, 0.43989265270128175
922.1622622439404, 0.5415920647715878
889.5820287255665, 0.6639642755734989
865.5009865598122, 0.6060427466282027
840.0034125019542, 0.44496345820147837
827.2546254730255, 0.49501628021065064
784.7586687099292, 0.6195868284994973
764.9272222204845, 0.3514447533486728
684.1849043706015, 0.2539427595714625
623.2740330101637, 0.3065527991084174
552.4474384050036, 0.3444253524969619
528.3663962392493, 0.42160153687192925
512.7845454261137, 0.449343118242433
483.03737569194664, 0.5430068412797922
446.20754649726314, 0.6671408458149474
440.54141892885036, 0.6726571960742087
416.46037676309606, 0.5875850957481459
398.0454621657541, 0.5479986104567413
385.29667513682534, 0.6384449046679458
##END=

##END=

