##TITLE=YCW-97
##JCAMP-DX=4.24
##DATA TYPE=INFRARED SPECTRUM
##DATE=15/7/2022
##SAMPLING PROCEDURE=Diamant-ATR
##ORIGIN=Angelika Moesle
##XUNITS=1/CM
##YUNITS=TRANSMITTANCE
##RESOLUTION=4
##FIRSTX=3997.453
##LASTX=373.96442
##DELTAX=-1.4165319
##MAXY=0.93460387
##MINY=0.72031099
##XFACTOR=1
##YFACTOR=8.7041768e-010
##NPOINTS=2559
##FIRSTY=0.8329311
##XYDATA=(X++(Y..Y))
3997+956932651+957053652+957897304+958748967+958885307+958288520+957635512
3988+957425626+957468493+957440280+957477601+957851287+958388293+958615640
3978+958328717+957781370+957416176+957502048+957937980+958362339+958499844
3968+958395346+958236476+958107395+958089796+958369256+958960907+959572555
3958+959912686+959848796+959314803+958435816+957647221+957466097+958099315
3948+959073965+959487025+959100055+958697814+958878323+959119777+958849082
3938+958340563+957903125+957517113+957585386+958756568+960435380+960925547
3928+959754227+958294135+958109244+959157782+959864546+959284604+958191007
3918+958035630+959374379+961253832+962423987+962578132+961952310+960480507
3908+958035082+955325262+953875784+954698481+957102751+959836812+962394953
3898+963964473+963303727+960413741+957164724+956398590+959021579+961502750
3888+960731891+958532165+958336318+959865025+960287947+960152908+961500011
3878+962600319+961001558+958013580+956141933+955816251+956529109+958647551
3869+960976153+961253626+960350193+960950679+963215390+964500932+963425413
3859+960442776+956205618+952235594+952724597+960893362+969052884+970226600
3849+967182607+963396789+960464826+958980903+958559831+957964344+956938061
3839+957238338+959887623+962643666+963458830+963058027+962687286+962344690
3829+961791317+961549658+961491931+960250352+958062679+958187446+961930465
3819+964683221+964580092+965230498+967723242+968545118+966116469+962168290
3809+959144429+958982683+960845085+961076679+959184215+959170656+962854921
3799+965964653+966197274+965799210+966049292+965858581+964716775+963493343
3789+962849237+962664414+962830816+963335364+963539497+962945791+962562450
3779+963771844+965755384+966319233+964987949+962834035+961170014+961197406
3769+962969348+964777447+965533788+965697725+965230498+963728086+962223415
3759+962391597+963709529+963621192+961138378+957563541+955617870+958182036
3750+962952502+963743700+960776059+959659454+963731305+967703178+966347652
3740+961523499+957085358+956115775+959847358+965964790+970188663+970585220
3730+968128565+965008834+963454105+964437384+966724761+968394260+968774725
3720+968022492+966363060+964002821+961129818+958482313+958200525+962373724
3710+968661668+972245338+972004363+969456426+966542952+965203039+966103390
3700+967592106+968106309+967899094+967419815+966363196+964629944+963373095
3690+964643298+968643110+971912602+972019497+969937211+967531572+965907885
3680+964776282+963155061+961903485+964307549+969455535+970742789+967783708
3670+966171937+968691798+971356080+971126404+969325495+967813496+967037159
3660+966239867+964875576+963844294+964289676+964946930+963853333+961927589
3650+962489727+967469325+972814323+974137459+972335524+969562019+967239581
3640+966040870+965778598+965763601+965582476+965168320+964132382+962173426
3631+960969442+964091295+970570703+973579362+971711002+968023314+964734648
3621+963219773+964422935+966943412+968055772+967780490+967708040+967807744
3611+967148710+966531310+967391260+968759523+968449180+966416746+964457653
3601+963878807+964221267+964456078+964776419+965992045+967604227+967855131
3591+966083394+963813547+963561684+965783597+967531298+966989156+965348212
3581+964312890+964492920+965255630+965533583+964906733+963815876+962685232
3571+961402703+960158249+960350330+963229565+966752358+967662913+966139478
3561+964500726+964153816+964584817+964673839+964298989+964190862+964644119
3551+964825039+963885586+962433985+962022294+963218951+964780323+965328148
3541+964736839+963573052+962502737+962065778+962186437+962133708+961430095
3531+960397101+959673697+959542698+959790521+960116477+960470099+960835567
3521+960981220+960727234+960240971+959837634+959649867+959594947+959533659
3512+959374447+959007883+958182516+956785012+955371211+954934252+955802213
3502+957044887+957567787+957322292+956905739+956684007+956566635+956294777
3492+955804130+955319373+955083534+955072920+955103598+955144137+955289174
3482+955413051+955114144+954194824+952960573+951868345+951159527+950916772
3472+951110702+951445013+951532597+951349144+951176305+951132478+951107826
3462+951051195+950984155+950877123+950718939+950570067+950484058+950434069
3452+950219869+949552481+948511338+947734042+947708636+948118273+948419509
3442+948587143+948799494+948954597+948858728+948492233+947941805+947376860
3432+947050629+947085279+947318927+947495121+947528402+947559149+947784990
3422+948194147+948473812+948302685+947765062+947307765+947199022+947192790
3412+946951336+946669822+946811777+947269897+947385625+946880324+946228206
3403+945978124+946163905+946542932+946970989+947309682+947379256+947305642
3393+947513474+948046508+948348086+948051164+947527854+947354056+947608864
3383+947987206+948339458+948738891+949110728+949177289+948903444+948662538
3373+948714444+948838664+948735056+948525787+948639255+949329379+950415306
3363+951446246+952046046+952070561+951569301+950799674+950157760+949838857
3353+949654445+949346909+948950900+948787853+949203584+950196381+951216090
3343+951616688+951401255+951193698+951431112+951980170+952593530+953271464
3333+953994320+954474968+954451686+954042597+953606459+953355213+953282489
3323+953384658+953683497+954043419+954247278+954280148+954318359+954491746
3313+954864541+955466464+956118445+956476449+956459809+956404684+956660656
3303+957226423+957802941+958076991+957984682+957700977+957394537+957187459
3293+957354066+958179229+959455936+960460306+960653620+960188790+959574335
3284+959106971+958877090+959053216+959714716+960513171+960927259+960838991
3274+960593839+960539809+960684915+960769622+960638555+960532414+960831184
3264+961485151+962017227+962124395+961920330+961610946+961323680+961248696
3254+961550822+962080501+962467608+962549097+962462541+962347566+962233207
3244+962158566+962128572+962049823+961908826+961802548+961680999+961400512
3234+961084074+961047165+961378188+961913482+962489658+962956679+963183685
3224+963290922+963648446+964418552+965222281+965468529+965041635+964442999
3214+964160869+964183056+964293648+964502644+964855512+965100527+964908719
3204+964329325+963833064+963853949+964340213+964877493+965235566+965581723
3194+966099008+966671348+967019355+966996620+966729076+966513985+966535008
3184+966681620+966708874+966527544+966318343+966388944+966878221+967598201
3174+968195947+968355638+967918816+967127893+966652038+966941700+967673116
3165+968213889+968380975+968390151+968410900+968496841+968645438+968737199
3155+968679951+968606406+968677623+968830877+968985912+969300090+969936184
3145+970752581+971425106+971728670+971621844+971228436+970775727+970400740
3135+970065882+969724381+969434444+969273452+969273794+969413969+969567155
3125+969564553+969342957+968878470+968124388+967260193+966798855+967112143
3115+967954151+968697756+968992554+969062607+969379593+970125663+971039436
3105+971725109+971953552+971709496+971184268+970745460+970715671+971097369
3095+971512621+971467973+970809624+969912285+969305842+969185594+969357475
3085+969509565+969443346+969197167+968973449+968872580+968819304+968814579
3075+969006044+969430130+969868938+969978777+969527985+968693510+968097886
3065+968275519+969120951+970024589+970402178+970061294+969345286+968853544
3055+968730625+968509030+967941140+967476310+967527121+967775080+967632714
3046+967046609+966460572+966194535+966157967+966078875+965772846+965155652
3036+964201134+963060972+962106180+961639090+961573488+961535962+961285058
3026+960924862+960721277+960788454+960985808+961070173+960919521+960603494
3016+960241039+959836401+959351986+958923313+958813542+959087798+959451485
3006+959492230+959082319+958533261+958288999+958458620+958787384+959080470
2996+959390814+959739025+959967606+959998284+959981507+960096208+960354713
2986+960609383+960667727+960499887+960374298+960612876+961184737+961763584
2976+962162264+962438573+962624834+962676467+962660032+962693723+962701530
2966+962464527+961935053+961334910+960891993+960584526+960232137+959781619
2956+959327266+958839016+958116297+957103299+955997718+954937950+953837094
2946+952666390+951634766+950914512+950384765+949830845+949263092+948873382
2936+948730674+948667468+948483399+948171138+947888803+947757735+947739589
2927+947683710+947430889+946882104+946075568+945247050+944691623+944428188
2917+944140442+943642674+943222903+943261114+943691225+944138799+944408945
2907+944578703+944790301+945168026+945777072+946518280+947182381+947672206
2897+948053013+948359179+948485316+948367397+948217909+948400746+949025199
2887+949804412+950357305+950502753+950274926+949858236+949517694+949414566
2877+949462980+949467773+949363686+949227346+949130244+949082035+949049234
2867+948956583+948764228+948592485+948629326+948862700+949049303+948978976
2857+948628436+948089033+947494163+946982357+946589223+946185886+945616627
2847+944922600+944398468+944358682+944797080+945359423+945716674+945868969
2837+946009418+946230603+946493559+946805272+947268869+947932286+948677261
2827+949306712+949710186+949943354+950198299+950698395+951521229+952492387
2817+953317687+953847708+954174828+954477297+954844888+955267193+955702783
2808+956077427+956275124+956219793+955927254+955412024+954651985+953736225
2798+952925717+952445754+952286610+952258945+952163486+951882178+951408925
2788+950875685+950512956+950507889+950852676+951353526+951801374+952140546
2778+952481910+952953999+953539419+954098270+954571865+955028615+955470231
2768+955793722+956032642+956406807+957019276+957708099+958269209+958654125
2758+958922902+959163877+959469632+959864272+960235287+960415522+960375188
2748+960281304+960336566+960618149+961109069+961748176+962323188+962515337
2738+962284908+962036538+962148568+962505477+962749054+962812464+962933739
2728+963246616+963610646+963823751+963832242+963717541+963610715+963641188
2718+963855182+964162992+964459776+964760259+965093337+965368482+965490647
2708+965468186+965309111+965014450+964734922+964683357+964864345+965110525
2698+965348349+965616852+965878439+966018683+966002042+965892066+965755726
2689+965657049+965713886+966025325+966527750+967000934+967242320+967222666
2679+967109814+967096940+967152408+967048732+966713052+966383945+966331149
2669+966592530+967017232+967398519+967560949+967474461+967282653+967148368
2659+967091668+966991484+966747633+966456190+966355732+966523778+966729555
2649+966723734+966569179+966516245+966646148+966815358+966895683+966909653
2639+966940879+966993401+966961422+966780640+966602939+966644231+966863978
2629+967043459+967153572+967329766+967567660+967770972+967959081+968162188
2619+968312155+968420213+968619074+968904423+969060005+968942086+968690223
2609+968578261+968728434+969045830+969400274+969765262+970142920+970442717
2599+970516811+970350546+970217972+970513866+971306022+972143579+972482546
2589+972243968+971805365+971536314+971551106+971801051+972117215+972250884
2580+972163575+972184187+972628131+973399949+974122873+974471633+974372065
2570+974103699+974102056+974447665+974739246+974620094+974194228+973843962
2560+973801094+973956266+974056449+974053436+974141362+974444036+974850454
2550+975197159+975437997+975567695+975476208+975023430+974304067+973707827
2540+973576897+973861903+974164303+974137528+973912577+973998654+974525868
2530+974884146+974571474+974023854+974018581+974639473+975352810+975727249
2520+975664797+975315079+975056300+975212909+975602756+975706021+975391432
2510+975104098+975194352+975428616+975359590+974905100+974406784+974325432
2500+974919275+975980002+976878026+977087295+976626916+975889337+975280018
2490+975188531+975904539+977191108+978202942+978236907+977458378+976649445
2480+976370054+976536525+976692792+976527623+976146404+975886256+975935286
2470+976205227+976478318+976550905+976338349+975998149+975857358+976077173
2461+976468389+976731962+976782635+976763804+976841938+977035389+977219732
2451+977348950+977605880+978132820+978714954+979062412+979224431+979358649
2441+979385698+979283665+979319822+979638656+980026859+980248181+980197233
2431+979801497+979195191+978779392+978777132+979009547+979266409+979523613
2421+979715078+979702135+979544362+979474377+979499303+979326396+978866770
2411+978544306+978786034+979401653+979845940+979964749+980074109+980375961
2401+980651654+980545376+979952971+979145408+978592925+978608881+979076176
2391+979567781+979755480+979629138+979345775+979041252+978800277+978643051
2381+978514860+978402967+978440424+978774461+979342899+979887369+980228459
2371+980508946+981056018+981913708+982645123+982760920+982221791+981472982
2361+981151477+981692181+982921022+984096656+984650165+984748706+984775481
2351+984533889+983542462+981851119+980180045+979415143+979806085+980647409
2342+981164145+981299938+981416419+981715737+982094148+982483583+983089958
2332+984025439+984930995+985323169+985117324+984571963+984012291+983681952
2322+983632031+983739542+983877115+983924228+983757415+983440361+983239994
2312+983336343+983640865+983900671+983925529+983798707+983796585+983981270
2302+984105901+984074812+984165614+984588740+985087741+985169641+984676187
2292+984022700+983747417+983880676+984048379+984131238+984352422+984746788
2282+985086577+985313582+985529289+985634814+985499775+985397742+985777659
2272+986653769+987593222+988204595+988334362+987970742+987343550+986998763
2262+987377516+988286769+989023458+989125833+988880544+988957171+989591553
2252+990358851+990768488+990789237+990670153+990552645+990454379+990400555
2242+990361454+990268323+990219567+990377546+990612015+990702612+990817998
2232+991209214+991645078+991807029+991879958+992119769+992303633+992011436
2223+990991248+989290728+987628899+987289042+988792001+990862646+991483195
2213+990096648+988216853+987615888+988491930+989846566+990993439+991960762
2203+992888710+993798443+994744127+995617430+995759796+994177607+990716992
2193+987023826+985381718+986277619+988095578+989338458+989984070+990660292
2183+991735332+993318069+995180402+996580576+996747663+995617636+993947041
2173+992685056+992193177+992066219+991699518+991010832+990489782+990512174
2163+990981524+991916251+993884521+997113200+1000499653+1002466004+1002319050
2153+1000578882+998810158+998687719+1000393306+1002238999+1002411359+1000767402
2143+998618830+997264536+997038011+997380881+997674173+997997185+998759210
2133+999692158+999998255+999484463+998777220+998480367+998671353+999055310
2123+999185830+998785164+998100245+997640619+997535368+997534341+997557623
2113+997812773+998404904+999092836+999432625+999140839+998358544+997521741
2104+997023904+997058212+997458946+997581317+996892152+995790543+995091380
2094+994802745+994379413+993912117+993999085+994733103+995670980+996534833
2084+997330344+997994309+998263017+997860297+996857297+995834369+995359473
2074+995357487+995361596+995293117+995577370+996453618+997470177+997909396
2064+997700469+997539066+997909190+998423188+998364639+997557623+996467519
2054+995670090+995420829+995623799+996005359+996330973+996672679+997424844
2044+998831523+1000605314+1002259269+1003648349+1004770844+1004997164
2036+1003219676+999429270+995558402+993719557+994104404+995413434+996592765
2026+997602887+998886374+1000212044+1000419328+999022988+997387660+997210850
2016+998591507+1000580388+1002479632+1003933629+1005075777+1006652557
2007+1008985678+1011404328+1013338769+1014698472+1014916781+1013204826
1999+1009863911+1006299620+1003791126+1002816202+1003147842+1003953762
1990+1004195901+1003539332+1002560778+1001921466+1001692885+1001700692
1982+1002274128+1004083802+1006989606+1009654162+1011059677+1011741446
1973+1012440335+1012716234+1011936678+1010496307+1009278833+1008607541
1965+1008298567+1008279325+1008671568+1009563771+1010873143+1012272769
1956+1013235093+1013268305+1012276604+1010668187+1008974858+1007464023
1948+1006214228+1005490071+1005788362+1007257356+1009049636+1009923692
1939+1009700522+1009223023+1009207958+1009822824+1010917037+1012044394
1931+1012536410+1012018646+1010709343+1009214874+1008233308+1008147299
1922+1008530572+1008578369+1008212901+1008120798+1008696631+1009534873
1914+1010180075+1010709000+1011382141+1012048160+1012180529+1011584289
1905+1010655382+1009870690+1009400313+1009203165+1009192277+1009299513
1897+1009557539+1010077563+1010842259+1011679542+1012479368+1013209619
1888+1013745941+1013973836+1013969590+1013860847+1013662876+1013381910
1880+1013135252+1013076977+1013303571+1013771140+1014203238+1014357382
1871+1014556723+1015526511+1017133831+1017914620+1017134037+1015729617
1863+1014867477+1014943967+1015686476+1016649691+1017505874+1018077256
1854+1018253724+1017987207+1017479236+1017139721+1017155539+1017418085
1846+1018013366+1019109359+1020127288+1020325875+1019964926+1019720390
1837+1019773461+1019736551+1019310548+1018865098+1019220020+1020625398
1829+1021979076+1022238471+1021847803+1021625728+1021638191+1021647162
1820+1021721735+1021961751+1022221489+1022316536+1022282434+1022351118
1812+1022712820+1023236336+1023568113+1023586191+1023453206+1023368978
1803+1023520520+1024041092+1024784765+1025351080+1025483448+1025228846
1795+1024870500+1024915627+1025641770+1026396331+1026476382+1026186856
1786+1026187130+1026631006+1027183351+1027731656+1028454238+1029183805
1778+1029462101+1029250503+1029132926+1029906798+1031651349+1033227923
1769+1033909212+1034071780+1033963584+1033557234+1033237304+1033564972
1761+1034330833+1034894272+1035319042+1035776956+1035813660+1035241456
1752+1034845652+1035641300+1037454466+1038919352+1039463206+1039586946
1744+1039761497+1040109914+1040621173+1041039438+1040908028+1040362051
1735+1040468055+1042127967+1044046658+1044672823+1044574968+1044494780
1727+1044471018+1044479509+1044592635+1044597428+1044287838+1044144719
1718+1045230715+1047706613+1049740347+1050337888+1050284064+1050253797
1710+1050331177+1050498401+1050920432+1051509208+1051719505+1051559403
1701+1051974381+1053462549+1054915520+1055889211+1057043822+1057910688
1693+1057908154+1057636638+1057726413+1057921713+1057884803+1058396267
1684+1060570724+1063130303+1064093517+1063900546+1063436948+1063227062
1676+1063648066+1064570194+1065414873+1066222231+1067603642+1069353465
1667+1070414604+1070777470+1071297356+1072396226+1073468116+1073741823
1659+1073284868+1072465663+1071472455+1070286549+1068233984+1064403450
1650+1058885201+1050473064+1036003071+1015225070+994711395+978356539+965627193
1640+956410984+951567589+953421500+965570082+984394057+999279987+1008620894
1630+1016344415+1024738063+1033348376+1040560706+1046009381+1050200863
1622+1052772426+1053202948+1051907135+1049219023+1044643309+1037839382
1613+1029144293+1018691779+1006779584+994634836+984065978+976399431+972150632
1604+971469206+974251065+979796361+986993147+994995648+1003309108+1011360297
1594+1018470937+1024215711+1028426642+1030913017+1031408936+1029725605
1585+1025791942+1019496124+1010757551+1000095289+988442831+975828323+961317517
1575+945946555+932531126+921225853+910864141+901390592+893482865+886968327
1565+881093239+875263552+869243017+863832142+861939816+864888487+865942846
1555+863265006+859829317+857079917+855204778+853955804+852821394+851670549
1545+851362123+852872342+856604336+864809532+879088677+891058805+896068671
1536+898978652+905029181+914774932+923427564+928732297+932836881+937447861
1526+941550596+943352190+942362680+938310961+930862175+920016665+905710060
1516+889354724+873775589+860242172+848509664+838728236+832687157+834220179
1506+841156884+844365431+843452000+841795718+841530159+843976817+849576349
1496+856130535+860399261+862393963+864844182+870520683+879056286+886668530
1486+891495216+894554138+897162473+899789913+901860489+902581702+901953688
1476+900711836+899898725+900369376+901411957+901174132+899552842+898039405
1466+898102884+899602557+900264947+898652970+895716693+893744178+895620344
1456+900602065+903740764+904391786+904392950+904775127+906030744+908296551
1446+910805181+912456396+912881167+912061346+909890997+906642528+903233751
1436+900603298+898665364+897061262+896472692+897876290+900963767+904144100
1426+906688271+909073436+911379029+913167200+915080207+918705786+923475568
1417+926394109+926713765+925794034+924601486+923306289+921824421+920336526
1407+919400087+919386049+919813901+920111712+920747259+922540155+925376523
1397+928560143+931970632+935463842+938333627+940502537+942867775+946283879
1387+950474951+954257892+957109599+959313913+960988958+961908552+961940874
1377+961234452+959999311+958252089+955815292+952599282+948677261+944167560
1367+939316426+934600469+930630787+927859337+926114581+924792198+923688124
1357+923149611+923693945+925607911+928726545+932634391+936941944+941295652
1347+945358396+948811410+951290252+952518751+952546074+951653392+949994097
1337+947532168+944420107+941188073+938521942+936962899+936745412+937739442
1327+939409488+940956548+941673994+941148698+939114142+935319422+929730230
1317+922767914+915141701+907542195+900604256+894853525+890504679+887449592
1307+885404764+883955697+882575587+880789470+878432724+875752487+873199825
1298+871176773+870030311+870044006+871174855+872898931+874509813+875560679
1288+876017429+876169725+876519785+877611328+879772911+882980156+886952030
1278+891302176+895616030+899541543+902847876+905333498+906759626+907021144
1268+906381352+905453952+904917288+905208800+906460376+908636476+911575972
1258+914937088+918329293+921548180+924588749+927460588+930078990+932314529
1248+934100989+935499109+936666114+937765121+938920006+940220818+941694469
1238+943259265+944754076+946043589+947100208+947974332+948727455+949485509
1228+950588898+952561619+955806733+960316502+965686906+971334988+976610276
1218+980731705+982796871+982050048+978263888+971971014+964465528+957600793
1208+953342681+953108143+957149179+964335009+972476863+978999891+981648766
1198+979014477+970766208+957614489+941128086+923404761+906439627+891376133
1188+878254818+866521419+855801703+846278096+838457131+832702770+829079519
1179+827546361+828043855+830364171+834157384+839105209+844932910+851254544
1169+857505988+863006090+867070066+869156734+868961708+866430137+861864353
1159+856081642+850278661+845618034+842936838+842644368+844590245+848070581
1149+852248026+856606938+860874226+864680724+867618577+869563084+870681264
1139+871124866+870844037+869707299+867820245+865763981+864394417+864281907
1129+865349072+866986865+868404843+868999234+868662869+867834146+867190793
1119+867256806+868216117+869956628+872238048+874856244+877704253+880727292
1109+883831409+886845340+889602342+892039002+894146693+895861045+897092214
1099+897856500+898340504+898886001+899897561+901664299+904200184+907234454
1089+910389039+913454329+916504623+919642568+922650405+924999208+926163954
1079+925777257+923538431+919217866+912905134+905207841+897085914+889435871
1069+882807454+877459512+873585494+871383166+870851022+871595380+872989870
1060+874579729+876295177+878295904+880671893+883256329+885627798+887257648
1050+887738228+887025438+885526176+883891944+882688713+882251411+882694260
1040+883912693+885652382+887705358+890017388+892584979+895298496+897933401
1030+900328563+902533424+904672547+906717375+908561424+910237634+911884877
1020+913608542+915478888+917491188+919482603+921276732+922897611+924487128
1010+926100200+927711287+929314088+930895661+932381638+933662112+934587458
1000+934859591+934030046+931850521+928732366+925754043+924080230+924273270
990+926006317+928329303+930266962+931290027+931323376+930407137+928424556
980+925201013+920896130+916200237+911964107+908648597+906233850+904531687
970+903350643+902404685+901319991+899873799+898186633+896589516+895294524
960+894262900+893376450+892629969+892135077+892005790+892251764+892784456
950+893500190+894255984+894805658+894987811+894946039+894908376+894831612
941+894562561+894258791+894369178+895239605+896910268+899246196+902139264
931+905512637+909156979+912715723+915914751+918679491+920985494+922773529
921+924051401+924902311+925317974+925120620+924132547+922395803+920166837
911+917736820+915376033+913387974+912052375+911541733+911931785+913077699
901+914478147+915574415+916144427+916096150+915090479+912801732+909449244
891+905818530+902833085+901127978+900824414+901584864+902845754+904033645
881+904726234+904701102+903799587+901863913+898931197+895352868+891686955
871+888601053+886660449+885891165+885722846+885629510+885679910+886330590
861+887880663+890248502+893164578+896442356+899982885+903587373+906994848
851+910107183+912895890+915133484+916595356+917492010+918282591+919095633
841+919716936+920037414+920082472+919704541+918657372+916950279+914861420
832+912624784+910254822+907686889+905016992+902510073+900344655+898488759
822+896874796+895524611+894489768+893805877+893401992+892975921+892220948
812+891254036+890554463+890454142+890884733+891537057+892098099+892389679
802+892339347+891835348+890749215+889207017+887778288+887261688+888142112
792+890232821+892975236+896028679+899314675+902629157+905640486+908226429
782+910460804+912364704+913985378+915561404+917266374+918908208+920170193
772+921049042+921795112+922516393+923155637+923788308+924573479+925399737
762+926012274+926576946+927660271+929444471+931332826+932573856+933027388
752+933158797+933548096+934539044+936076791+937714858+938968626+939727090
742+940182128+940472476+940574987+940370032+939683675+938524270+937278309
732+936230867+934924097+932537084+928884182+924511574+919965443+915606873
722+912023820+909905583+909310370+909443629+909340843+908567861+907329364
713+906251997+906109220+907472895+910342543+914073646+917822897+921114850
703+923952176+926481213+928719697+930574156+931935982+932651100+932414439
693+930820129+927799966+924174045+921428411+920527718+921155389+922459488
683+924097829+926109993+928329440+930503623+932508734+933863849+933580692
673+931250104+927738610+924359690+922140722+921501546+922061013+923648064
663+926446769+930050092+933249189+935084199+935689341+935950380+936629410
653+937802647+939124413+940424746+941661805+942578454+942990830+943185719
643+943576661+944166738+944621570+944731546+944670464+944806735+945226027
633+945587113+945626762+945570952+945866367+946728028+947987000+949139009
623+949706625+949810438+950125917+951049757+952121098+952465133+951742140
613+950562466+949981223+950493234+951407282+951292854+949043345+944468658
603+938096898+930797121+923734895+918367504+915905164+916590631+919606960
594+923546853+927107515+929891633+932533797+935579502+938474281+940119676
584+940177745+939200835+937698629+935838761+933871792+932145731+930678243
574+929131662+927339451+925663583+924769600+925051183+926209560+927528519
564+928717985+930320375+932927478+936038991+938214544+938574465+937840516
554+937612962+938670951+940170350+940638398+939674841+938267546+937342337
544+936672825+935636750+934485768+934247738+935469663+937519079+939349022
534+940651957+941857242+943239543+944638758+946064132+947965704+950432837
524+952246414+951353389+946080293+935471169+919352837+899380962+879875423
514+865972908+860623938+863228849+870310113+877872024+883542294+886744198
504+887731791+887105421+885875484+885049089+885122223+886314223+888484366
494+890299518+889487024+885036899+878703007+873233721+870027092+869318137
484+871150066+875099684+879785511+883567289+885726338+887038107+889120803
475+892746793+896949163+900290421+902597725+904155057+904414863+903044340
465+900969177+899385550+898725009+898908941+899682129+900415530+900514687
455+900194140+899999662+900204960+900968423+902325662+903775619+904489778
445+904173272+903141032+901867748+901096067+901254662+901282875+899434922
435+895978690+893315436+892820681+893960843+896042375+898913598+902144605
425+904364943+903831223+900240295+895725937+893779170+895518585+898314071
415+901335604+905465935+910011108+912921500+913225338+911427717+908043181
405+903642087+899887974+898983103+902321758+910057536+919733576+925334888
395+923911089+918934435+914887304+913354557+912170568+907770227+899357542
385+891513089+891069830+898645643+908436520+915677337+919223345+920454172
375+921797235+923501315
##END=
