##TITLE=X7766
##JCAMP-DX=5.0
##DATA TYPE=LINK
##BLOCKS=1


$$ === CHEMSPECTRA SPECTRUM ORIG ===
##TITLE=X7766
##JCAMP-DX=5.00
##DATA TYPE=INFRARED SPECTRUM
##DATA CLASS=XYDATA
##ORIGIN=ComPlat
##OWNER=
##XUNITS=1/CM
##YUNITS=TRANSMITTANCE
##XFACTOR=1
##YFACTOR=9.0583879e-010
##FIRSTX=3997.453
##LASTX=373.96442
##MAXX=3997.453
##MAXY=0.9726369937187143
##MINX=373.96442
##MINY=0.4539342505825377
##NPOINTS=2559
##XYDATA= (X++(Y..Y))
2559I93021061I93270708I93486336I93342233I93060212I93011454I93236952I93560691
2551I93964706I94502822I95045808I95433570I95643474I95599256I95189121I94627053
2543I94343124I94411688I94484727I94356219I94224486I94318318I94478213I94310619
2535I93773555I93366382I93554769I94208365I94741283I94565333I93531278I92228625
2527I91594177I92034777I93121275I94031427I94163226I93628268I93272945I93769212
2519I94595667I94802938I94360364I93736970I92989411I92125384I91771575I92451360
2511I93507326I93927989I93717954I93645968I93997343I94111967I93441197I92384441
2503I91807502I92095971I92864061I93628268I94363786I95192082I95748622I95284400
2495I93635769I91764402I90928276I91281953I92276002I93980037I96180472I97593340
2487I97343430I96004850I95064693I95417120I96014325I95519045I94387342I93887193
2479I93898642I93322953I92642970I93229648I94501638I94783593I93898971I92607176
2471I91398486I90963084I92392205I95028305I96502499I96130266I95262423I95081867
2463I95228009I94796424I93479493I91491528I89551861I89290765I92178156I96042751
2455I98090331I98484542I97992749I96942639I95433504I93586287I91824084I90954530
2447I91668860I93603856I95442914I96471178I96806563I96547836I95766126I95045676
2439I95173987I95912861I95857062I94422743I93059817I93311965I94195007I94729373
2431I95913322I97943333I99083524I98347348I96232717I93882718I92895777I93937530
2423I95186094I94929802I93900879I93738813I94696473I96438278I98932907A001211117
2415A001894719A001071356I99877604I99049308I98610155I98431836I98418544
2408I98246081I97641571I96985870I97086610I98031966I98882569I98901849I98176530
2400I97348957I97191233I97796795I98329384I98423347I98656413I99131229I99143139
2392I98460854I97715071I97327111I96824395I95622352I93710913I91960817I92044844
2384I93888114I94774183I93784478I92614414I92835964I93412705I92693111I90690210
2376I88227231I86596234I87160276I89673526I92389836I94401555I95708221I96363463
2368I96553955I96601068I96641009I96762214I97166558I97681184I97751130I97117405
2360I95946288I94649294I94133221I95525559I98388342A000755120A001482478
2353A000539492I98529286I96645089I95925429I96068940I96170602I96111842
2346I96146453I96234296I96331155I96893420I98589625A000932649A002120217
2339A001545318A000068097I98477370I97053381I95779023I94595074I93879889
2332I94632646I96409852I96716022I95214915I94335952I96124212I99123136A000896459
2324A000927122I99812857I98343005I96976855I95815674I95311050I96023143
2317I97000872I96527832I94578098I92967762I93374541I94764576I95615903I96323983
2309I97235912I97914973I97982747I97709873I97453053I96946587I95684466I93619385
2301I91172461I89227135I89422892I92110777I94471962I94794384I93819418I92841425
2293I92955787I94495584I96162705I96302071I95113648I94075777I94196916I95284993
2285I96868284I98760049A000287081A000419471I99027067I97040287I95560697
2278I94947568I94724570I94350165I93838632I93640046I93792769I93675447I93074754
2270I92995859I94568886I97061080I98977651I99856548I99933930I99664345I99452270
2262I99292638I98994233I98644042I98249766I97420614I96189223I95760599I97300528
2254I99614994A000671158A000518699A000313335A000661091A001373118A001940845
2247A001893797A001103007A000088692I99580054I99548141I99373309I98795515
2240I98106584I97719480I98017293I99205189A000828816A001923605A002015462
2233A001568282A001140183A000701163A000074216I99423252I99020487I98844076
2226I98708395I98712212I99197359A000127515A000885273A000963839A000563772
2219A000249575A000188183A000041250I99588674I99166564I99223218I99550576
2212I99475892I98850590I98340241I98487766I98892373I98854670I98377879I98127048
2204I98588770I99476616A000052765I99936233I99467470I99277438I99566565
2197I99931561I99852139I99190910I98246805I97424298I96950403I96900526I97200379
2189I97495100I97343561I96696545I95892331I95207085I94780698I94819388I95341713
2181I95897990I96111644I96299834I96994621I98082632I98878226I98943961I98529549
2173I98178175I98061116I97810416I97038313I95912993I95013237I94737532I95023633
2165I95524506I95991427I96449530I96990015I97534251I97939845I98231736I98563174
2157I98986008I99355741I99444308I99149324I98631145I98189887I97992617I98062366
2149I98482634I99303692A000208581A000587986A000153440I99351792I99024369
2142I99614007A000764990A001742193A002111465A001897153A001267048A000320244
2135I99182883I98169358I97724151I98049337I98811834I99439899I99713629I99813975
2127I99870366I99780088I99559196I99567487A000077835A000784138A001126169
2120A001031613A000918502A001040957A001182823A000980618A000420590A000004994
2113A000168508A000546664A000436909A000008350A000147123A001016677A001726664
2106A001583022A000874811A000238323I99932613I99924388A000127778A000358343
2099A000443489A000477310A000647733A000857703A000858032A000573379A000024010
2092I99288887I98785579I99095171A000237270A001502416A002199112A002325185
2085A002378944A002700314A003144928A003308245A002921799A002109623A001364893
2078A001154266A001515247A002164764A002818229A003220928A003224349A003061361
2071A003186448A003716405A004314400A004563784A004313216A003771546A003252380
2064A002766444A002142655A001551964A001458988A002016055A002867250A003515911
2057A003686598A003428133A003025698A002821190A003061295A003753912A004557796
2050A005035376A005107165A005030573A004964970A004873376A004769082A004696306
2043A004537134A004192998A003914728A004069425A004536938A004740853A004370989
2036A003696863A003058006A002444679A001762789A001198747A001084056A001492480
2029A002085408A002384406A002238526A002068498A002466657A003417079A004162204
2022A004117459A003588358A003194936A003019315A002779406A002400659A002007303
2015A001719163A001704029A002063497A002543512A002746374A002700314A002834745
2008A003265738A003554404A003418132A003242905A003534599A004197473A004706769
2001A004758027A004504630A004281105A004221161A004204119A004206948A004499102
1994A005290617A006369745A007241799A007500329A007090721A006310524A005419980
1987A004404152A003397799A002882845A002917916A002729201A001693040A000205159
1980I99061415I98489082I98275033I98355047I98805846I99601769A000670040
1973A001904983A003027803A003778587A004238006A004580103A004647614A004174508
1966A003218230A002064615A001055565A000638982A001051354A001879519A002441587
1959A002503965A002210627A001628950A000774531I99754163I98650359I97541292
1952I96539611I95451468I93576680I90255663I85525068I80026449I74440053I69182527
1944I64436403I60241752I56610881I53715264I51998529I51957733I53672691I56628384
1936I60081923I63447619I66261050I68115703I68894057I68875568I68421083I67679512
1928I66747514I65952315I65707734I66122540I67032101I68373575I70206317I72375364
1920I74466439I76159222I77520700I78920803I80529560I81840832I82025402I80912453
1912I79273231I78018942I77448912I77318298I77343500I77556035I78137843I78910473
1904I79317844I79093793I78564757I78197919I78207592I78472439I78451054I77510764
1896I75681840I73753951I72523350I72377931I73472061I75679142I78366895I80691561
1888I82237741I83184083I83767076I83770366I82787767I80900740I78764396I77110632
1880I76484211I77204134I79104913I81469783I83530655I84950432I85810642I86402845
1872I86999262I87679771I88501751I89660695I91075406I92113080I92344237I92301203
1864I92878537I94235869I95771390I96904277I97496613I97734482I97888982I98113098
1856I98380182I98577781I98585677I98372352I98158500I98268585I98703459I99124386
1848I99298099I99275201I99228285I99327841I99566565I99619403I99181172I98388473
1840I97625385I97150042I97119840I97567151I98153500I98389197I98240751I98153565
1832I98397948I98697867I98618512I98149091I97671511I97413441I97244926I97035089
1824I96876444I96934414I97316254I97994855I98685497I99029633I99047465I99104383
1816I99337119I99473392I99315471I99025093I98831574I98846445I99266976A000263590
1808A001483794A002192203A002149959A001917288A002126139A002850800A003747332
1801A004538056A005298447A006271570A007368202A008081545A008053580A007448806
1794A006659070A005946253A005410044A005026559A004704005A004421655A004243928
1787A004183194A004168981A004118578A003951905A003593951A003026553A002316105
1780A001588878A000981473A000549822A000205817I99810225I99368703I99059178
1773I99017065I99189463I99431214I99611046I99603216I99356728I98999760I98731820
1765I98680956I98963043I99666385A000610424A001317122A001445170A001213749
1758A001275141A002093699A003484459A004867783A005897824A006659991A007351686
1751A008012388A008511551A008641639A008295923A007602385A006838968A006226563
1744A005810967A005474661A005120720A004857123A004850806A005030902A005187310
1737A005339441A005696737A006239197A006634263A006673217A006551815A006569976
1730A006755336A006965305A007145072A007261999A007224230A007109474A007225414
1723A007733986A008445158A009090398A009576532A009915931A010102344A010101028
1716A009863291A009345638A008556559A007590607A006637355A005944015A005708187
1709A005944674A006447653A006929575A007243707A007453347A007692927A008003111
1702A008294212A008423839A008307701A007966854A007500263A007051767A006744018
1695A006559513A006383234A006224786A006221694A006405409A006711842A007170339
1688A007773862A008270524A008399230A008248283A008145832A008297239A008621503
1681A008850489A008820550A008711387A008840422A009194889A009429139A009365839
1674A009185809A009038810A008778964A008266510A007708916A007479733A007692730
1667A008128197A008522013A008754881A008802652A008737312A008768568A009037494
1660A009376038A009518035A009498295A009569557A009791042A009988706A010052993
1653A010048848A010078853A010200716A010442203A010806080A011241943A011612399
1646A011736302A011524358A011038948A010400947A009731426A009212392A009060985
1639A009314580A009724912A010016014A010194333A010390089A010480302A010243091
1632A009877767A009905798A010456351A011081784A011356896A011233323A010764098
1625A009954095A008986302A008174916A007585343A007024131A006428899A005990931
1618A005896705A006162934A006656898A007154810A007483221A007661145A007844268
1611A008208934A008905696A009865265A010629537A010747123A010373442A010095040
1604A010177225A010378574A010459509A010459641A010439769A010306786A009991470
1597A009645228A009631804A010307839A011634640A013033032A013900941A014239419
1590A014398985A014379903A013953910A013359469A013175227A013493899A013861658
1583A014054782A014284689A014623957A014901240A015233401A016001293A017178924
1576A018272989A019001796A019481679A019727575A019552414A019097601A018977713
1569A019586433A020494282A020890270A020508759A019756198A019032524A018362281
1562A017635317A016832419A016053933A015472454A015177602A015147005A015470743
1555A016275812A017342833A018270028A018970475A019461017A019466018A018979621
1548A018771954A019428841A020251084A020014992A018577119A016874334A015615570
1541A014826030A014403788A014297981A014327789A014380034A014521900A014655344
1534A014565394A014436491A014737199A015550296A016473543A017070288A017182478
1527A017024754A017024096A017348426A017797515A018255684A018808803A019364290
1520A019680922A019734616A019553993A018924414A017798436A016761683A016537764
1513A017106544A017689273A017652754A017226103A017202152A017980243A019072202
1506A019670723A019539912A019052791A018489736A017792646A017040480A016623305
1499A016744378A017140299A017431993A017461735A017268479A017054298A017172936
1492A017892465A019136160A020535276A021613352A021936169A021436414A020716886
1485A020607986A021192294A021660728A021381339A020702804A020380513A020522642
1478A020466975A019686252A018601071A018196397A018795314A019672566A020107836
1471A020221276A020428877A020785252A021271781A022030527A022902647A023334364
1464A023101430A022656158A022481523A022489683A022301559A021816675A021225984
1457A020733730A020589167A021080433A022123898A023129921A023586577A023502418
1450A023158413A022801380A022622402A022688992A022930414A023320347A023803850
1443A024041719A023681527A022919886A022372031A022408287A022900080A023514986
1436A023993421A024216025A024165029A023844975A023270735A022573644A021975057
1429A021538405A021110833A020681485A020595878A021183148A022290570A023273432
1422A023276788A021687575A018710563A015363028A012517091A010107147A007556523
1415A004674855A001754498I98995220I96187512I93010862I89573378I86347574
1408I83379314I80198188I76999758I74963495I74794125I75971230I77866679
1401I80474090I83710422I87070129I90190718I92926900I94850578I95292625
1394I93886271I91142917I88589002I87662268I88430160I89950217I91340779
1387I92418328I93635835I95291178I96985146I98128824I98590678I98543960
1380I98169423I97796598I97842724I98402489I99297112A000605358A002581676
1373A004952665A006922272A007963893A008246243A008339680A008802850A009989957
1366A011939889A014292125A016409716A017812649A018626996A019484508A020841249
1359A022485471A023741208A024048036A023419312A022486787A021965779A022042437
1352A022511265A023307912A024368287A025177107A025184805A024575690A024052313
1345A024073895A024714332A025819517A026927005A027487362A027433077A027185930
1338A027124538A027413731A028194586A029388075A030322113A030147479A028862264
1331A027372935A026240114A025152892A024095083A023824643A024503836A025331343
1324A026216096A028078843A030779229A032610326A032693498A032230196A032529654
1317A033126465A032734622A031277668A030045159A030030946A030819631A031202787
1310A030521818A029342015A028861211A029619167A030984001A031912117A031780318
1303A030566102A028862658A027613041A027356485A027949150A029042228A030413049
1296A031963178A033672872A035224382A035774343A034741999A032584269A030377188
1289A029100461A029221139A030245851A030949455A030611833A029586003A028474699
1282A027389583A026227480A025248895A025145325A026482720A029009130A031697081
1275A033482577A033771573A032438981A029852693A027036892A025339371A025325355
1268A026173260A026754542A026988660A027494600A028739282A031090334A034310479
1261A036626788A036391354A034669816A033933442A035273338A037689730A039317173
1254A039325530A038418667A037282293A035650243A033471391A031454343A029823609
1247A028175899A027118814A028319673A032084317A036390038A039148921A040019001
1240A039524905A038026233A036056824A034514066A034122158A035051985A036688575
1233A037686637A037231034A036234420A036150064A036954738A037531808A037482721
1226A037294663A037243273A037157338A036886832A036494463A036226919A036264491
1219A036274229A035648335A034523804A033927323A034442409A035408097A035929171
1212A036056759A036469591A037463047A038605475A039043970A038168099A036553354
1205A035972797A037572144A040288652A042057698A042280367A041948864A041767584
1198A041527215A041196041A041471613A042958967A045136833A046418824A045528674
1191A042802889A040018343A039159778A041136820A044622931A046261429A043819112
1184A039432916A037961551A041497407A047447022A052516556A055938050A058152566
1177A058750166A057146608A054361931A052598807A052757517A053690305A054583021
1170A056108013A058129339A058860843A057874362A057399414A058903942A060568234
1163A059858970A056941705A054087477A053091850A054340875A056844255A058386026
1156A057418825A055229840A054239608A054331531A053220621A050180441A047260478
1149A046939503A049419195A052081746A052079180A049506052A047045310A046683079
1142A047918022A049057424A048701048A046157267A042044604A038256601A036579214
1135A037755662A041712114A047207903A051349584A051783736A049324508A046378750
1128A043803780A041416012A040362019A042053948A045182235A046893180A046596946
1121A046265311A047259820A048566157A048310654A045731472A041595976A037682491
1114A035966480A037370400A040833283A044175093A046146739A047083343A047816953
1107A048841335A050369354A052323168A054186046A055298140A055321368A054405491
1100A053137515A052213742A051792224A051260424A050039957A048513056A047590007
1093A047400172A047448865A047894992A049356948A051508098A053278263A054295078
1086A055232011A056770821A058574808A059781128A060209490A060275553A060140597
1079A059798236A059583990A059847061A060520068A061379423A062248581A062909350
1072A063158010A062920207A062546460A062976861A064743671A066870672A067681268
1065A066812109A065441419A064662210A064557587A064580880A064281685A063676715
1058A062965741A062070262A060882037A059892068A059825741A060862165A062581532
1051A064307479A065638952A066695840A067774902A069040246A070473052A071811631
1044A072714611A073076054A073026901A072807061A072740339A073031704A073478621
1037A073741823A073695894A073322411A072582155A071307205A069308843A066727161
1030A064080994A062193967A061928659A063320143A065467476A067409315A068674987
1023A069207708A069185796A068944572A068478902A067164932A064419208A060059399
1016A054054379A046775923A039192021A032247962A026495617A022097248A018787615
1009A016053604A012909656A007377545I97548267I83081764I64708488I43476575
1002I21766490I02909251H87333220H72295898H54898904H33927166H09618883
995G81496276G48610568G12677244F77702634F46095825F17618356E91464237
988E69347702E55652776E52083362E56324730E64809836E74439937E83407492
981E90067753E91946094E87663534E78442055E68208235E62579660E65275309
974E76528116E91935039F01461043E98363551E85960683E70647459E57473673
967E51169919E55987174E71682172E91050746F06197034F11945827F03720961
960E85400458E70840057E69458773E83496257F09163781F40086331F70855039
953F97021332G17059294G33968970G52570245G73619166G91289430H02467816
946H09315148H13718649H16153399H17106979H17723596H18921033H20402729
939H21703605H23549046H26893948H31018520H35502299H41213650H47068250
932H51286456H54487782H58104244H62055695H65741379H70882503H80418904
925H91711717H99411560I03733402I06486232I08729897I11387448I14789136
918I18277484I21914212I27078893I33795676I39423659I42765732I45227066
911I48466620I52500784I55938795I58008681I58818619I58926466I59994803
904I64228078I68798055I70132949I69954630I71096269I74772608I78711558
897I81012799I82142922I82875741I83592639I84874498I87782683I91971148
890I95191424I96827883I97810876I99045886A000760318A002547394A004198460
883A005763196A006656109A005757471A001983154I94549475I85574089I80525676
876I81271000I85753001I91815661I97288026I99283492I94322989I78616805
869I48302252I00779289H37740503G66926400F99322178F44023241F05298463
862E83306751E76510744E82936821E99682258F22582082F46993673F68323168
855F82427834F87776625F87659039F88801665F99001927G24378481G58401945
848G85135635H01799546H14736187H27592684H38646246H46170862H51576768
841H56124438H59774458H63793355H73750813H92236871I07125023I14763869
834I19882292I24353831I28394376I32297333I35851942I38489555I40333482
827I41873609I43291610I45681550I50953551I56797228I59996053I61174277
820I62301440I64611037I67215816I68761601I69327091I69575487I69535218
813I68786342I67576402I66757252I66530043I66273684I65467562I63092756
806I56492045I41898021I16614113H81021241H40181109H11480379H16504642
799H40064576H61791243H79794062H95833921I10154018I22212880I30749771
792I34976137I36219306I36711955I38158249I40622478I42650910I43749252
785I44911486I47271026I51191223I55865361I59884258I62402378I63621003
778I64716318I67432234I72207376I76986334I80149299I81945257I83313118
771I84803368I85953166I86036732I85043474I83790632I84005010I86329018
764I88425685I89120868I88969592I88392061I87527903I86636175I85935268
757I85232453I84092459I82141540I79296985I76042426I73671832I73805407
750I76180871I78889680I81297846I83785368I85999489I86705660I85440448
743I83270150I81944205I82532198I85254957I90214604I96305164A000542255
736A000115012I91253725I67177980I22672431H64013589H10347163G82092494
729G87976440H17599825H51378906H79573565I02592290I21523423I36182392
722I47581934I56831576I63757802I68358112I71519168I74330297I77319153
715I80098369I82176678I83662782I84863904I85856900I86544581I86899048
708I87228445I88138466I89806377I91719461I93527527I95304009I97035549
701I98600088A000146926A001960519A003937363A005587311A006576819A007012616
694A007382349A008204592A009617723A011391705A013163383A014560130A015367173
687A015656235A015618794A015347236A014941510A014743911A015136345A016005504
680A016923092A017789356A018734909A019584459A019911553A019581037A018793537
673A017600706A015708612A012619674A007675885A000076256I89089020I74280026
666I55483455I32715824I06412272H77581915H47044364H13986522G75494941
659G28539508F73440538F15470628E63138701E25062420E07378996E11927094
652E35424452E70962315F11502265F52371416F91151203G26464949G57369536
645G83519706H05343956H23664920H39135473H52166999H63254514H73055696
638H82062995H90336421H97611587I03538238I07762037I10014981I10489469
631I10226530I10927042I14047565I19890452I27553775I35755084I43648775
624I50899266I57281783I62440147I65806172I66418445I62825738I53555171
617I38057838I17068532H91520040H61137120H24866766G83137669G39682230
610G01474315F76904737F72436094F88725534G19215972G53549290G83616302
603H07102803H26128425H43465607H60151560H75677254H89262688I00653610
596I10140002I18213525I25227398I31234918I36136398I40020338I43256209
589I46164591I48739036I50775561I52140987I52774778I52482294I50973292
582I48446947I46136297I45749192I48051618I52283774I57086553I61593031
575I65514610I68752323I71355588I73587212I75649334I77419433I78619240
568I79101557I78861583I78008216I76828084I75556621I73917991I71148185
561I66727971I61061363I55288883I50358386I46070562I40296832I28605794
554I06058266H71906030H32823889G99530679G79265902G71613436G70426000
547G69153879G66468034G68071526G80773720H03480946H26434595H40221050
540H42807931H37438347H27635520H16318360H07113923H03331711H04500196
533H03836072G90805665G59758686G17956155F83492617F73138251F91145544
526G28471930G71026692H08553046H37827096H60188211H77779843H92026046
519I03925935I14196998I23076578I30530392I36677146I41824522I46180186
512I49705974I52312134I54133624I55542807I56955215I58655829I60746903
505I63213895I65990150I68884582I71587403I73919834I75936882I77691453
498I79163870I80456653I81694360I82679854I82963389I82344403I81164008
491I80043097I79365220I79059708I78871650I78707017I78713598I79170977
484I80195820I81430434I82328414I82940885I84054558I86378040I89884943
477I93930753I97645191A000178773A000769135I98622723I92922952I83274822
470I69973120I53061339I30752403H99644428H57804786H07709286G55256945
463G06142465F64362307F33327238F14999693F06161568E97660670E80573925
456E54471130E29086844E17110627E25035803E50074341E84058983F19226981
449F51293406F79144784G03107812G23774367G41840684G58172565G73520466
442G88178777H02036362H14939972H26905332H37995348H48156524H57166784
435H64626389H70259570H74515612H78514111H83021971H87760200H91858715
428H94563050H95406547H94256880H91666249H89115295H88451434H90706812
421H95539990I01912045I08928878I15948278I22427587I27958054I32328917
414I35608612I38145155I40310913I42316117I44242887I46042728I47546467
407I48417205I47868956I44538332I35933929I17318047H84668761H43646492
400H12595171H08790652H31588090H64456821H92018545I10011033I21419919
393I29635045I36038881I40732562I43937573I46534719I49246357I51927201
386I54033673I55355934I56153238I56863423I57723304I58622534I59317124
379I59705807I59900840I60069816I60256163I60537591I61250145I62636891
372I64354152I65794722I66746198I67367815I67771896I67988314I68222827
365I68859446I70063859I71464488I72383590I72301470I71060012I68914587
358I66367252I63559743I59961245I54678320I46178409I31827978I09951615
351H83505737H59468288H41941272H26265356H02369905G65666781G24511793
344F95532595F90851614G10111617G43806737G81594911H16828183H46387412
337H69573534H87370331I01455915I13206898I23212851I31473708I38120546
330I43761952I49024215I54132966I58869483I62611163I64899901I66300268
323I68055891I70749697I73876208I76685692I79080962I81691728I85202711
316I89821380I95250711A000165087A000529161I87190939I45575742H64805037
309G56361867F60662805F21610143F49965684G17781455G87695999H39736166
302H72049804H87259589H84721796H65718940H41966211H31694555H44090843
295H71623351H99802546I20299862I32999951I40617477I45267401I48364368
288I50927100I53453312I55984394I58409472I60642741I62586751I64149907
281I65362676I66188209I66209989I64697038I59735154I46047993I17201712
274H75726933H39146528H27823050H45712562H78472854I09391521I31454363
267I45625488I54746819I60959965I65448349I68694682I70592434I69119161
260I58576342I30322397H76378161G94239135F92109522E91555897E21163444
253E01120349E30962718E92453416F63202836G27188492G77206544H12972866
246H37839598H55621130H69093717H80000742H89263544H97309300I04526364
239I11123127I16735515I20911215I24016998I27025660I30290352I33140501
232I34876713I35567815I35752846I36000454I36705769I37747062I38593651
225I39084655I39536244I39961315I40013231I39800433I39907885I40478441
218I40971089I41091044I41426823I42675059I44584721I46039570I45805847
211I43220545I39224941I37782923I42296838I48260600I50082682I47174168
204I41882492I37779239I37355483I40164375I43777020I46319749I47652998
197I48594801I49911666I51507065I51045014I43290162I23448680H94236943
190H68646602H61255035H75177828I00021399I22911945I38201086I47031447
183I52229094I55557217I57690535I58826713I59268563I59550321I59856885
176I59694424I58633391I57289942I57108398I58891855I61876171I64587810
169I65929416I65053348I61089723I53284600I40755987I23360111I04968346
162H94265566H98150098I14019468I32011496I44767778I51711047I55279868
155I57132218I58115212I59123407I60605169I61956316I62118383I60631357
148I57576701I52655415I44932345I33137474I15888005H92932250H67200768
141H44970398H33376679H36649859H53097747H76067451H98361055I15426217
134I26087345I32105459I36212660I39564143I41640873I42514769I43750502
127I46474314I49612537I51167535I50993953I50854258I51615439I52349509
120I52487690I52720361I53379155I53927010I54389982I55639007I57975583
113I60525089I62218136I62971947I63699897I65035450I66399232I66948534
106I66632889I65342936I62701243I59872612I59678566I63030246I67189364
99I69046451I68373707I66814301I64317238I58409472I48336731I38162921
92I33571494I36024339I41828733I47511593I52578231I57092738I60322687
85I62104828I63487428I65543891I68386407I71150093I72465906I71777172
78I70600462I71225369I73917662I76483882I76739780I74897629I72902426
71I72020305I72147563I73091405I75020676I77553601I79516627I79425493
64I75954056I69179368I62134833I59942163I64926814I71092255I68553803
57I53612944I31116609I09579053H93952356H85263136H84787859H92094215
50H99502035H93599270H65617674H18543141G65582622G27053995G20320301
43G44997002G84839928H23210107H52989176H75391548H92655691I04433783
36I10876178I14749590I18408690I22297631I26922025I32294175I36401705
29I37635465I37032864I36974828I37422666I36136924I33204459I31774548
22I33334546I35122675I32981790I25907842I19767010I22133393I29059554
15I30724175I24085036I11143131H91407192H60654539H16646573G65474512
8G22669313G02059215G03989736G19799293G40561259G61183991G80416555
1G96663620
##END=


$$ === CHEMSPECTRA PEAK TABLE EDIT ===
##TITLE=X7766
##JCAMP-DX=5.00
##DATA TYPE=INFRAREDPEAKTABLE
##DATA CLASS=PEAKTABLE
##$CSTHRESHOLD=0.93
##MAXX=3997.453
##MAXY=0.9726369937187143
##MINX=373.96442
##MINY=0.4539342505825377
##$CSSOLVENTNAME=- - -
##$CSSOLVENTVALUE=0
##$CSSOLVENTX=0
##NPOINTS=33
##PEAKTABLE= (XY..XY)
382.46361135261895, 0.6359524698239499
434.8752913604376, 0.6524940698702758
446.20754649726314, 0.8014751636032507
502.86882218139135, 0.8456652725034522
570.8623530023451, 0.7549049225195784
602.0260546286158, 0.8100604382441051
640.2724157154025, 0.7801582187858077
730.9304568100074, 0.4539342505825377
757.8445627599685, 0.7498742308519483
793.2578600625484, 0.7533811893507885
807.4231789835808, 0.5630785797868469
858.4183270992962, 0.6258001900953071
937.7441130570755, 0.7326339455709912
971.7408784675526, 0.8047937719483249
1015.6533671227521, 0.46841886465782134
1120.476727138389, 0.6097547387885563
1130.3924503831117, 0.7276890250608697
1145.9743011962469, 0.6942964764922389
1194.136385527756, 0.8566963037247577
1233.7992785066458, 0.6091186977412862
1266.3795120250193, 0.8245184985610987
1298.9597455433932, 0.45960357580805483
1406.6161693432368, 0.7084497184330423
1507.1899336825645, 0.7350704046221015
1580.849592071931, 0.6229082318203228
1592.1818472087566, 0.5222257947669597
1729.5854407427678, 0.5158378458892047
1742.3342277716965, 0.49927109251135804
1755.0830148006253, 0.5096064784930114
1769.2483337216572, 0.500098524613212
2361.358664620811, 0.8830063306891088
3100.7883122986705, 0.8747755252602019
3119.2032268960124, 0.8623202409918631
##END=


$$ === CHEMSPECTRA PEAK TABLE AUTO ===
##TITLE=X7766
##JCAMP-DX=5.00
##DATA TYPE=INFRAREDPEAKTABLE
##DATA CLASS=PEAKTABLE
##$CSTHRESHOLD=0.93
##MAXX=3997.453
##MAXY=0.9726369937187143
##MINX=373.96442
##MINY=0.4539342505825377
##NPOINTS=110
##PEAKTABLE= (XY..XY)
3990.370340539484, 0.8995082939475006
3974.788489726349, 0.90071457228898
3969.1223621579356, 0.9006071053866119
3962.0397026974197, 0.8998298014975579
3952.1239794526973, 0.8982244694647259
3943.624788100078, 0.8997451626385365
3932.2925329632526, 0.8983851634543942
3925.2098735027366, 0.9000830613414987
3918.1272140422207, 0.8984177075246026
3903.9618951211883, 0.8976212705086261
3892.6296399843627, 0.9013681974788416
3885.5469805238467, 0.9003015723036165
3881.297384847537, 0.8991745068468063
3871.381661602815, 0.8976528009452284
3862.8824702501956, 0.9013837543542209
3854.383278897576, 0.8961379495257744
3840.217959976544, 0.8976450524002187
3828.8857048397185, 0.9013509711425721
3821.8030453792026, 0.8995521030289014
3807.6377264581706, 0.8994035092337899
3800.555066997654, 0.9001671639439563
3780.7236205082095, 0.9031084741278973
3770.807897263487, 0.9032944998993281
3752.392982666145, 0.8985565861986915
3745.310323205629, 0.8991486397143191
3736.81113185301, 0.8936971388251169
3712.7300896872557, 0.9005244340094426
3701.39783455043, 0.902147885535591
3697.1482388741206, 0.9023167456619512
3677.3167923846754, 0.9002949560570943
3670.2341329241594, 0.9007080756131781
3657.4853458952307, 0.9015913572056296
3650.4026864347147, 0.8994687160390881
3630.5712399452696, 0.8960803110035667
3622.0720485926504, 0.8993542750838758
3613.572857240031, 0.9004723990059899
3593.7414107505865, 0.9000776969641844
3588.0752831821737, 0.8994941673915706
3568.2438366927286, 0.9019985761278353
3544.1627945269743, 0.9037730065226293
3503.083369655981, 0.9043353159157484
3496.000710195465, 0.904142197426592
3476.1692637060205, 0.9030311662222036
3466.2535404612977, 0.9011109437916754
3442.1724982955434, 0.9010718423544664
3419.507988021892, 0.9040204246122134
3394.0104139640343, 0.9037772376956174
3174.4479706880375, 0.9042762479799301
3119.2032268960124, 0.8623202409918631
3100.7883122986705, 0.8747755252602019
3076.707270132916, 0.8852928245051794
3065.3750149960906, 0.8860896193274781
3054.042759859265, 0.8808176484397435
3035.6278452619235, 0.8845372761463447
3014.379866880375, 0.8988649210410644
2995.9649522830337, 0.9041706878682151
2976.1335057935885, 0.9032298293505936
2969.0508463330725, 0.9041662175537863
2956.3020593041438, 0.9030093518124628
2361.3586646207973, 0.8830063306891088
2342.943750023456, 0.8946627937737758
2325.945367318217, 0.9038428629984364
1769.2483337216572, 0.500098524613212
1755.0830148006253, 0.5096064784930114
1742.3342277716965, 0.49927109251135804
1729.5854407427678, 0.5158378458892047
1648.8431228928848, 0.8786225283940977
1614.8463574824077, 0.8881981919117721
1592.1818472087566, 0.5222257947669597
1580.849592071931, 0.6229082318203228
1507.1899336825645, 0.7350704046221015
1459.0278493510555, 0.8911557157042154
1437.779870969507, 0.8819897141559633
1423.6145520484752, 0.8894831505047119
1406.6161693432368, 0.7084497184330423
1298.9597455433932, 0.45960357580805483
1266.3795120250193, 0.8245184985610987
1233.7992785066458, 0.6091186977412862
1194.136385527756, 0.8566963037247577
1145.9743011962469, 0.6942964764922389
1130.3924503831117, 0.7276890250608697
1120.476727138389, 0.6097547387885563
1062.3989195621575, 0.8865507800437895
1015.6533671227521, 0.46841886465782134
971.7408784675526, 0.8047937719483249
937.7441130570755, 0.7326339455709912
858.4183270992962, 0.6258001900953071
807.4231789835808, 0.5630785797868469
793.2578600625484, 0.7533811893507885
757.8445627599685, 0.7498742299461095
730.9304568100074, 0.4539342505825377
685.6014362627047, 0.8513076870701961
668.6030535574664, 0.8494801482529832
658.687330312744, 0.8490929565205856
640.2724157154025, 0.7801582187858077
617.607905441751, 0.8669859131431584
602.0260546286158, 0.8100604382441051
570.8623530023451, 0.7549049225195784
546.7813108365908, 0.8613206705330678
517.0341411024233, 0.8693140710143752
502.86882218139135, 0.8456652725034522
483.03737569194664, 0.879207548071521
473.1216524472243, 0.8804936969366309
458.9563335261919, 0.8695528474019028
446.20754649726314, 0.8014751636032507
434.8752913604376, 0.6524940698702758
410.79424919468283, 0.8487481444559781
405.12812162627006, 0.8440375291131169
398.0454621657541, 0.8331606354203179
382.46361135261895, 0.6359524698239499
##END=

##END=

