##TITLE=CML-41
##JCAMP-DX=5.0
##DATA TYPE=LINK
##BLOCKS=1


$$ === CHEMSPECTRA SPECTRUM ORIG ===
##TITLE=CML-41
##JCAMP-DX=5.00
##DATA TYPE=INFRARED SPECTRUM
##DATA CLASS=XYDATA
##$CSCATEGORY=SPECTRUM
##ORIGIN=Angelika Moesle
##OWNER=
##XUNITS=1/CM
##YUNITS=TRANSMITTANCE
##XFACTOR=1.0
##YFACTOR=8.1772417e-10
##FIRSTX=3997.453
##LASTX=373.96442
##MAXX=3997.453
##MAXY=0.8780246401892378
##MINX=373.96442
##MINY=0.352001072244821
##NPOINTS=2559
##XYDATA= (X++(Y..Y))
2559I77436334I77818282I78061811I78124424I78275090I78643262I78942697I78969303
2551I78961722I79122883I79237031I79043578I78632327I78329028I78446894I79069236
2543I79858936I80243581I80002021I79553960I79521596I80025419I80533760I80520494
2535I80062958I79653092I79646605I79980664I80254733I80096342I79590552I79207000
2527I79258388I79636546I80011715I80129507I80022649I79873150I79659798I79270925
2519I78880011I78690058I78560020I78454183I78734521I79461170I79889842I79412261
2511I78619426I78499739I79129079I79709874I79612127I79203282I79311671I80096852
2503I80803893I80558397I79418456I78336245I78111231I78729346I79601631I80254588
2495I80595571I80589959I80208302I79775184I79703751I79883719I79958651I79870380
2487I79722193I79523419I79317138I79358394I79932191I80984153I82058856I82521932
2479I82253183I81817077I81423758I80914760I80744779I81476093I82683604I83401142
2471I83330802I82996524I82727775I82545913I82650876I83061543I83446917I83651814
2463I83826533I83916918I83816182I83821504I84285527I84810050I84387064I83486277
2455I83409670I84191935I85306874I86214220I86485957I86155105I85730953I85431372
2447I84855534I83891187I83184364I83069852I83174014I83229775I83436858I83956570
2439I84577163I85180992I86077841I87301169I87964695I87338489I86375965I85912962
2431I85359283I84555806I84490205I85485457I86757330I87385650I86964049I86064429
2423I85760110I86149566I86302564I85651940I84794889I84227579I83934047I84194851
2415I85317661I86944587I88347153I89087871I89185909I88826265I88230747I87778677
2407I87708265I87677140I87151014I86383618I86249499I86974908I87962216I88593743
2399I88789965I88946681I89261788I89229716I88404518I87439662I87491852I88699435
2391I89933186I90149599I89670342I89335918I89377903I89680328I90183275I90777700
2383I91298141I91579646I91184795I89868969I88648776I88532149I89273159I90147266
2375I90500861I89982242I88841281I87902592I88011491I89403780I91390494I92582989
2367I92007078I90412079I89428635I89525070I90078166I90705538I91550635I92756834
2359I94146353I95085042I94773360I93466208I92475256I92452223I93164804I94106044
2351I94641428I94320416I93509141I92997592I93024343I93322248I93625110I93757771
2343I93425462I92305931I90759915I89939819I90332410I91461562I92792769I94034610
2335I95038318I95729907I96011849I95702063I95022136I94694711I94898733I95191244
2327I95301528I95498916I95939396I96419893I96856945I97478633I98500053I99735626
2319A000587211A000605142A000302426A000580140A001362916A001512561A000222538
2312I98672804I98116282I98098934I98073714I98174595I98588323I99033031I99226046
2304I99455725A000099425A000959319A001659217A002221425A002584275A002240668
2297A001352346A000732482A000690643A001054587A001464161A001429246A000740500
2290I99893945I99441657I99444136I99725130A000123552A000442595A000567530
2283A000770167A001453956A002603007A003784570A004558890A004904903A005179992
2276A005574041A005907809A006035003A006150535A006464330A006787529A006545385
2269A005455083A004241669A003793681A004166008A004859492A005429280A005752624
2262A005941556A006184065A006617037A007209786A007809386A008311677A008701206
2255A008957345A008999622A008802087A008536399A008494342A008787363A009186586
2248A009452711A009634064A009840198A010030226A010151079A010166969A009936342
2241A009455190A009110124A009210495A009526477A009768693A010014481A010375729
2234A010722689A010891650A010876124A010802578A010903750A011333369A011879249
2227A012184079A012254710A012327601A012395973A012321842A012152809A012004257
2220A011936906A012106304A012729813A013788043A014893433A015540705A015602442
2213A015547119A015845170A016277486A016217496A015524741A014728481A014379042
2206A014680082A015482902A016324719A016792970A016916666A016910616A016761846
2199A016432013A016207875A016423413A017037883A017774883A018458163A019010384
2192A019348743A019523098A019739512A019999222A019942731A019339631A018523983
2185A018090282A018289201A018852138A019334020A019587388A019862260A020351722
2178A020848182A021069770A021035512A020896509A020757797A020816620A021273573
2171A022010792A022699902A023190021A023489602A023561035A023445576A023392584
2164A023689323A024439516A025458604A026305305A026623182A026522592A026419160
2157A026506629A026673841A026841854A027057101A027339918A027756416A028485034
2150A029505142A030402719A030777452A030679195A030457097A030363797A030457170
2143A030694503A030940728A030986794A030736706A030437781A030606742A031544119
2136A032949893A034159663A034748257A034813130A034780839A035036905A035633808
2129A036341433A037020120A037747280A038512853A039099187A039377775A039463058
2122A039549944A039782539A040164706A040455176A040329877A039799741A039332073
2115A039513645A040642797A042493570A044381226A045693918A046473631A047242047
2108A048259677A049278983A050004102A050384957A050509090A050626882A051181653
2101A052340838A053580712A054206189A054227400A054266616A054679761A055253412
2094A055793024A056538187A057761734A059234859A060432601A061146568A061579686
2087A061925335A062265298A062862274A064078677A065867638A067747349A069340598
2080A070593301A071574850A072429131A073274957A073741822A072891259A069893840
2073A064513763A057011176A048128401A039079361A031039932A024755134A020854159
2066A020075830A022706973A028005339A034521129A040894271A046242786A050087561
2059A052239447A052578390A050366880A043677027A030196439A009400813I84125459
2052I59455682I38834848I20258895H97170632H64888130H25887566G87356857G54768287
2044G30059585G14727351G11261462G20668542G40250024G64706668G88974671H10140291
2036H27608302H42093399H54454455H65181225H74563084H82918713H90489672H97328878
2028I03505361I09242385I14622680I19368606I23195670I26225088I28845588I31357481
2020I33915733I36592360I39277441I41697055I43753161I45757879I48083682I50583912
2012I52651827I53936748I54717555I55443840I56249357I57085197I57927378I58629901
2004I58942019I58877511I58801996I59034518I59563269I60155726I60561655I60646136
1996I60472728I60235177I60058489I59898348I59641043I59246412I58790844I58414362
1988I58222951I58247661I58494177I58956598I59509110I59882822I59905491I59691702
1980I59431992I59080221I58495781I57781232I57189212I56784886I56457824I56172237
1972I55997009I55967707I56030320I56033017I55785115I55249731I54623744I54107094
1964I53720480I53450711I53363315I53403551I53279126I52748480I51924959I51151295
1956I50602500I50091243I49312914I48279540I47379046I46901100I46654656I46173940
1948I45152520I43587043I41713820I39951318I38718004I38097265I37696219I36949671
1940I35684139I34341197I33522997I33392741I33659740I33942921I33872144I33074499
1932I31444659I29246343I26654998I23334016I18692033I12544998I05504977H98783562
1924H93616982H90733492H90124780H91186800H93161925H95477741H97681962H99276231
1916H99870801H99455397H98315019H96612725H94146389H90639827H86277307H81754354
1908H77723196H74393102H71724057H69743174H68558040H68311087H69218724H71364778
1900H74259494H76850036H78267254H78488332H78088817H77492205H76723279H75747416
1892H74656385H73549682H72588470H72110524H72335756H73023045H73743135H74394488
1884H75125146H75850046H76205169H75996265H75426477H74812444H74248123H73598373
1876H72748903H71810141H71015120H70396131H69702281H68742528H67640126H66593413
1868H65544221H64261269H62660002H60903185H59212554H57670620H56261274H55040644
1860H54081618H53243737H52239009H50966626H49540297H48043045H46548709H45253583
1852H44262996H43414109H42577540H41903299H41526891H41283508H40918398H40350212
1844H39589086H38649231H37678106H36902109H36314317H35683373H34983840H34499625
1836H34360841H34326582H34189182H34023940H33844774H33382573H32490971H31502279
1828H30855372H30525468H30138782H29552083H28993812H28667042H28511639H28356088
1820H28076043H27607792H27003380H26469236H26231028H26342697H26670269H27053165
1812H27446338H27885870H28331452H28595609H28489626H28076480H27733966H27854090
1804H28445381H29122610H29533496H29712006H29965229H30475975H31120914H31658193
1796H31958503H32037444H32007850H32022210H32127683H32207789H32166169H32080012
1788H32073233H32113032H31974320H31392578H30327205H29080406H28052572H27387369
1780H26893023H26257634H25364283H24431571H23770378H23440255H23290974H23267941
1772H23476336H23984895H24691937H25372300H25883047H26344009H26971600H27676382
1764H28032818H27754448H27016209H26207485H25537909H24997642H24518530H24017186
1756H23418606H22734306H22018008H21252216H20395529H19440075H18323824H16967981
1748H15474884H14064299H12780909H11477401H10078625H08685024H07454334H06509595
1740H05898624H05540657H05266077H04974076H04713928H04573759H04550142H04537970
1732H04373528H03929404H03271563H02638433H02160415H01734221H01273697H00894591
1724H00717466H00647345H00493546H00240396H00089584H00219695H00575620H00946052
1716H01215603H01481727H01930662H02636611H03513415H04451886H05431175H06466808
1708H07544500H08667676H09886047H11213682H12571494H13864141H15099350H16375378
1700H17710958H18955059H19964380H20820046H21750206H22865729H24045030H25085548
1692H25903530H26510856H26846884H26829681H26611592H26552987H26873926H27523092
1684H28374458H29317739H30213276H31006111H31831965H32829695H33931805H34946665
1676H35729076H36219632H36465056H36610181H36727535H36663756H36190548H35291439
1668H34188308H33102817H32086281H31097807H30172676H29427877H28929887H28644081
1660H28506901H28456096H28401209H28266507H28103887H28130055H28599181H29580000
1652H30857195H32112813H33195169H34147635H35031802H35824636H36454486H36828490
1644H36837674H36429193H35674845H34676823H33399629H31710601H29620674H27346551
1636H25082122H22854358H20653490H18536228H16512194H14504925H12541754H10829839
1628H09465831H08178651H06595971H04755622H03108943H01961568H01154666H00410814
1620G99746268G99340922G99184498G99065103G98813192G98419435G98023783G97855916
1612G98037340G98389039G98622509G98756483G99114377G99850794H00718706H01409930
1604H01916157H02439076H03101655H03859939H04606123H05296472H05986312H06682420
1596H07184565H07254686H06969901H06717553H06802763H07207599H07745096H08329317
1588H09067556H10094441H11324987H12459679H13297050H13933314H14574973H15281358
1580H15985922H16673939H17413563H18238906H19046901H19612098H19743958H19442991
1572H18814672H17848867H16466710H14778557H13097329H11734560H10923139H10758333
1564H11035391H11356038H11511296H11507432H11203915H10297444H08747783H06933748
1556H05292390H03963152H02855356H01930006H01215311H00542601G99567467
1549G98212134G96792583G95503654G94093215G92286468G90256676G88427843
1542G87024475G86016977G85331146G84898320G84609162G84413742G84411773
1535G84688103G85113130G85451052G85627958G85785111G86096209G86613880
1528G87276896G87968047G88510500G88737848G88723051G88818101G89237588
1521G89722166G89898781G89862336G90055205G90654805G91426356G92145861
1514G92848166G93603388G94284991G94708633G94915862G95197658G95825103
1507G96791198G97803361G98506030G98726597G98567112G98304195G98197482
1500G98388092G98931494G99764418H00580723H01018433H01180980H01667745
1493H02785600H04047633H04790464H04960445H04934569H04923125H04974878
1486H05275334H05964007H06810416H07465122H07908006H08276471H08433769
1479H08149276H07597128H07284499H07573584H08485740H09749669H10868690
1472H11449848H11620923H11870137H12410040H12986170H13373365H13796935
1465H14689849H16116614H17606141H18628144H19117023H19346629H19428632
1458H19261055H18938295H18831218H19147710H19677991H20112858H20423884
1451H20750508H21036750H21036094H20739939H20569811H20960142H21850796
1444H22775708H23410151H23864844H24427270H25174183H25943036H26598982
1437H27189033H27842646H28626660H29452514H30036006H30082437H29671333
1430H29335962H29564329H30272464H30915434H31120258H31098026H31368378
1423H32137523H33111127H33950684H34641763H35264980H35697514H35818513
1416H35813411H36005406H36541372H37393977H38433839H39392500H40055807
1409H40519903H40967818H41344518H41590306H41913140H42432560H42801680
1402H42615589H42075030H41821224H42156304H42838343H43576291H44302867
1395H45043293H45848373H46798141H47847697H48715828H49166658H49277234
1388H49282482H49376730H49686662H50182100H50527458H50266800H49406688
1381H48600077H48423681H48778441H49284596H49853436H50565434H51329039
1374H52033530H52779349H53633120H54369537H54687196H54642951H54699296
1367H55205669H55973064H56549412H56753507H56690164H56415439H55915480
1360H55365154H55133142H55429735H56058711H56649491H57061544H57367321
1353H57578048H57716687H58032961H58777031H59880672H61067190H62040939
1346H62523768H62495705H62374415H62611966H63255520H64127077H65118101
1339H66160951H67235436H68457087H69845367H71065925H71755181H72020650
1332H72239031H72424320H72332186H72231450H72848180H74289233H75753393
1325H76565616H76806520H76727798H76328502H75785319H75640849H76197225
1318H77113026H77890918H78485781H79119494H79776094H80262132H80547499
1311H80735048H80897157H81137770H81603033H82333691H83166615H83735529
1304H83688368H83216035H83222085H84490314H86730032H88870838H90277559
1297H91115877H91526399H91237751H90336674H89701211H90038040H90859156
1290H90996190H90198690H89767469H90945969H92962860H93927643H93624344
1283H93522224H93896665H93475865H92315734H92213687H93562096H94440504
1276H93764731H92861468H92930204H93154854H92417709H91321357H91061938
1269H91372162H91190007H90870235H92137953H95491590H99031172I00692063
1262I00533454H99775753H98751854H97468829H96828118H97432383H98311739
1255H98104583H96799034H95399092H94571633H94497650H95341435H96884754
1248H98179005H98364075H97674964H97209337H97694791H98655930H99026726
1241H98534711H97921044H97719136H97609290H97239514H96865948H96799545
1234H96968724H97296150H97840281H98465029H98955220H99330754H99485720
1227H98850038H97105613H94926103H93389563H92939170H93313756H94140922
1220H95309072H96973827H99227249I01721648I03964282I05953766I07975978
1213I09852846I10993297I11182449I10937754I10998618I11576424I12214584
1206I12465766I12532752I13009459I14111642I15431842I16490655I17326495
1199I18252719I19143592I19476630I19064141I18264745I17675496I17944026
1192I19399220I21478433I22911322I22647093I20546887I17569076I15285550
1185I14738795I15839666I17930469I20452421I22907896I24713039I25478904
1178I25375909I25078951I25055116I24952777I24272414I23433731I23188891
1171I23182622I22415883I21049980I20523562I21822551I24481829I27202773
1164I28647908I28069665I26143304I24747954I25053075I26500687I28193069
1157I30001492I31828357I33090317I33542823I33741961I34145631I34433769
1150I34216335I33875935I34182368I35448774I37363035I39163003I39968739
1143I39475850I38170229I36547896I34935039I34056704I34393679I35292788
1136I36126222I37657440I40795103I44572892I46936671I47015466I45204127
1129I42346439I39973695I39708737I41397910I43111940I43682529I43614304
1122I43350803I42621967I41437563I40250899I39253387I38280877I37097347
1115I35537118I33647932I31547727I29164996I26596831I24524325I23616469
1108I23569818I23398015I22839670I22667283I23472363I24710196I25305424
1101I24953506I24405585I24637451I25984840I27871110I29272000I29583390
1094I29153479I28814172I28889469I28926424I28354667I27234773I26184998
1087I25813692I26289888I27174492I27760535I27677803I27025940I26150010
1080I25553909I25710187I26598581I27541351I27702731I26897578I25889425
1073I25584450I26081274I26792835I27247966I27502719I27866809I28556357
1066I29552776I30593002I31319432I31509896I31295451I31155063I31541239
1059I32529203I33863470I35074407I35650536I35584789I35406279I35467070
1052I35824307I36527487I37505974I38445465I39169053I39890162I40809681
1045I41730001I42288637I42411021I42372535I42521961I43071412I43973583
1038I44845577I45371339I45669025I46012268I46565656I47355720I48231067
1031I48886794I49052693I48666517I47949635I47198640I46401797I45281902
1024I43778964I42168586I40660399I39355362I38461355I38143769I38366670
1017I39064453I40078294I40955535I41292729I41147239I40837307I40688682
1010I40937386I41585532I42490180I43580118I44735876I45777049I46718508
1003I47648742I48449157I49079371I49818485I50863595I52178619I53613622
996I55036671I56503455I58141677I59900024I61712384I63693923I65917386
989I68258277I70505504I72590985I74812990I77538892I80653155I83789723
982I86934674I90143185I93074638I95620936I98253536A001262035A004515957
975A007972079A011864379A016430484A021420011A026044501A029935927A033406335
968A036730670A039957696A043165478A046240671A048920652A051357832A053736845
961A055495046A056143192A056260473A056323232A056516612A057080568A058009053
954A059125741A060340103A061433613A061921034A060829419A056432641A048134232
947A037293461A024272232A008269109I89135541I66822983I40485899I11938910
940H86649342H65421400H41706785H11640458G81336507G52661886G20767018
933F88715142F61861846F37495295F12006589E87816361E67779784E47862421
926E22375792D96583568D78451047D65859802D55139811D45177302D36469866
919D30967514D30464312D34362481D40557587D47325178D54254806D61333459
912D68361599D75602690D83763372D93188821E03716452E14809790E25918945
905E37449665E50084645E61803241E71778141E82193230E94398482F07261756
898F18645491F28433135F37278153F45335221F52699679F59971056F68321364
891F78097345F88233479F98640258G10081941G22639147G35451471G47885928
884G60620040G74734268G89634625H03849660H18047422H34096466H49715599
877H56618075H48022854H20433797G74209673G20187316F77065064F56162434
870F54789825F63988365F76436234F88454922F99135989G09037196G18902760
863G28750247G37794476G44918978G48797575G48170203G43431858G37908404
856G36163105G40578762G49911931G60981361G71446306G80822845G89221844
849G96073588H01467076H07037471H14151331H21058035H20609901H05021309
842G73487761G35274127G03739851F86221909F84834650F97098907G11441867
835G23097266G33834241G43622540G51497235G57434563G62186903G66685510
828G71753541G77688026G84183917G91251126G99059126H06319132H12204488
821H17284546H22017206H26352027H30205987H33852427H37655437H41702266
814H45715857H49553490H53547036H57908682H62210338H65972893H68878615
807H70193494H68993929H65013576H59102926H52876149H47732384H45349581
800H48247577H55560356H64623099H74291056H83559716H91068134H96069834
793H98982700I00819404I02482848I04585604I07487536I11205919I15471493
786I20127910I25296967I31201859I37784344I44402983I50179368I54593349
779I57566860I59336578I60548461I62160590I64576194I67548319I71124347
772I75732218I81259607I86594346I91004026I94940863I99508353A005759694
765A012757366A018211500A021941254A024542074A026016146A026098732A024606801
758A021595168A017193577A011102961A002798939I91765881I75534465I47623522
751I03575263H52061228H04460414G61863705G23389632F92564000F72653343
744F62225717F58203379F58569875F62068564F68024406F76376537F86537746
737F97011292G07099465G16906133G25916613G32115838G32040687G22435271
730G03622861F82969591F71979102F75296148F88262636G04892547G22088675
723G38959345G55085654G69410974G81030875G90478045G99080118H07733871
716H16437189H24764536H32735156H40756288H49051855H57469951H65620246
709H73111025H79661875H84942310H88537216H90318013H90639244H90373629
702H90955882H94042447I01089903I12648503I27207510I42114063I55994312
695I68816986I80599945I90978952I99633579A006617766A012207768A016652218
688A020000461A022032149A022413586A020741324A016188559A007413151I93360516
681I74012575I49919949I21660150H90090229H56409389H21552089G85617097
674G48100665G08978155F70006529F35085668F08945864E95166752E94852592
667F06230459F25649286F49416601F74230118F96198778G10874994G15009876
660G08234886F93072050F73254911F51962971F31345126F13036173E98958062
653E91733919E93679231F04512312F19844838F31926284F32246641F15393756
646E83073788E44855999E13046851D95470087D92612436E00191449E13213006
639E28152250E43062191E56990329E69494834E80364178E89543292E97178795
632F03605257F09217091F14331006F19170889F23953406F28886079F34029406
625F39241324F44309500F49060747F53319762F56890760F59701870F61932113
618F63910882F65922306F68165159F70794916F73879513F77383306F81269921
611F85520991F89986432F94340278F98266182G01589642G04197751G06007632
604G07125633G07900098G08706928G09780538G11262336G13232723G15662395
597G18459656G21578876G24988931G28566708G32119847G35530412G38824424
590G42069964G45237001G48198849G50777145G52684773G53587090G53527538
583G53297640G54030412G56181714G59019283G61227732G61842566G60383291
576G56137688G47633872G33237775G12546310F87112782F59936870F35009132
569F17454236F12370679F21587076F41535637F65349165F87308202G05170626
562G19165605G30112505G38660565G45384677G50823140G55347623G59153257
555G62342306G65007343G67337957G69607560G71964195G74333806G76583729
548G78677884G80712415G82905702G85489976G88547020G91978067G95599068
541G99198056H02449573H04634331H04190790G98249964G82871225G55582259
534G19993937F87455005F70879834F75021859F93547298G15397145G31772668
527G37193053G28701483G08538696F86230729F73492317F75583702F88895620
520G06190297G22061487G34149785G42101453G46595833G48616587G49011145
513G48462204G47625271G47229473G47936442G49948668G52934206G56430855
506G60089905G63610462G66802865G69724476G72567731G75440581G78309129
499G81135401G83980624G86849391G89517489G91552822G92003870G89054851
492G81405826G70969891G62935930G61584022G66491985G73791789G80261949
485G85051974G88453282G90798838G92516585G94093434G95712486G97206677
478G98308058G98934409G99307028G99664776H00021140H00437128H01157217
471H02242271H03501388H04828367H06248427H07767328H09383173H11141957
464H13269424H16216257H20416885H26049384H31818553H32466698H20395675
457G94824165G67842653G55109197G59876918G70557766G74267111G69303751
450G63851294G65323835G73369824G82733825G89822245G94582313G98088438
443H00946052H03456633H05769461H07908299H09909300H11684193H12960002
436H13566527H13513171H12779597H11145748H07920107H01969003G93012753
429G83351211G77408854G78476268G85847433G95554167H03514144H07592025
422H07656096H05008991H01655062G99206292G98085522G97660422G97034071
415G95795655G94102108G92124578G89732809G86793775G83395747G79621457
408G75339482G70315841G64474001G57983067G51013822G43455766G35016531
401G25514183G14972410G03559737F91482081F78846444F65731259F52445289
394F39573196F27748398F17475228F09133048F03114702E99913698E99874082
387F02836659F08236563F15516358F24264796F34091655F44597128F55401891
380F66162699F76677066F86976695F97176828G07226368G16907736G26047598
373G34591504G42521961G49904496G56987596G64020546G70961654G77537215
366G83555451G89052883G94221503G99280058H04333584H09322163H14144771
359H18773051H23216480H27496633H31734947H36108400H40556786H44535171
352H46917974H45574158H36420738H13160962G69782571G06148895F32841138
345E69238441E33432685E31067302E52685101E81702200F05936709F23415763
338F38912586F56359604F75234701F92749362G07017390G17830462G26238208
331G34152847G43260272G53435185G62169992G65404234G59162077G42000936
324G17574323F94390355F81114445F81080623F91413126G06771383G22993396
317G38011764G51220104G62625706G72202330G79869796G85853993G90598534
310G94339878G97019493G98435471G98218694G95939250G91834691G87585807
303G85806905G88314206G95042619H04575800H15237405H25783405H35631038
296H44615132H52573214H59369998H65171239H70351011H75171286H79609248
289H83310137H85456920H84134898H75140233H51208113H03451020G27170920
282F31099848E40915846D87227548D84649798E21249081E67336972E95498004
275E98051773E90277996E95192118F22646108F63800889G03267591G30917147
268G42364225G35433686G11630800F79887764F54458828F46223104F55906586
261F76098968F98689532G19653828G38633231G56440039G73435280G89317841
254H03637621H16260209H27437154H37531814H46723938H55056024H62648922
247H69636096H75909889H81078874H84730198H86841847H87997240H89030615
240H90209115H90553305H87917206H79853505H64674924H42185970H14072827
233G83439919G52800305G22054854F89714258F57606767F33461076F25948649
226F36575266F58374308F82351913G03273932G19702227G31514853G39036026
219G43259033G45270312G44801186G39367388G25384510G00965988F69034091
212F37655363F14860340F04867691F09861738F26733829F45701206F62663937
205F78827347F94313527G07801185G18529340G26600403G32213366G35404967
198G36053987G34008887G28909222G19539681G04183027F82772858F58249446
191F33887852F09109650E80794453E49787834E22964969E07272981E03580110
184E06969937E11567968E14440379E16461061E21018490E31388970E48206393
177E69222660E91404561F12797601F32638138F50535476F66033756F78890689
170F89431077F98411234G06570860G14361803G22002227G29534407G36870074
163G44132776G51834064G60271841G68965537G77100890G84321972G90956793
156G97804964H05575936H14182966H22814268H30719212H37583639H43431967
149H48325862H51410531H49672010H37841308H10596879G67171255G15501233
142F69882541F42534607F38045257F53531000F81126544G11405713G36212962
135G49668402G49089940G36295693G16448086F93918386F69368223F41709045
128F12986243E90132979E80797661E87731553F07605510F34318929F62455178
121F88547056G11189519G30522006G46933609G60262438G70383848G77563747
114G81277101G79381427G68579799G43764823F98472755F34230949E72644596
107E44395293E59407901F01376801F47742224F84252689G05343815G09344431
100F96140027F67301766F27672737E86506220E54634568E38913861E39200541
93E50577935E67302203E84376859E98571121F09508837F18219590F25163322
86F30743193F36320147F42986530F50108481F56507135F62103844F67436250
79F72838558F78714804F85305890F91667515F96037106F97774679F98207213
72F98844790F99352329F98210712F95083037F91202253F88440344F89319991
65F95998692G07762407G20662492G30803729G37278263G41716808G46349680
58G52444598G59738498G66794555G72214139G75848989G78526927G81081462
51G83818077G86477647G88676911G90685784G93718191G98811370H05078018
44H10028112H12625579H14288803H16425017H19296189H22951813H26953813
37H29694220H30250888H30007068H30357455H30460814H29654058H30053062
30H32830351H36565645H39382732H40538053H40025047H37600841H33747099
23H30252856H28101554H26160543H23106633H19709480H18461807H19948417
16H21345881H20657207H18355823H15573651H12410478H07187554G97255513
9G81257129G60593873G37563412G14390960F95517831F86884779F92353127
2G09876899G30329209
$$ === CHEMSPECTRA INTEGRALS AND MULTIPLETS ===
##$OBSERVEDINTEGRALS= (X Y Z)

##$OBSERVEDMULTIPLETS=
##$OBSERVEDMULTIPLETSPEAKS=
$$ === CHEMSPECTRA SIMULATION ===
##$CSSIMULATIONPEAKS=
##END=


$$ === CHEMSPECTRA PEAK TABLE EDIT ===
##TITLE=CML-41
##JCAMP-DX=5.00
##DATA TYPE=INFRAREDPEAKTABLE
##DATA CLASS=PEAKTABLE
##$CSCATEGORY=EDIT_PEAK
##$CSTHRESHOLD=0.93
##MAXX=3997.453
##MAXY=0.8780246401892378
##MINX=373.96442
##MINY=0.352001072244821
##$CSSOLVENTNAME=- - -
##$CSSOLVENTVALUE=0
##$CSSOLVENTX=0
##NPOINTS=32
##PEAKTABLE= (XY..XY)
378.2140156763094, 0.5616822857934084
507.11841785770093, 0.4406828896877204
524.1168005629397, 0.4451651891203318
551.0309065129004, 0.47493228527916637
570.8623530023451, 0.5217450282027617
634.6062881469898, 0.4117896274782587
670.0195854495696, 0.4946149305827915
694.1006276153244, 0.5118533394661463
745.0957757310398, 0.5284322521709478
767.7602860046909, 0.39630985381021766
827.2546254730255, 0.5569360871457579
858.4183270992962, 0.43426656874208935
922.1622622439404, 0.49053153580796194
978.8235379280686, 0.6357060098878012
1009.9872395543389, 0.624619665389576
1017.0698990148553, 0.6174710413761915
1065.231983346364, 0.6227656622752118
1113.394067677873, 0.5507309459202019
1126.1428547068022, 0.5485946554273878
1177.1380028225171, 0.5007503052176114
1281.9613628381544, 0.4028210953597781
1297.54321365129, 0.48387512777512226
1318.791192032838, 0.48642534206554866
1403.7831055590304, 0.5494935534402954
1425.0310839405784, 0.5382288117839704
1559.6016136903827, 0.5600058457584906
1604.9306342376854, 0.5354374669902944
1672.9241650586396, 0.352001072244821
2549.7574062705357, 0.6414340761135442
2660.246893854585, 0.652886869797244
2808.9827425254202, 0.6542525910020452
3265.106011782643, 0.5816156886669366
##END=


$$ === CHEMSPECTRA PEAK TABLE AUTO ===
##TITLE=CML-41
##JCAMP-DX=5.00
##DATA TYPE=INFRAREDPEAKTABLE
##DATA CLASS=PEAKTABLE
##$CSCATEGORY=AUTO_PEAK
##$CSTHRESHOLD=0.93
##MAXX=3997.453
##MAXY=0.8780246401892378
##MINX=373.96442
##MINY=0.352001072244821
##NPOINTS=100
##PEAKTABLE= (XY..XY)
1985.977713213448, 0.7638007430113357
2000.1430321344799, 0.7636529238308489
3116.370163111806, 0.76325780441825
1875.4882256293977, 0.7614280010329727
1920.8172461767003, 0.7595137978829373
1912.3180548240812, 0.7570602328653356
1892.4866083346365, 0.7568727761411566
1902.4023315793588, 0.7568478020272805
2017.1414148397184, 0.7561887531438481
1930.7329694214227, 0.7559087897374894
1937.8156288819387, 0.7544873381773302
2027.0571380844408, 0.7527343657018936
2063.8869672791243, 0.7504054332959383
2051.1381802501955, 0.7480040219081752
2086.5514775527754, 0.7448958188113142
2136.1300937763876, 0.7336697604145753
2154.5450083737296, 0.733358028424212
2121.9647748553552, 0.7333346635915027
2144.629285129007, 0.7314523484132005
2189.9583056763095, 0.7306547189969541
2104.966392150117, 0.730177941648739
2178.626050539484, 0.7301144028452816
2184.2921781078967, 0.7295846966647148
2171.543391078968, 0.7286428836696415
2167.2937954026584, 0.72848612349308
1368.3698082564501, 0.728080036763913
3095.1221847302577, 0.7278765469219326
2197.0409651368254, 0.7275843650810258
2204.1236245973414, 0.7275301843129699
2218.2889435183733, 0.722227099151066
2242.369985684128, 0.7160326864666203
2255.118772713057, 0.7132447384991465
3048.3766322908523, 0.7131458543861651
3068.208078780297, 0.7100389629188728
2276.366751094605, 0.7051844027351105
2297.614729476153, 0.6992630387814421
2311.780048397185, 0.6988621977528257
2327.36189921032, 0.6937765503540698
1507.1899336825645, 0.6912627844830728
2355.6925370523845, 0.6883775616837841
2378.357047326036, 0.6834648277848439
2905.3069111884283, 0.6804063938341416
2913.8061025410475, 0.6803529285747345
2391.105834354965, 0.6796089434994884
422.12650433150884, 0.6787168407744336
417.87690865519926, 0.6784281759651819
2398.188493815481, 0.6781680611776015
2718.3247014308054, 0.6771605636708488
2930.8044852462863, 0.6768580703281583
2762.2371900860044, 0.6758923552555958
2944.969804167318, 0.6756290815995468
2884.05893280688, 0.6732060937418339
2422.269535981235, 0.6709997676270318
2435.018323010164, 0.669578078109139
398.0454621657541, 0.6692760018057752
2589.420299249414, 0.6629766849230087
2464.7654927443314, 0.6601360468986408
2629.0831922283032, 0.6596724414513561
2480.347343557467, 0.6582050943044313
2808.9827425254107, 0.6542525910020452
2498.7622581548085, 0.6527053734645399
2657.413830070367, 0.6524260666906897
2524.259832212666, 0.6458895231198611
2531.342491673182, 0.6449579022388426
801.757051415168, 0.6425732991713938
2548.3408743784203, 0.6414324668323775
978.8235379280686, 0.6357060098878012
1009.9872395543389, 0.624619665389576
1065.231983346364, 0.6227656622752118
1017.0698990148553, 0.6174710413761915
1198.3859812040655, 0.6159896874319588
1096.3956849726346, 0.6110276006084624
1585.0991877482406, 0.6019783640207479
3265.106011782643, 0.5816156886669366
467.4555248788115, 0.5629543088919144
378.2140156763094, 0.5616822857934084
1559.6016136903827, 0.5600058457584906
827.2546254730255, 0.5569360871457579
1113.394067677873, 0.5507309459202019
1403.7831055590304, 0.5494935534402954
1126.1428547068022, 0.5485946554273878
1425.0310839405784, 0.5382288117839704
1604.9306342376854, 0.5354374669902944
745.0957757310398, 0.5284322521709478
570.8623530023451, 0.5217450282027617
694.1006276153244, 0.5118533394661463
1177.1380028225171, 0.5007503052176114
670.0195854495696, 0.4946149305827915
922.1622622439404, 0.49053153580796194
1318.791192032838, 0.48642534206554866
1297.54321365129, 0.48387512777512226
760.6776265441749, 0.4826845843483633
551.0309065129004, 0.47493228527916637
524.1168005629397, 0.4451651891203318
507.11841785770093, 0.4406828896877204
858.4183270992962, 0.43426656874208935
634.6062881469898, 0.4117896274782587
1281.9613628381544, 0.4028210953597781
767.7602860046909, 0.39630985381021766
1672.9241650586396, 0.352001072244821
##END=

##END=

