##TITLE=F. Hundemer FHU-CEL-018
##JCAMP-DX=4.24
##DATA TYPE=INFRARED SPECTRUM
##DATE=18/8/2017
##SAMPLING PROCEDURE=Diamant-ATR
##ORIGIN=Angelika Moesle
##XUNITS=1/CM
##YUNITS=TRANSMITTANCE
##RESOLUTION=4
##FIRSTX=3997.453
##LASTX=373.96442
##DELTAX=-1.4165319
##MAXY=0.89614648
##MINY=0.46590427
##XFACTOR=1
##YFACTOR=8.3460144e-010
##NPOINTS=2559
##FIRSTY=0.81389523
##XYDATA=(X++(Y..Y))
3997+975190291+975634076+976128566+976518431+976499934+976178558+976004158
3988+976045009+975910102+975472602+975128801+975197576+975440465+975385545
3978+974932833+974455840+974339930+974546611+974748149+974810710+974898410
3968+975109733+975303701+975387116+975495313+975692852+975763126+975548447
3958+975238783+975097878+975124159+975112304+974959829+974876557+975133800
3948+975460533+975255209+974651379+974505546+975127230+975790122+975866466
3938+975425538+974702157+973988131+973868507+974797427+976230550+976952003
3928+976606988+976071576+976294111+976970572+976812740+975453463+974087043
3918+974242803+976048151+977863711+978322422+977677456+976754036+975675212
3908+974085329+972296336+971602949+973068424+975810261+977883637+978730213
3898+978839909+978307924+977118333+976012728+976292754+977964695+978732426
3888+977502342+976129923+976530501+977586185+977211889+976387953+976813026
3878+977292876+976391809+975154797+974861274+975090093+975290775+976094572
3869+977143186+977283520+977240956+978467256+980314668+980710389+979250056
3859+976786173+973982417+971893830+973358876+980022858+985306423+984997188
3849+982070238+979130076+977122047+976165703+975804405+975354836+975002393
3839+975896390+977926630+979037305+978529103+977761585+977779796+978199871
3829+978337634+978228366+977804364+976528215+974992895+975390187+977935414
3819+979054659+978152521+978240435+979951727+980658683+979247271+976861090
3809+975224571+975696851+977331584+977383933+975984090+976130923+978512248
3799+979985936+979859171+980069708+980930996+981105539+980245608+979191923
3789+978586950+978488252+978888687+979608283+979826319+979098438+978485181
3779+979291478+980844438+981375994+980580267+979331186+978640656+979267768
3769+980802874+981706655+981570748+981204951+980672895+979633636+978772349
3759+979112222+980046497+979792039+977904133+975378832+973951065+975365905
3750+978187373+978995169+978331492+979150001+982204930+984085766+982833685
3740+979784326+976774032+975678569+977986977+982410968+985378911+985488179
3730+983838520+981951543+980917569+980991557+981552180+982161723+983040436
3720+984083409+984498270+983595917+981495689+979385677+979329257+982392400
3710+985918894+986902019+985718499+983746107+982120515+981893981+983091642
3700+984092764+983696758+982263135+980549558+979044161+978137024+978449258
3690+980758738+984483201+987074634+987354803+986180923+984582042+983018797
3680+981300435+979248628+978097745+980102845+983567493+983711755+980932210
3670+978423120+977122832+975302416+972554579+970115264+968905176+968828617
3660+969122997+969537430+970893851+973329381+974642381+973349235+971135026
3650+971306640+975314699+979012095+979151072+977449065+975773410+974811425
3640+974445413+974137321+973630975+973251537+973216685+972929589+971719501
3631+970351582+970891923+973122772+973821586+972494018+970597828+969211126
3621+969225052+971106316+973534776+974881699+975685782+976982141+978292784
3611+978725356+978729284+979107865+979452023+979057873+978276072+977920345
3601+978225509+978630872+978626587+978480039+978810414+979586001+979937087
3591+979471091+979170712+980483640+982860966+983751892+982612364+980905071
3581+979776399+979433598+979456451+979282979+978621730+977598540+976530501
3571+975682711+975399900+976221551+978110100+979614139+979681557+978935822
3561+978284214+977882208+977219959+975973235+974623027+974106897+974779716
3551+975778552+976062720+975742630+975598867+975855183+975955809+975392472
3541+974122394+972478377+971163235+970831004+971343634+971847623+971741712
3531+971115600+970391504+969904941+969743396+969880659+970331657+971001190
3521+971587952+971869477+971866263+971709717+971613090+971859336+972544438
3512+973451933+974271656+974743721+974704156+974383566+974479336+975374404
3502+976346816+976428589+975783266+975311414+975426181+975814689+976145992
3492+976419733+976687047+976907439+977037204+977018278+976821667+976602632
3482+976582207+976702330+976655766+976320249+975924028+975797763+976014371
3472+976275899+976218337+975808547+975333554+975037959+974951187+975069168
3462+975416611+975825687+975965022+975797121+975711777+975953881+976164989
3452+975815546+974948402+974174600+973980061+974238661+974529899+974762290
3442+975072096+975333054+975306844+975123159+975096807+975234927+975328626
3432+975283276+975057027+974562465+973851153+973163480+972735407+972681773
3422+972931946+973188833+973175692+972972939+972851959+972810823+972544509
3412+971922183+971253649+970873711+970635679+970157971+969473512+968986305
3403+968832973+968788838+968760985+968820761+968789338+968358551+967621886
3393+966994345+966675040+966615550+966882578+967595890+968566231+969314395
3383+969467227+969022942+968296632+967722155+967661236+968242141+969232622
3373+970098981+970410858+970251027+970090268+970225174+970464135+970461421
3363+970262811+970261740+970638892+971186089+971748854+972422101+973196117
3353+973814445+974124965+974270299+974468124+974780215+975075381+975155868
3343+974979754+974746364+974696586+974917622+975358050+975855897+976136351
3333+976041009+975790836+975769482+976056221+976429589+976774175+977149685
3323+977497843+977662816+977682527+977734518+977849428+977955553+978109814
3313+978389911+978623016+978523461+978120384+977792866+977817647+978089532
3303+978332778+978425905+978522318+978933179+979752617+980545416+980714602
3293+980264819+979814392+979765186+979883238+979832818+979746118+980022073
3284+980709603+981316933+981367710+980994842+980666253+980448503+980024215
3274+979415172+979129576+979447952+980016217+980307169+980208042+980024287
3264+980048926+980286458+980589694+980890288+981180383+981384350+981421558
3254+981332787+981205451+981038335+980834440+980739313+980892788+981212592
3244+981530612+981848488+982188861+982353549+982180434+981861843+981663662
3234+981559107+981462623+981512258+981820850+982249423+982617149+982832899
3224+982781764+982443820+982102376+982092449+982404469+982785050+983095285
3214+983340102+983518930+983657121+983864088+984173108+984399143+984325726
3204+983998066+983666905+983480722+983418160+983466653+983613414+983713684
3194+983646480+983554352+983704114+984139971+984620750+984862210+984818432
3184+984738730+984882850+985187228+985370556+985317921+985144235+984982476
3174+984940626+985156448+985641583+986161283+986471161+986582143+986627707
3165+986576930+986305974+985905968+985639512+985559168+985482966+985385553
3155+985454756+985701073+985904468+985968386+985973028+985952532+985945462
3145+986078440+986335541+986518296+986609210+986792609+987040211+987123055
3135+987047353+987029784+987086418+987068135+987006431+987047853+987203399
3125+987413364+987699318+988055045+988342713+988412487+988211520+987799873
3115+987372085+987185616+987330021+987619331+987836224+987985842+988154243
3105+988234873+988053260+987697818+987423434+987260318+987001932+986501656
3095+985722141+984614679+983206267+981685515+980236038+978894900+977687526
3085+976774175+976339746+976364885+976593490+976715685+976503934+975820831
3075+974661378+973153767+971389127+969391382+967357500+965615571+964218085
3065+962945293+961769628+960881845+960303082+959890007+959563132+959200905
3055+958603074+957831058+957226442+956916136+956662035+956305664+956042422
3046+956143262+956647537+957427124+958410963+959632835+961071599+962535074
3036+963788227+964768209+965558580+966180550+966574628+966742315+966699608
3026+966404656+965991366+965865101+966219901+966685253+966786594+966467789
3016+965909023+965203781+964457617+963864286+963523056+963412288+963526198
3006+963859786+964358491+965004742+965855460+966950067+968235857+969561926
2996+970706239+971482540+971903257+972252700+972934089+974124537+975557588
2986+976743680+977407500+977631464+977640748+977593970+977578187+977693168
2976+978020614+978476683+978797916+978757994+978357488+977823646+977457206
2966+977371649+977356937+977160041+976855948+976735324+976913795+977256596
2956+977563689+977689668+977602754+977383647+977112620+976829809+976630770
2946+976650695+976928650+977386218+977887707+978256933+978370914+978303282
2936+978238222+978206013+978043968+977652889+977191607+976959573+977094409
2927+977409643+977588971+977518839+977326156+977144329+977033776+977077554
2917+977331870+977706380+978065107+978391625+978725999+979027878+979236558
2907+979420100+979760330+980363088+981118465+981761360+982072595+982030602
2897+981822993+981720652+981915120+982444748+983212623+983992709+984512910
2887+984673669+984615679+984501269+984401357+984418711+984637675+984902346
2877+984898561+984519409+984002208+983687474+983703828+983905438+984122760
2867+984390930+984802720+985224222+985368627+985152020+984810004+984604467
2857+984522908+984399214+984251239+984270878+984479844+984658886+984653744
2847+984553332+984558760+984782295+985106884+985239934+985048180+984766511
2837+984725661+985003044+985463255+985935963+986225059+986175852+985874402
2827+985601661+985527030+985591734+985684718+985777846+985912038+986135645
2817+986407600+986541436+986348467+985837122+985199298+984677383+984508625
2808+984817003+985419333+985893756+985987383+985846121+985764563+985859904
2798+986071155+986302689+986466234+986528438+986597069+986822532+987182402
2788+987501064+987643470+987546557+987223253+986911661+986973008+987400295
2778+987722100+987636685+987405437+987393153+987583765+987755808+987818370
2768+987820369+987871790+988098324+988483547+988812707+988903978+988808708
2758+988721936+988796495+989032171+989264847+989307983+989111444+988761787
2748+988427913+988347640+988684514+989316982+989881175+990077786+989909956
2738+989645285+989558300+989692920+989891388+989995300+989959877+989870534
2728+989898744+990113494+990346528+990406804+990360526+990404233+990545281
2718+990606914+990496575+990315247+990197124+990163772+990173699+990211978
2708+990244116+990184126+990014653+989848466+989784334+989800046+989867106
2698+990046505+990345528+990575133+990522928+990258328+990083285+990155059
2689+990330459+990391306+990258114+990003370+989797546+989801831+989994585
2679+990182555+990228904+990168700+990096854+990079214+990161629+990337172
2669+990516500+990618198+990643194+990609342+990493789+990317247+990189911
2659+990173913+990185626+990128635+990054933+990070216+990141276+990147846
2649+990110566+990207479+990512286+990842161+990967069+990916006+990951643
2639+991237811+991680953+992153518+992702928+993384103+994039853+994444286
2629+994545484+994432931+994224751+994115269+994335233+994911282+995599526
2619+996127797+996389468+996399681+996211283+995899120+995524467+995138530
2609+994857219+994810798+994956988+995123461+995288934+995560175+995855556
2599+995991962+996085875+996400110+996809685+996931094+996760194+996681206
2589+996825183+996850750+996485596+996028813+996102444+996912740+997942072
2580+998461415+998202101+997466292+996806686+996624930+996838324+996962375
2570+996715415+996353974+996219496+996285485+996370543+996439603+996502164
2560+996518162+996486810+996407608+996242278+996087732+996160292+996450459
2550+996671779+996646498+996480668+996344547+996331549+996512306+996951448
2540+997640050+998393712+998852851+998788791+998422850+998192745+998215241
2530+998265733+998220526+998215956+998399568+998755296+999179298+999557022
2520+999725923+999505745+998946836+998496053+998663454+999458395+1000326396
2510+1000670840+1000325111+999569949+998831069+998354076+998127899+998095332
2500+998289087+998637887+998838997+998704804+998510407+998650599+998997971
2490+999026037+998626603+998366431+998741513+999546881+1000227127+1000558930
2480+1000721189+1000858238+1000862594+1000597066+1000169208+999845332+999676503
2470+999398548+998898487+998605749+999033679+1000038443+1000985003+1001554553
2461+1001874786+1002002479+1001878357+1001666534+1001619471+1001774302
2452+1002124531+1002738859+1003415534+1003684419+1003439102+1003165289
2444+1003354830+1003983870+1004657045+1005041126+1005092689+1004957425
2435+1004780168+1004707680+1004923073+1005403281+1005757651+1005629101
2427+1005195243+1004958996+1005162891+1005666095+1006226575+1006625866
2418+1006669002+1006326130+1005814142+1005411565+1005227666+1005171818
2410+1005083476+1004896149+1004692254+1004581486+1004594341+1004703252
2401+1004803736+1004655189+1004066713+1003224494+1002623235+1002557603
2393+1002828702+1003052665+1003109656+1003143650+1003262988+1003450528
2384+1003660066+1003776761+1003622215+1003252989+1003108084+1003580222
2376+1004567060+1005627173+1006312989+1006259569+1005476340+1004660188
2367+1004593127+1005115399+1005322937+1004802593+1004136988+1004203905
2359+1005251163+1006602799+1007346677+1007367745+1007218698+1007037299
2350+1006472749+1005583465+1005048910+1005423206+1006246000+1006417186
2342+1005700732+1004888579+1004727320+1005288942+1005971831+1006077813
2333+1005647741+1005407780+1005673736+1005842280+1005263946+1004079283
2325+1002971750+1002479473+1002620164+1003056521+1003518803+1003929522
2316+1004257896+1004494715+1004711394+1005005489+1005395282+1005790217
2308+1006049604+1006108522+1006038391+1005965617+1005986114+1006146945
2299+1006415115+1006691427+1006933816+1007216913+1007625417+1008065917
2291+1008189539+1007653913+1006628509+1005819498+1005750295+1006249357
2282+1006862613+1007426593+1007976931+1008480206+1008991051+1009731787
2274+1010689274+1011455434+1011758813+1011765026+1011608909+1011223686
2265+1010889741+1011138057+1011759313+1011815447+1011013006+1010287411
2257+1010709770+1012319079+1014124283+1014974859+1014550142+1013578301
2248+1012839208+1012154963+1010897882+1009273791+1008276382+1008270740
2240+1008418002+1007910728+1007126285+1006790340+1006209006+1003158790
2231+995962538+985528173+975313914+969347961+969846736+975961237+984486057
2221+992082744+997224546+1000216200+1001781087+1002337139+1002551818+1003485880
2211+1005514977+1007647128+1008442212+1007407239+1005439275+1004104493
2203+1004330670+1005713587+1007361389+1008986052+1010477951+1011160054
2194+1010661064+1009888119+1009918757+1010610501+1011333026+1012227308
2186+1013618009+1014739254+1014245978+1012069119+1009840769+1009092749
2177+1009726931+1010586790+1010877743+1010598431+1010010385+1009305571
2169+1008783799+1008916992+1009796205+1010597431+1010412676+1009876192
2160+1010873172+1013786124+1016371488+1016831270+1015833361+1014798173
2152+1014308396+1014168205+1013978736+1013657503+1013640148+1014360459
2143+1015526340+1016315711+1016297285+1015780727+1015290379+1015064416
2135+1015116764+1015468778+1016137383+1016955035+1017568578+1017747763
2126+1017660491+1017694985+1017940303+1017961728+1017279339+1016091462
2118+1015232388+1015197394+1015477705+1015239601+1014491723+1014077648
2109+1014532860+1015365938+1015548479+1014585065+1013068956+1012065977
2101+1011897862+1011922072+1011700965+1011736888+1012591391+1013932743
2092+1015018352+1015590901+1015953127+1016532104+1017382108+1017914664
2084+1017440384+1016183447+1015218105+1015122192+1015299520+1015027921
2075+1014620988+1014969788+1016269933+1017830963+1019046550+1019923335
2067+1020572729+1020796907+1020475602+1019931477+1019557324+1019366141
2058+1019181100+1019007485+1018909858+1018714247+1018250038+1017773615
2050+1017758832+1018275248+1018825444+1018951423+1018846869+1019156247
2041+1020111376+1020974449+1020579014+1018593481+1016299999+1015859857
2033+1018160409+1021735111+1024629209+1026365711+1027056384+1026179099
2024+1023795845+1021584278+1021090502+1021948576+1022815220+1023103958
2016+1023205656+1023732998+1024965797+1026542325+1027485528+1027106447
2007+1025954564+1025073136+1024524155+1023849551+1023365773+1023568525
1999+1023846908+1023157235+1021472511+1019507618+1017811752+1016954535
1990+1017549724+1019291510+1020917959+1021575994+1021575280+1021531930
1982+1021424661+1021024655+1020771625+1021542499+1023673651+1026710797
1973+1029684026+1031357895+1031301690+1030774204+1031235629+1031996219
1965+1031176353+1028828594+1026863987+1026444412+1027014748+1027509167
1956+1027300130+1026253658+1024791754+1023589950+1022839716+1022280307
1948+1021927508+1022089838+1022650747+1022913204+1022326014+1021190700
1939+1020330912+1020225572+1020685425+1021087859+1020821974+1019656093
1931+1017957657+1016569884+1016180876+1016822557+1018106418+1019513045
1922+1020375762+1020392544+1020188649+1020645289+1021624486+1022089767
1914+1021621272+1020871466+1020724133+1021294968+1021761321+1021376169
1905+1020319056+1019352572+1019045765+1019376568+1019815496+1019786001
1897+1019109397+1017982224+1016694863+1015653462+1015443853+1016273932
1888+1017437028+1018144412+1018485499+1018880435+1019416347+1020024676
1880+1020714206+1021412021+1021939363+1022190751+1022165326+1021973429
1871+1021923294+1022386576+1023240579+1023707074+1023396910+1022737947
1863+1022288235+1022287949+1022616609+1022933129+1022943842+1022701096
1854+1022568903+1022804864+1023334492+1023950677+1024464664+1024735263
1846+1024864171+1025205543+1025791162+1026204309+1026304221+1026275440
1837+1026204023+1025940852+1025344806+1024595072+1024239558+1024757902
1829+1025747241+1026338644+1026480549+1026657377+1026984467+1027263136
1820+1027491812+1027750984+1027856896+1027474387+1026569249+1025582410
1812+1025139054+1025439434+1025944922+1026010412+1025520135+1024757117
1803+1024135076+1024079013+1024719337+1025581625+1026018339+1025891217
1795+1025659398+1025992200+1026891339+1027300915+1026758504+1026005841
1786+1025739813+1025876148+1025875220+1025633902+1025504352+1025517350
1778+1025302742+1024775257+1024342327+1024475663+1025051854+1025387585
1769+1025421008+1025569270+1025744812+1025674038+1025674895+1026351142
1761+1027502454+1028384381+1029027061+1029773582+1030355059+1030488608
1752+1030590235+1031274051+1032309525+1032772806+1032501993+1032002004
1744+1031606283+1031464163+1031709123+1032046996+1031742760+1030738853
1735+1030128310+1031107579+1032760951+1033508972+1033608027+1033507329
1727+1033211735+1032889144+1032736598+1032462071+1031713408+1030868475
1718+1031009237+1032571982+1033871984+1033770857+1033001697+1032356089
1710+1032094917+1032210398+1032612832+1032966132+1032882217+1032661967
1701+1033145388+1034396684+1035142705+1035199481+1035430158+1035578705
1693+1035187911+1034704990+1034617576+1034637287+1034323339+1034329837
1684+1035949430+1038130359+1038746830+1038230985+1037573379+1037335846
1676+1037813482+1038641275+1038958367+1038762470+1039047995+1040207234
1667+1041148437+1041401324+1041697347+1042683258+1043966976+1044692786
1659+1044723853+1044292780+1043743798+1044236289+1047174238+1049694540
1650+1049597199+1048895599+1049510070+1051328630+1052202987+1051762773
1642+1050966118+1050220525+1049450223+1048731340+1048288698+1047378990
1633+1044771845+1040147458+1033122249+1023410694+1012607817+1004201834
1625+1000791392+1002245583+1005328650+1006759202+1006096096+1003955374
1616+1000765396+997509428+995265081+994445143+995013622+996294984+997039791
1606+996166576+993016734+987168047+978876189+969700760+961985878+957495755
1596+956659821+958782188+962762466+967638454+972509944+976379597+978440760
1587+978472326+976814240+973953708+970215176+965922521+961740776+959084424
1577+960392710+966006221+972097868+977314872+983785386+992627369+1001053777
1567+1006738562+1010634711+1013436682+1014849451+1015401646+1017193425
1558+1020347980+1019617957+1014440018+1007061081+999142804+991841998+985985669
1548+982450819+981870985+984521337+990076858+997189766+1005460985+1014878803
1538+1021276114+1023595307+1024805252+1027472530+1031855671+1035641195
1530+1037920465+1039952561+1042697041+1045576142+1047669942+1049453865
1521+1051860829+1054308714+1055801399+1056564774+1056970993+1056832087
1513+1056043502+1054865052+1053593474+1052406597+1051114022+1048777761
1504+1045388458+1041511663+1036943624+1030971029+1022010851+1006830047
1496+984135472+958645425+935619974+918896494+915202884+930295988+955905515
1486+977326799+986606354+980886574+962721830+942199827+930747485+932290019
1476+942903070+955149139+961399117+957244796+945280252+930016819+912537748
1466+892251350+870918695+853398345+841640195+833255495+823694843+805516744
1456+777824128+753509603+737340389+726528656+718900903+713696397+711086181
1446+710967700+712453457+715092740+719097443+724776800+733562578+748931565
1436+771385109+792411886+805974597+815074610+823372967+831006862+836619373
1426+840831399+845536058+851204417+856874491+862906790+871048959+880032705
1417+885774052+887953053+888932321+890513206+893541139+897934492+903107432
1407+908915911+915397638+921622548+926615161+930920314+935588765+940606159
1397+945400161+950130888+954813408+958589219+961219718+963671817+967048765
1387+971220940+974821709+977139901+978558883+979473948+979804180+979207634
1377+977458492+974673733+971556742+969391596+969256261+971411123+975150084
1367+979040519+982196075+984966122+987901070+990652978+992549668+993513510
1357+993628777+992666363+990369595+986880023+982691279+978432690+974698086
1347+971620161+968567160+964465973+958061806+947432329+930132300+906120226
1337+880396002+859927777+849735300+852041709+865776678+886696187+909428113
1327+929912336+945946929+955957507+958120582+950964252+934721550+912527178
1317+889795252+870900912+856950764+847166649+841009798+838705175+840666997
1307+846763358+855796667+865616204+873870926+878827402+879918152+877902553
1298+874565170+872039511+872004517+875209065+881524461+890092703+899264775
1288+906698203+910221198+909296778+905823131+903195061+904136336+909152159
1278+916907391+925695597+934371393+942336305+949176758+954495460+957993317
1268+959614338+959731533+959374448+960085975+963109338+968498028+975110447
1258+981616384+987383441+992346772+996476740+999745563+1002422268+1005060408
1248+1008142833+1011768811+1015575046+1018903859+1021127139+1021834095
1239+1020746629+1017632281+1012337576+1004648975+993887520+978613732+956966770
1230+927939301+893121279+857367267+827030298+806537791+796155274+792902949
1220+793261604+795056882+797767153+801939186+808267794+816769261+826625150
1210+836804414+846760644+856466557+865944365+874984530+883308312+890787089
1200+897429575+903282475+908392283+912800276+916574874+919868335+922863060
1190+925613753+927938230+929330860+928954993+926253577+922106112+918882925
1180+918425000+920182570+922272442+924045938+926461900+930108447+934134717
1170+937342050+939449348+941083796+943010552+945381022+947443470+948010449
1160+946250308+941972007+935493709+927715481+920103797+914152413+910957292
1150+911305307+915487409+922681018+931083430+939036130+945780099+951188786
1140+955325753+958363042+960563182+962215198+963657391+965198210+966846155
1130+968221573+968787481+967936763+964877334+959093994+951464813+944550300
1120+941116433+942275672+947099883+953634387+960072334+965416675+969507435
1111+972563435+974815281+976570209+978252648+980058852+981697299+982695136
1101+982880534+982390114+981203808+978763421+974116752+966750957+957700722
1091+949729311+945773243+946868207+951693275+957963822+963872142+968401901
1081+971137025+972328331+972946658+974207166+976767962+980296742+983802669
1071+986386604+987692890+987800658+986967509+985643297+984569829+984537906
1061+985868903+988200379+990859158+993368605+995568960+997457937+999098954
1051+1000568214+1001864288+1002967536+1004041860+1005387355+1007105002
1043+1008947987+1010577435+1011880507+1012980685+1013892036+1013909319
1034+1011234113+1003930021+992339345+980416865+973247537+972616926+975806976
1024+978815699+979462021+977139330+971530461+963207536+954850902+950289862
1014+951772405+958400679+967015413+974071474+977106192+975800263+972223348
1004+969215697+967812854+966575914+963795654+960011416+957895761+959724462
994+965343044+972682058+979768686+985830695+990872727+994970343+998139611
984+1000506224+1002338496+1003891956+1005256233+1006345698+1006930460
976+1006631366+1004997918+1001573550+995969251+988531396+981259942+977101336
966+977464777+981026623+985539099+989985515+994431146+998790147+1002637661
956+1005738012+1008139119+1009951466+1011322384+1012473768+1013566946
948+1014530646+1015072700+1014927938+1014152208+1013142801+1012294940
939+1011616194+1010720911+1009173950+1006736991+1003290983+998660383+992654365
929+985451685+978150807+972823607+971532675+974968970+981955185+989988729
919+996152293+998124899+995146315+988401917+980659968+975372761+975163296
909+980202972+988116035+995936828+1002159739+1006910820+1010707485+1013613653
899+1015509129+1016649871+1017565221+1018519708+1019475980+1020546591
891+1022004281+1023784490+1025440076+1026705512+1027762982+1028868516
882+1030007044+1031019093+1031871596+1032699104+1033673445+1034872106
874+1036173322+1037199654+1037294353+1035412660+1030154663+1020542449
866+1007348463+993455948+982324839+975832900+973567842+973921927+975413326
856+976951003+977567188+976686689+974653665+972549152+971509250+972397391
846+975668570+980902715+986617352+991076623+993337539+993407385+991921985
836+990270969+990561207+994400508+1001518630+1010107940+1018418581+1025555986
826+1031169711+1035250187+1038215417+1040601169+1042556493+1043852352
817+1044399834+1044648365+1045347965+1046908567+1049184766+1051858472
809+1054681225+1057378784+1059743611+1061824985+1063772453+1065623722
800+1067376792+1069072372+1070690893+1072123302+1073247404+1073741823
792+1072706921+1069009382+1062673847+1055508875+1049376021+1044179513
783+1038761042+1033508686+1030586378+1031241057+1033953399+1035771459
775+1034865536+1031350253+1026192239+1019970542+1012287584+1001788229+987253248
765+969338034+950835344+934712051+922052335+911730094+901254592+887639675
755+868092014+840703920+805145733+762989339+717134906+670744562+627127049
745+590689328+566638545+558235633+564309712+580272423+601823829+627350727
735+657066512+690961114+727105062+759842282+779857581+778934089+756173096
725+719395823+681028309+653018102+643419529+653841111+678901157+709918158
715+739866690+765121633+784328065+796867372+802347833+801794995+799314543
705+800609689+807652109+815949110+819814620+819581944+821113408+828824505
696+841604558+855314388+866864572+875457238+881698432+886544497+890592050
686+893805882+895913894+897166904+898651161+901568970+906131795+911466852
676+916611439+921013577+924130424+925274166+923595583+918449353+911934132
666+907927002+907112278+908400496+910771180+913620285+917410666+923050244
656+930187791+937145154+942538343+946175320+948613922+950525752+952409230
646+954484962+956840220+959555347+962335107+964113316+963460352+959713607
636+954074172+949668035+949575050+954149231+960889843+967141607+972136576
626+975569515+974590032+964796633+946383358+927377822+917668552+919924112
616+927801253+932490486+929487763+920306549+910686622+907052930+912594096
606+925639820+941292833+954823192+964258793+969896014+971994599+970301448
596+965347258+958253703+949430860+939311728+930313985+925403716+923940669
586+921660114+916292420+911769516+914398658+925404787+939634318+951375042
577+958922379+963625396+967131323+970151758+972721838+974721225+976027440
567+976227622+973954850+966386088+950077397+923596654+890354803+858921513
557+838957205+834037224+837982222+840984802+840252565+842337653+854383469
547+875612213+898914832+918503487+933459256+945079785+953940908+960098258
537+964183376+966378089+964056326+952692041+932059771+910683123+900580988
527+907006581+923818618+940030539+950501970+956779015+961670573+966652401
517+971583167+975204146+976794957+977249669+978017043+979381249+980406867
507+980616261+980704461+980920497+979680414+974931048+966979491+958756906
497+953543759+953262162+957659371+964478899+970804437+974861916+976795315
487+977512269+977337654+976021798+973567914+970727878+968764485+968873324
477+971645299+976913510+983906938+990796240+994738238+994448714+991462488
467+987928066+985078603+983305607+982678496+983158846+984362292+985687432
458+987059137+988856057+990434228+989760624+984838571+975339838+962355032
448+947139805+931502362+918197751+909807908+907520425+910711189+917676336
438+925849786+930831257+928225969+917965004+903826243+889215703+875249844
428+861146935+845246534+826790337+808228657+795290987+795976160+818135966
418+853495257+881347990+898991677+911925419+921559059+927891666+932367363
408+935772378+936939116+935166906+932599611+933220795+939252666+947522386
398+949423789+943054331+938912293+942308452+949940133+956107911+956186112
388+949628256+940879186+936297935+937970804+941283549+942012072+940107955
378+937677352+938311320+945018866+952438011
##END=
