##TITLE=HMS-Q274
##JCAMP-DX=4.24
##DATA TYPE=INFRARED SPECTRUM
##DATE=7/7/2021
##SAMPLING PROCEDURE=Diamant-ATR
##ORIGIN=Angelika Moesle
##XUNITS=1/CM
##YUNITS=TRANSMITTANCE
##RESOLUTION=4
##FIRSTX=3997.453
##LASTX=373.96442
##DELTAX=-1.4165319
##MAXY=0.99696666
##MINY=0.37700295
##XFACTOR=1
##YFACTOR=9.2849756e-010
##NPOINTS=2559
##FIRSTY=0.98012185
##XYDATA=(X++(Y..Y))
3997+1055599816+1055961746+1056175707+1056031333+1055554880+1054970772
3989+1054534954+1054497914+1054972634+1055694568+1056157347+1056108945
3980+1055742585+1055321981+1054853039+1054320030+1054009456+1054221491
3972+1054759250+1055177672+1055393302+1055574459+1055678583+1055642120
3963+1055677749+1055890105+1056003537+1055830532+1055542490+1055296945
3955+1055091009+1054980594+1055013654+1055048576+1054948175+1054881156
3946+1055180111+1055934271+1056842305+1057385264+1057284286+1056781448
3938+1056324703+1056185272+1056335744+1056503614+1056373427+1055839904
3929+1055073805+1054416900+1054315986+1055039589+1056148488+1056726755
3921+1056478514+1055965277+1055825396+1056119408+1056422215+1056390824
3912+1056044493+1055669788+1055564316+1055787201+1056192333+1056628151
3904+1056936607+1056956764+1056820222+1056886150+1057158978+1057273116
3895+1057057422+1056674821+1056374325+1056227512+1056012010+1055599752
3887+1055281410+1055442796+1055893122+1056042439+1055882722+1055916617
3878+1056212362+1056245294+1055689753+1054793274+1054175014+1054120705
3870+1054190935+1053880681+1053479593+1053678853+1054586823+1055381297
3861+1055374493+1055069439+1055214648+1055807935+1056326821+1056465161
3853+1056516260+1056765785+1057069426+1057355285+1057476485+1057141324
3844+1056288433+1055352474+1054851241+1054791540+1054820942+1054788652
3836+1054805342+1054855992+1054826077+1054786276+1054983290+1055480607
3827+1055995063+1056167811+1055953401+1055627998+1055496270+1055667156
3819+1055968422+1056203247+1056322392+1056315266+1056172626+1055908529
3810+1055522718+1055101408+1054963133+1055364735+1055929007+1056036790
3802+1055539152+1054916977+1054820171+1055394329+1056330352+1056905087
3793+1056506374+1055427325+1054548884+1054430381+1054884173+1055391183
3785+1055664396+1055721529+1055716715+1055835924+1056104772+1056150607
3776+1055679674+1055101793+1055102050+1055841124+1056792554+1057363951
3768+1057534260+1057565009+1057559360+1057585873+1057637485+1057506913
3759+1057010367+1056294275+1055723455+1055575486+1056036661+1057032000
3751+1057732686+1057203272+1055997438+1055046650+1054665783+1054938418
3742+1055574074+1056107211+1056508942+1057095746+1058177555+1059474096
3734+1059899129+1058964069+1057514488+1056447507+1056038266+1056134237
3725+1056358919+1056414832+1056424847+1056689136+1057184270+1057603398
3717+1057662778+1057172458+1056143160+1055120667+1055063405+1055920019
3708+1056472030+1056277135+1055642506+1054755463+1053842614+1053595207
3700+1054519419+1056100021+1057476356+1058154702+1057951461+1056895330
3691+1055396447+1054377934+1054593371+1055473994+1056087182+1056326821
3683+1056471195+1056756477+1057118599+1057102294+1056386009+1055560722
3674+1055596157+1056065035+1056222762+1056381066+1057046958+1057814791
3666+1058053274+1057731274+1057229142+1056978655+1057035981+1057014604
3657+1056538985+1055673576+1054882633+1054509084+1054603000+1055116366
3649+1055818977+1056308911+1056577117+1056895587+1057336733+1057683063
3640+1057616558+1057047728+1056207933+1055488438+1055249185+1055487154
3632+1055726537+1055624467+1055603347+1056289524+1057211425+1057679340
3623+1057560195+1056880950+1055852037+1055068733+1054997413+1055317616
3615+1055620037+1056011625+1056643879+1057271062+1057607185+1057710025
3606+1057700139+1057484060+1057037714+1056598172+1056378370+1056268083
3598+1056098352+1056068759+1056562159+1057576693+1058590456+1059133286
3589+1059109919+1058651184+1058025863+1057560644+1057385457+1057414729
3581+1057512819+1057554225+1057442911+1057241018+1057233058+1057626957
3572+1058207149+1058563045+1058548793+1058209909+1057404073+1056133595
3564+1055132800+1055133634+1056069914+1057201410+1057878729+1058111114
3555+1058177876+1058079145+1057706623+1057271832+1057139077+1057323444
3547+1057468653+1057241981+1056691383+1056184309+1056005077+1056085064
3538+1056074344+1055749711+1055344257+1055271268+1055649567+1056336258
3530+1057147423+1057859149+1058255744+1058318848+1058174731+1057902160
3521+1057529124+1057143186+1056912662+1056998041+1057354194+1057651159
3513+1057566229+1057125275+1056640734+1056381451+1056362963+1056411944
3504+1056373555+1056307884+1056445903+1056834923+1057178878+1057153200
3496+1056754679+1056325152+1056237077+1056557216+1056970117+1057026801
3488+1056589570+1056029985+1055827900+1056043017+1056313020+1056355902
3479+1056315780+1056486345+1056854887+1057107301+1057017364+1056672638
3471+1056320081+1056155357+1056269303+1056618137+1056995088+1057134327
3462+1056940202+1056647281+1056656397+1057113078+1057706302+1057973673
3454+1057776659+1057425835+1057296996+1057330698+1057080532+1056414832
3445+1055849020+1055797536+1055973108+1055923229+1055717164+1055765760
3437+1056252612+1056949446+1057396755+1057258351+1056628601+1055935426
3428+1055511292+1055414614+1055596029+1056020805+1056621732+1057285377
3420+1057908194+1058372194+1058501803+1058223776+1057785261+1057568540
3411+1057652892+1057820119+1057927709+1057955377+1057833151+1057576051
3403+1057412868+1057510508+1057734997+1057808050+1057553839+1057018455
3394+1056478385+1056274952+1056559784+1057197494+1057855298+1058210359
3386+1058192705+1057981184+1057693334+1057283901+1056871963+1056857391
3377+1057447918+1058221978+1058476639+1058049936+1057509994+1057379037
3369+1057495872+1057400928+1057026480+1056647089+1056399490+1056261471
3360+1056351857+1056849816+1057598455+1058058089+1057803107+1057001957
3352+1056306472+1056263590+1056882555+1057744048+1058439791+1058836129
3343+1058940189+1058690086+1057989465+1056964468+1056135842+1056134301
3335+1057069683+1058345489+1059241775+1059473583+1059189842+1058746064
3326+1058438892+1058207984+1057780832+1057245576+1057056202+1057343537
3318+1057708677+1057835333+1057843743+1057914935+1057952424+1057757144
3309+1057312403+1056796598+1056434412+1056389283+1056659928+1057026030
3301+1057235819+1057287624+1057363695+1057533233+1057701872+1057784876
3292+1057806702+1057893173+1058159196+1058507324+1058653623+1058473172
3284+1058141606+1057846054+1057586771+1057355028+1057279985+1057435785
3275+1057629718+1057598005+1057409209+1057433410+1057795083+1058104438
3267+1057958009+1057513782+1057246924+1057259507+1057223365+1056964403
3258+1056691768+1056605940+1056641825+1056671034+1056658002+1056561453
3250+1056298897+1055895176+1055595002+1055742585+1056430047+1057301811
3241+1057876482+1057965905+1057643519+1057083998+1056645612+1056770664
3233+1057546457+1058582624+1059402391+1059727858+1059444952+1058618573
3224+1057582149+1056812198+1056615505+1056943027+1057500237+1058033310
3216+1058451474+1058707932+1058755436+1058663895+1058580891+1058504627
3207+1058259596+1057798164+1057393096+1057390913+1057827758+1058385097
3199+1058649707+1058381374+1057709062+1057114234+1056997207+1057258544
3190+1057526107+1057671508+1057806767+1057931625+1057905049+1057677864
3182+1057324086+1056904574+1056437686+1056019650+1055887986+1056204851
3173+1056739208+1056973776+1056629500+1055934527+1055323650+1055028997
3165+1055032335+1055280191+1055758120+1056359625+1056887498+1057214506
3156+1057253023+1056859445+1056117611+1055537419+1055541592+1055938572
3148+1056271036+1056387229+1056356287+1056186171+1055925861+1055727371
3139+1055606043+1055413074+1055117136+1054867419+1054730941+1054610961
3131+1054509918+1054649221+1055155396+1055763769+1056020548+1055752535
3122+1055204633+1054738772+1054493805+1054348019+1054157040+1053989684
3114+1054040462+1054326578+1054645626+1054856505+1054998119+1055096915
3105+1055089340+1054980465+1054849572+1054634841+1054116661+1053254333
3097+1052405487+1052048821+1052279601+1052722352+1052930792+1052693015
3088+1052001509+1051042376+1050231532+1049942784+1050095568+1050199435
3080+1049876086+1049219888+1048574538+1048072214+1047583757+1047100049
3071+1046874341+1047093823+1047677609+1048476256+1049358548+1050057565
3063+1050306833+1050200847+1050126125+1050321983+1050725896+1051150865
3054+1051417530+1051444235+1051385368+1051501240+1051741649+1051697162
3046+1051154396+1050461863+1050163743+1050480415+1051225010+1052016723
3037+1052523284+1052711182+1052909929+1053482674+1054433783+1055407746
3029+1055987167+1055932024+1055297459+1054439496+1053760188+1053355312
3020+1052995629+1052430908+1051605877+1050638206+1049702054+1048916375
3012+1048287203+1047717539+1047001896+1045864494+1044228812+1042440219
3003+1040945509+1039780118+1038721097+1037863199+1037568096+1037843299
2995+1038216848+1038304794+1038133908+1037817107+1037211045+1036035832
2986+1034183365+1031770478+1028933456+1025729497+1022305287+1019011327
2978+1016209676+1014042013+1012442152+1011207110+1009994985+1008433641
2969+1006346221+1003812006+1001086041+998597533+996921216+996507674+997422834
2959+999470003+1002463082+1006176234+1010140771+1013803209+1016870882
2951+1019295389+1020993981+1021803476+1021685294+1020830926+1019520455
2942+1017883747+1015908282+1013770983+1011996513+1011116531+1011306676
2934+1012441831+1014313429+1016740438+1019565841+1022544348+1025290341
2925+1027487213+1029069099+1030093134+1030612854+1030761722+1030757100
2917+1030799982+1031078651+1031743965+1032737443+1033752233+1034496057
2908+1034988110+1035514507+1036259551+1037116358+1037937344+1038708772
2900+1039347445+1039699425+1039933415+1040538642+1041716487+1043055910
2891+1043942760+1044105494+1043722701+1043133008+1042480340+1041548875
2883+1039880647+1037124253+1033437358+1029575403+1026523265+1025037992
2874+1025435357+1027516293+1030610543+1033927356+1037000422+1039737685
2866+1042117640+1044017419+1045355686+1046281503+1047086954+1047886756
2857+1048515864+1048834142+1048954892+1048987695+1048749148+1048013155
2849+1046916709+1045817375+1044755722+1043259343+1040728081+1037026228
2840+1032864420+1029664827+1028832670+1030861673+1035001334+1039755659
2832+1043795305+1046600294+1048380863+1049486809+1050076374+1050359344
2823+1050751574+1051492766+1052355351+1052956149+1053184682+1053198741
2815+1053189882+1053271153+1053474265+1053746579+1053955661+1053958164
2806+1053774696+1053675836+1053909826+1054357648+1054696404+1054876021
2798+1055109368+1055407874+1055514245+1055362873+1055267159+1055521434
2789+1056062403+1056626418+1057026801+1057183243+1057072957+1056778816
2781+1056453413+1056146049+1055804469+1055481120+1055341497+1055406590
2772+1055505642+1055564894+1055711130+1055988836+1056223660+1056277070
2764+1056209345+1056088338+1055867123+1055550964+1055281603+1055189997
2755+1055294057+1055509494+1055655345+1055562968+1055308693+1055223378
2747+1055544095+1056141684+1056683423+1056981222+1057051002+1056941293
2738+1056707239+1056484291+1056350252+1056194644+1055961361+1055831623
2730+1055925797+1056104451+1056296842+1056655370+1057166039+1057506785
2721+1057482968+1057257966+1057068270+1056997720+1057046123+1057164563
2713+1057236525+1057200383+1057162958+1057301105+1057661109+1058064444
2704+1058228783+1058063224+1057810554+1057756117+1057868971+1057921033
2696+1057842972+1057723121+1057579581+1057360356+1057075203+1056819323
2687+1056739529+1056928326+1057243971+1057390913+1057302324+1057227602
2679+1057355734+1057562185+1057619767+1057494074+1057383531+1057510636
2670+1057879307+1058250673+1058384455+1058261008+1058054109+1057956533
2662+1058076256+1058408271+1058804930+1059008941+1058841457+1058384583
2653+1057891375+1057539203+1057358880+1057349443+1057496128+1057672921
2645+1057678313+1057461848+1057225162+1057213479+1057452027+1057729797
2636+1057787701+1057529253+1057140104+1056932820+1057004525+1057168350
2628+1057258672+1057310927+1057430842+1057637934+1057798550+1057706559
2619+1057412097+1057337439+1057771203+1058444092+1058916437+1059115825
2611+1059212952+1059247168+1059138615+1058891144+1058627560+1058476061
2602+1058460140+1058488001+1058446274+1058314739+1058219218+1058318463
2594+1058569464+1058706841+1058578516+1058352165+1058282449+1058485241
2585+1058992315+1059727473+1060382580+1060626135+1060492289+1060332893
2577+1060361973+1060399206+1060119510+1059509917+1058979733+1058898719
2568+1059159670+1059379922+1059366570+1059151774+1058814624+1058509956
2560+1058411673+1058448264+1058354412+1058064508+1057797715+1057730054
2551+1057794634+1057796110+1057591778+1057204748+1056814958+1056589635
2543+1056505796+1056386779+1056105350+1055707920+1055363194+1055232109
2534+1055378922+1055727371+1056088723+1056306600+1056407193+1056563251
2526+1056895779+1057398937+1058043838+1058781756+1059395907+1059586629
2517+1059363553+1059167823+1059440137+1060176900+1060981260+1061471515
2509+1061631681+1061795570+1062230425+1062789433+1063141027+1063245215
2500+1063364874+1063617095+1063755563+1063474134+1062809076+1062115516
2492+1061724378+1061725854+1061964017+1062123669+1061983404+1061675462
2483+1061523898+1061633928+1061846990+1062001828+1062023333+1061873567
2475+1061587258+1061270714+1060987936+1060701756+1060368521+1060092163
2466+1060115080+1060552824+1061195413+1061701717+1061898538+1061838195
2458+1061732081+1061838259+1062179519+1062387702+1062051899+1061228153
2449+1060447930+1060172792+1060348685+1060603410+1060790281+1061067473
2441+1061441793+1061578142+1061226805+1060620357+1060305161+1060612333
2432+1061331378+1061942961+1062175795+1062176180+1062144597+1062097927
2424+1062007092+1061867917+1061661660+1061518570+1061739528+1062346361
2415+1062866017+1062904213+1062639153+1062438737+1062322223+1062126751
2407+1061923574+1061939238+1062201666+1062456968+1062407281+1062004588
2398+1061508234+1061194386+1061084100+1061081147+1061212810+1061499247
2390+1061769828+1061878959+1061946749+1062125595+1062270226+1062074560
2381+1061497835+1060925218+1060878356+1061525888+1062452025+1063031896
2373+1063125235+1063204002+1063675641+1064441099+1065349582+1066521521
2364+1067821272+1068652337+1068674484+1068051795+1066966006+1065734879
2356+1064999208+1064837052+1064419594+1063298304+1062070901+1061475623
2347+1061743829+1062672277+1063741119+1064352510+1064318808+1063963490
2339+1063715249+1063769237+1064039240+1064210575+1063846463+1062749054
2330+1061325023+1060276851+1059826975+1059652108+1059551066+1059672265
2322+1060053710+1060411403+1060534465+1060496397+1060430662+1060402288
2313+1060470141+1060671970+1060928556+1061036788+1060864490+1060572275
2305+1060479899+1060661506+1060860124+1060836372+1060650914+1060575485
2296+1060771343+1061061888+1061134878+1060982608+1060899412+1061067152
2288+1061480181+1062186773+1063159194+1064065367+1064611600+1064951704
2279+1065346180+1065620356+1065419747+1064888793+1064620459+1064886482
2271+1065317678+1065451203+1065252071+1065057432+1065366594+1066594511
2262+1068551230+1070278004+1070843945+1070228574+1069187400+1068453397
2254+1068241362+1068325136+1068405829+1068354088+1068107131+1067507552
2245+1066431071+1065030471+1063728858+1062961539+1062923856+1063501673
2237+1064369201+1065157383+1065577024+1065335524+1063929788+1060809282
2228+1055946981+1050029191+1044042326+1038988853+1035924454+1035753439
2220+1038773031+1044363043+1051050785+1057107237+1061403661+1063789972
2211+1064793913+1065091391+1065080799+1064830376+1064464337+1064353794
2203+1064763164+1065681405+1067012290+1068435166+1069180788+1068627173
2194+1067115836+1065787904+1065722490+1067301616+1069891744+1071971718
2186+1072195436+1070624912+1068454104+1066628727+1065513407+1065534592
2177+1066860534+1068498847+1068764100+1066855206+1063583521+1060738026
2169+1059772281+1060677683+1062140681+1062854655+1062443295+1061599583
2160+1061911634+1064572891+1068666460+1072093752+1073741823+1073502056
2152+1071741708+1069562361+1068235777+1067967379+1068074841+1068267169
2143+1068854871+1069798341+1070446451+1070352598+1069778377+1069199276
2135+1068663314+1067793540+1066315906+1064497333+1063012509+1062350277
2126+1062463067+1063038637+1063841520+1064717585+1065559820+1066255177
2118+1066465479+1065708880+1063979924+1062066921+1060995319+1061173523
2109+1062055687+1062608596+1062316125+1061710512+1061656396+1062284028
2101+1062989849+1063313133+1063379254+1063500518+1063700420+1063775913
2092+1063640270+1063442678+1063376558+1063508799+1063811669+1064199020
2084+1064482055+1064518261+1064491106+1064761751+1065395353+1066181931
2075+1066991106+1067536119+1067024808+1064977381+1062353615+1060936195
2067+1061413868+1062703476+1063326614+1062970975+1062348608+1062072634
2058+1062271445+1062958714+1064062350+1065093060+1065393620+1064966083
2050+1064644981+1065089979+1065800871+1065737640+1064779212+1063884851
2041+1064014589+1065312863+1067084573+1068196683+1067909796+1066877032
2033+1066765012+1068151939+1069526155+1069240489+1067741414+1066884735
2024+1067632090+1069218855+1070137995+1069614616+1068334059+1067560256
2016+1067574636+1067755601+1067890089+1068262482+1068758515+1068743558
2007+1067833341+1066545209+1065877392+1065992557+1065876236+1064751994
1999+1063122090+1061959395+1061705376+1062434436+1064081480+1066085639
1990+1067439185+1067444577+1066197210+1064508503+1063352934+1063138780
1982+1063679814+1064660901+1065577089+1065522459+1063980951+1061726111
1973+1060119895+1059712194+1059943616+1060035351+1060043824+1060949676
1965+1063341251+1066360842+1068570232+1069422609+1069344099+1068672366
1956+1067390590+1065820130+1064652556+1064133991+1063739450+1062818256
1948+1061311349+1059744292+1058694387+1058428172+1058804802+1059299615
1939+1059426977+1059134057+1058673845+1058338556+1058366288+1058834717
1931+1059497784+1059929558+1059898616+1059532770+1059234907+1059458304
1922+1060247193+1061068051+1061407449+1061268082+1060948842+1060582354
1914+1060141657+1059697173+1059354822+1059066074+1058715250+1058316344
1905+1057997489+1057938879+1058322956+1059092972+1059795391+1059935143
1897+1059447391+1058716021+1058177555+1057934771+1057788343+1057614118
1888+1057590238+1057869742+1058235202+1058377650+1058328285+1058340802
1880+1058446339+1058486204+1058466624+1058495319+1058553351+1058684180
1871+1059084563+1059656602+1059837374+1059446749+1059033078+1058950267
1863+1059086874+1059301284+1059657180+1060253035+1060910646+1061196312
1854+1060873092+1060220938+1059790319+1059937710+1060599622+1061407256
1846+1062042014+1062405291+1062429814+1062057741+1061406871+1060631078
1837+1059771960+1058844667+1057920584+1057075717+1056402314+1055996026
1829+1055835026+1055935490+1056441024+1057190240+1057683513+1057804391
1820+1057928159+1058351972+1059051053+1059761303+1060161943+1060088183
1812+1059604604+1058978320+1058590713+1058627560+1058872463+1058975046
1803+1058825986+1058601947+1058529856+1058596811+1058568244+1058338556
1795+1058037868+1057815304+1057757658+1057924115+1058221144+1058490119
1786+1058724751+1058977357+1059176040+1059242803+1059173922+1058872977
1778+1058240466+1057408438+1056702361+1056490967+1056787932+1056931407
1769+1056559848+1056125635+1055989927+1056038459+1056106313+1056168581
1761+1056224559+1056303711+1056358148+1056156320+1055611821+1054918582
1752+1054243446+1053718590+1053435876+1053158812+1052715483+1052319273
1744+1052058643+1051748710+1051320532+1050812045+1050155783+1049368306
1735+1048649646+1048255234+1048155732+1047892341+1047232162+1046420227
1727+1045706189+1044957486+1044040721+1043121710+1042254824+1041269692
1718+1040103980+1038760384+1037218620+1035564386+1033637389+1031242604
1710+1028596498+1025808264+1022283396+1017665035+1012729552+1007629987
1701+1000751073+991017612+980311730+969185693+955620962+940217502+924055903
1691+904336182+878084135+847817799+817330440+781750193+733770479+687457773
1681+659461811+643625807+632470241+624545402+621010712+623028416+631232823
1672+648377886+679441841+721469742+760884469+792914426+823241812+856156308
1662+887959980+912370024+929418602+942072281+952428816+963489181+978025242
1652+989594929+994421153+997121183+1000683797+1004931049+1008258325+1010582752
1642+1012596862+1014634595+1016658269+1018759298+1021791344+1026044693
1633+1029966542+1032934521+1035393885+1037539337+1039301161+1040632688
1625+1041356547+1041225719+1040387271+1039236709+1037895681+1036068828
1616+1032869556+1027272418+1018333366+1003960553+981555053+951935222+922735610
1606+904674745+903575732+916585434+934182942+947108999+953490725+958365865
1596+967358968+981687359+997942618+1012124774+1022799843+1030335982+1035409291
1587+1038768345+1041060995+1042577210+1043427405+1043655938+1043123315
1578+1041159662+1035807684+1025576778+1012958727+1001197291+993230726+993507020
1568+1002388488+1013653186+1023121073+1030141151+1034882253+1038210364
1560+1041752115+1045462891+1047002153+1047089201+1046924798+1046733562
1551+1046642662+1046750830+1046942708+1047105891+1047170920+1046940847
1543+1046353272+1045793623+1045595646+1045468027+1045061097+1044162370
1534+1042514813+1040004799+1036834992+1033104508+1028388571+1022006653
1526+1013905792+1003687918+987778668+962303120+929965091+892797181+847610450
1516+799621170+762490107+742494927+737601170+745434724+768902197+815738219
1506+869737986+903122388+921906920+936661692+950299348+962169274+970773934
1496+974880792+974475338+969659386+958565510+938882702+915696915+902414513
1486+905221042+920395520+941915453+963920891+981546451+993020488+999611103
1476+1002832972+1002453325+996729466+985613315+972543205+959692513+946707589
1466+934242514+926406714+926519119+931506920+936210917+936274983+925947465
1456+904857508+884547067+871913738+868675564+876739576+895277151+917044234
1446+932474720+939826171+945046936+952905590+962983134+972847231+981761183
1436+989848755+996036613+999794700+1001951643+1002939407+1002348302+999766968
1426+994945302+987438050+977475158+966123283+953057282+936563924+918468651
1417+904321674+896251627+893991395+898004913+908205455+922541870+938330178
1407+954251561+969856014+983823310+994872570+1003418685+1010504948+1016515757
1397+1021549329+1025827651+1029143630+1031104714+1031942263+1032149355
1388+1031709428+1030033176+1026913890+1023100017+1019555506+1016835511
1380+1014934769+1013340493+1011155048+1006970772+999225486+987735336+973822285
1370+958851562+944873546+935303910+933030582+939195715+952668775+968588297
1360+981222781+988325863+989913656+986455679+979607000+972718136+969418270
1350+971704244+979030275+988935521+998708333+1006565575+1011852909+1014649873
1340+1015093266+1012978307+1007964634+999699050+987570227+970997332+950585978
1330+929274934+911941267+902896359+903076553+909556561+917774385+924326997
1320+928211613+930414069+932738239+936569188+942271028+949227296+956151789
1310+961515129+963491364+959954299+950494949+939092233+932442302+933854907
1300+939806014+943352837+939501988+926670875+905559413+879112727+853124006
1290+834834865+829363485+836731883+852298847+870310346+887054192+901256569
1281+912893596+922301268+929946411+936422375+942327583+947934607+952884149
1271+956210591+956725368+953458242+945968579+934606819+920553567+905259110
1261+889489997+872631435+852698267+827268490+795256314+758599008+722208174
1251+691662334+670411313+658667787+654304150+654400442+656234550+657739531
1241+657884996+656860063+655712904+655638694+657467153+661569581+667935386
1231+676141141+685220330+693641137+699591346+701540426+698768369+691458195
1221+680281637+665932639+649038899+630285052+610356314+589775036+568929532
1211+548218003+527978530+508302109+489129616+470611877+453316278+438125335
1201+425989226+417690870+413688586+414030423+418341451+425997058+436479671
1191+449597959+465219103+482519485+499334844+512543294+519686594+520561536
1181+517199722+512157740+506865655+501882797+498537160+499220192+505258797
1171+515207086+526376872+537756157+550411601+565200396+581243172+597049710
1162+612249930+627158705+640492078+648126756+644799865+627433458+597039824
1152+557846120+515433340+476185777+447109130+433141032+432947324+438644253
1142+441504673+437959070+429796743+420232596+411605178+406035483+406102085
1132+414186737+431548649+457578711+489307756+522274219+553034341+581195282
1122+608808707+637727275+667621218+696261052+720980900+739459993+749573101
1112+749227220+737072655+714646613+688479175+668091508+658901135+657172050
1102+654522284+648020386+644147261+652339021+676030919+710447893+747418084
1092+780825597+808286046+829896429+846689705+859833190+870351046+879120880
1082+886922657+894339009+901622414+908723892+915450921+921600005+927002120
1072+931543511+935259102+938350527+940974808+943081935+944605083+945669111
1062+946405168+946630234+945767136+942867782+936640829+925824082+910099585
1052+891012952+871864886+856203491+846114071+841855072+842398223+845228248
1043+845717476+838353314+820278647+794306168+768337604+751034173+746612890
1033+752531066+761823316+768072673+768975186+766344230+763647987+763572366
1023+767292579+775245470+787815632+805048834+826141038+849514209+873195899
1013+895134254+913704953+928323247+939409291+947504631+952456804+953529306
1003+950301595+943658211+936144989+931150126+931139919+936257908+944417250
993+952621079+958482956+961258864+961952809+962225958+962786185+962934732
983+961979129+960847376+961742058+966092855+973206594+980988856+987574079
973+992090563+994329161+994271579+992116305+988584632+984982474+982787528
963+983009963+985761027+990253310+995160098+999194993+1001742625+1003155358
953+1004369537+1006087003+1008224110+1010013152+1010544492+1009322931
945+1006464789+1002466998+997926313+993526727+989987993+987635385+986061523
935+984583825+983193559+982823541+984413323+987704266+991069803+992515853
925+990857703+986276960+980259861+975126144+973161015+975552397+981767217
915+989892536+997746824+1003935517+1008137318+1010634108+1011666552+1011197930
905+1009058577+1005005707+998622761+989522517+977869698+964624337+951434889
895+940691195+935368618+937641176+946852348+959189290+969832326+975216851
885+973289405+962926065+944770385+922908743+904425862+895792442+898938048
875+910709691+926006973+941331602+955704223+969107696+980845894+989338664
866+992864366+990457513+982915917+973365604+966038611+963645175+966002212
856+971161735+977029133+981632087+982683340+977648355+964754331+944696433
846+921467893+900148375+882289852+863294312+835529195+795426302+748454765
836+707474779+685772404+689989998+717319939+757883686+800115855+835574774
826+860451128+874225454+878297005+875941315+871937426+870260981+871210228
816+870731400+863203413+846658635+826939749+816023949+823807752+850184081
806+885254621+917087886+939173183+951903061+959125609+964288919+969073609
796+973925254+978703459+982779568+985004878+983924031+977800304+964389512
786+942131340+912667566+880184009+846649583+810785917+774174189+744756507
776+731003943+735215502+754607573+785419821+822985546+860400607+890716373
766+910861961+922417589+928278311+928565839+919030547+893110964+847960696
756+791668022+743095982+718683242+716206224+714847671+695884742+663161161
747+640270221+647898608+686665545+740863225+793050776+832159165+852460425
737+851624032+832446821+805254642+784674969+779148253+782354266+778813477
727+760515541+735654080+719739566+721859725+741512106+773771174+812708549
717+851311468+881757999+897431911+896410252+884307942+871981078+867975199
707+872897972+881533189+888984399+893028025+891849345+882713345+864053608
697+838242450+812330827+795878618+796044689+812744819+838299390+862584319
687+879279954+887835699+890747250+890393666+888402217+886243862+884884346
677+883868978+881389650+875713231+866746384+854917607+837215976+807725561
667+772067960+747649956+738877297+741209107+750266148+761664884+772462051
657+782300471+790948912+796861182+799035265+798848330+799428843+803625894
647+812282039+823726738+835084262+844504902+852030000+858351768+863606106
637+867649218+870645379+873194038+876572478+882674186+892808992+906318259
628+920608967+932543665+939914118+942120619+940022030+935476850+930822861
618+928081875+927884091+928889573+928764714+926064171+921080349+915116210
608+909398578+904501034+900037768+894684891+886909947+876182559+863757606
598+851982367+842532134+835633769+830751118+827290252+824814903+823332968
588+823549112+826759040+834435895+847240303+863664588+879828691+891562523
578+896822382+895524172+888137542+875535091+859378242+841782468+824388265
568+807352975+789358295+769269327+748134498+729513662+717158168+711800861
558+710960809+712343499+716348737+724417885+735748960+746657313+752671203
548+750660303+740248625+724901785+710738310+702003976+697665761+693091887
538+684439658+671114887+655029294+638500886+622710909+607934118+595251680
528+587906006+590535486+605324346+628391436+652958886+675339542+696199553
518+718081930+741335249+762144226+776273420+783003724+784168344+781689850
509+777084007+772378341+770427592+774006705+784308610+799350397+814882567
499+828444152+840683454+853026880+866155214+880120327+894282069+907195351
489+917605617+925179503+929563618+929245597+922552077+910161276+895688126
479+883967517+878872574+881298942+889081012+898894909+907784659+914077347
469+917630139+919254009+920421711+922940134+928069100+935946627+945983280
459+957139489+966984584+972651887+974350544+974771340+976048045+978549264
449+981263930+983235864+984846959+987423350+991242872+994730122+996229261
439+995330535+992032274+986589589+980429527+975311860+971515063+968140859
429+964472003+959971567+953617830+944997763+936111800+929820974+927230268
419+928819858+934911359+943117949+950568902+956188444+960122682+963501635
409+967362755+971595691+976092788+981878595+989603146+998286253+1006873581
399+1015205286+1021254932+1020722951+1014277094+1006559861+999277612+991503823
390+983141947+975529608+969740528+967174344+970596693+979349708+987036962
380+988808736+986552613+987250409+996469028+1009697571
##END=
