##TITLE=X7541
##JCAMP-DX=4.24
##DATA TYPE=INFRARED SPECTRUM
##DATE=29/10/2018
##SAMPLING PROCEDURE=Diamant-ATR
##ORIGIN=ComPlat
##XUNITS=1/CM
##YUNITS=TRANSMITTANCE
##RESOLUTION=4
##FIRSTX=3997.453
##LASTX=373.96442
##DELTAX=-1.4165319
##MAXY=0.84683096
##MINY=0.24655929
##XFACTOR=1
##YFACTOR=7.8867279e-010
##NPOINTS=2559
##FIRSTY=0.80185735
##XYDATA=(X++(Y..Y))
3997+1016717399+1016748234+1016734328+1016345263+1015882739+1015839283
3989+1016282838+1016958713+1017690741+1018375383+1018875468+1019168023
3980+1019300961+1019139531+1018531900+1017704722+1017094220+1016839378
3972+1016770831+1016762518+1016778993+1016740979+1016595646+1016442227
3963+1016485986+1016878376+1017557576+1018262624+1018719026+1018722654
3955+1018172310+1017250511+1016471475+1016352292+1016987583+1017816499
3946+1018010351+1017487442+1017268574+1018238137+1019682468+1020197215
3938+1019543484+1018384830+1017191109+1016341636+1016489538+1017677439
3929+1018712980+1018562962+1017540194+1016715812+1016680367+1016979118
3921+1016950097+1016690041+1016824490+1017573825+1018417101+1018899653
3912+1019233925+1019756381+1020068963+1019247075+1017154001+1015101964
3904+1014706551+1015985900+1017766921+1019529729+1020900071+1020980408
3895+1019531165+1017622420+1016976473+1018290133+1019866646+1019921136
3887+1018902298+1018072172+1017310594+1015901331+1014887782+1015801495
3878+1017589394+1018146690+1017342109+1015955896+1014280606+1013133137
3870+1014272670+1017356620+1019414854+1019202107+1018085323+1017472327
3861+1017178563+1016473364+1015126300+1013170925+1011116621+1010823160
3853+1014163690+1018309707+1019944716+1019921439+1019638407+1019397547
3844+1018838587+1017588336+1015726070+1014085922+1014062720+1016221017
3836+1019027074+1020620742+1020659739+1019765374+1018672774+1017993876
3827+1018056679+1018288697+1017402646+1015340180+1014287634+1015858555
3819+1017762009+1018227481+1018990873+1021194892+1023026701+1022954223
3810+1021293217+1019197573+1018230126+1018986565+1019703705+1019013546
3802+1018187426+1018893229+1020455307+1021942640+1023614908+1025055006
3793+1025248934+1024374294+1023482650+1023145355+1023282978+1023693053
3785+1023979259+1023443955+1021937954+1020451981+1020233794+1021204868
3776+1022059480+1022033785+1021261399+1020149149+1019202636+1018795207
3768+1018837832+1019293932+1020365220+1021566499+1021880743+1021072762
3759+1019919096+1019169610+1018685546+1017925782+1016793202+1016079009
3751+1017002471+1018655165+1018422542+1016505635+1015721687+1017757172
3742+1019837549+1019061385+1015919998+1012066459+1009413216+1009752401
3734+1012960900+1016768186+1019349556+1020305440+1020098060+1019665992
3725+1019712698+1019975022+1019973662+1020065789+1020736525+1021598845
3717+1021700646+1020414269+1018145934+1016666083+1018010125+1021504376
3708+1024280353+1025044123+1024100483+1022217207+1020514709+1019960587
3700+1020356529+1020821094+1020967182+1020841273+1020610313+1020602906
3691+1021316872+1023068721+1024996284+1025315441+1023720034+1021360857
3683+1019285543+1017892680+1016937778+1015958012+1015284329+1016445553
3674+1019369206+1021052129+1020714834+1020514483+1022012623+1023968905
3666+1024886623+1024750738+1023895143+1022429651+1020463318+1018450656
3657+1017340144+1017644488+1017949210+1016416985+1013462119+1011798769
3649+1013943235+1017821487+1019840648+1020109396+1019829463+1019492999
3640+1019380920+1019754492+1020360157+1020542748+1020010089+1018893153
3632+1017222699+1015290375+1014498869+1015781392+1017253156+1017416854
3623+1016738938+1016100624+1016210134+1017374607+1018760215+1019154948
3615+1018793091+1018796114+1019494737+1020336879+1021394715+1023289705
3606+1025346729+1025954888+1024847853+1023160697+1021878627+1021037241
3598+1020310277+1019686700+1019304135+1019135601+1018928296+1018472271
3589+1018133540+1018954596+1021368792+1023966562+1025221198+1024941491
3581+1023885847+1023206647+1023483330+1024114011+1024307107+1024064509
3572+1023477360+1022136266+1020189053+1019209665+1020585222+1022782213
3564+1023403522+1022643002+1021900771+1021788616+1022037034+1022235572
3555+1022159089+1021794889+1021396151+1021132542+1020716648+1019998828
3547+1019577644+1020111361+1021343399+1022668093+1023949331+1024997946
3538+1025273874+1024666849+1023813597+1023178230+1022593424+1021980428
3530+1021616757+1021498027+1021214920+1020804467+1021022201+1022338582
3521+1024080833+1025052134+1024794118+1023876627+1023090109+1022642926
3513+1022257867+1021854292+1021830712+1022496914+1023391883+1023694791
3504+1023308296+1023021939+1023395587+1024022262+1024349430+1024432337
3496+1024530812+1024628305+1024613719+1024508819+1024370893+1024255036
3488+1024270000+1024432639+1024543660+1024397043+1024032616+1023647557
3479+1023311697+1022984454+1022820152+1023168330+1024089978+1025086748
3471+1025559702+1025344537+1024678109+1023886074+1023214204+1022768382
3462+1022495629+1022340849+1022427459+1022926638+1023738248+1024434906
3454+1024599435+1024215207+1023736963+1023764321+1024468689+1025251655
3445+1025287402+1024488943+1023510915+1022870636+1022459655+1021976649
3437+1021488202+1021316872+1021552442+1021945739+1022232247+1022367301
3428+1022482857+1022723490+1022989895+1022868823+1022168310+1021403709
3420+1021264498+1021830712+1022747297+1023618611+1023903230+1023214053
3411+1021980126+1021135868+1021145844+1021823684+1022804205+1023717918
3403+1024166158+1023879877+1022918627+1021713872+1020831901+1020481909
3394+1020390463+1020300830+1020302643+1020532848+1020886921+1021166325
3386+1021301303+1021393959+1021712436+1022556921+1023814277+1024744087
3377+1024661558+1023797953+1022990878+1022671041+1022596901+1022363371
3369+1021815597+1021200258+1020942771+1021054019+1021173051+1021459332
3360+1022590552+1024472845+1025938564+1026193784+1025706244+1025273118
3352+1025085388+1025043897+1025196182+1025470749+1025561062+1025352473
3343+1025055233+1024818983+1024595656+1024343081+1024037982+1023626546
3335+1023189491+1022988837+1023234912+1023883807+1024604423+1024973309
3326+1024926754+1024934009+1025419584+1026126294+1026374410+1025908258
3318+1025167463+1024697608+1024657931+1025006184+1025645934+1026150403
3309+1025953906+1025162248+1024627171+1024921464+1025686896+1026121760
3301+1025806835+1024944363+1023939431+1022965031+1022088048+1021576551
3292+1021697850+1022337751+1023147698+1023912752+1024525748+1024784369
3284+1024528167+1024018559+1023916909+1024585453+1025504910+1025806231
3275+1025360786+1024872944+1024943230+1025568998+1026477269+1027330218
3267+1027663281+1027270060+1026692811+1026734151+1027415090+1027924169
3258+1027641213+1026771637+1025920804+1025393057+1025033769+1024643496
3250+1024394700+1024621805+1025219913+1025580183+1025291030+1024725873
3241+1024658611+1025279845+1025874627+1025731033+1025097178+1024778474
3233+1025054931+1025509368+1025706470+1025632557+1025616384+1026019430
3224+1026851672+1027627987+1027828112+1027527169+1027319638+1027538657
3216+1027906636+1028116737+1028368707+1029022891+1030014523+1030882663
3207+1031231143+1031025879+1030518992+1029971520+1029550184+1029472114
3199+1029938796+1030853037+1031874521+1032676985+1032957599+1032579870
3190+1031884950+1031356221+1030977208+1030518765+1030190539+1030302164
3182+1030644221+1030850619+1030957029+1031111431+1031141132+1030857118
3173+1030473948+1030377891+1030649133+1031000486+1031012729+1030395047
3165+1029301918+1028361527+1028027633+1028034510+1027851767+1027366646
3156+1026763550+1026211166+1025984665+1026332012+1027001161+1027431792
3148+1027434437+1027209297+1026873664+1026429656+1025955342+1025531890
3139+1025219837+1025189682+1025575195+1026223409+1026842829+1027298779
3131+1027577503+1027658973+1027629877+1027702581+1027955004+1028228287
3122+1028414808+1028624304+1028917690+1029098089+1028946560+1028480710
3114+1027795917+1026813128+1025390941+1023606368+1021824062+1020490147
3105+1019857501+1019904132+1020513047+1021575644+1022810025+1023769385
3097+1024276272+1024605708+1024951089+1024937259+1023919479+1021587887
3088+1018136563+1014117060+1010361014+1007876456+1007456028+1009173490
3080+1012267189+1015592150+1018224080+1019788501+1020455004+1020601470
3071+1020284808+1019002285+1015790083+1009156561+997408894+980524410+962188188
3061+948728577+944903152+950504157+960940053+970978193+978238239+983610249
3051+988843123+994301969+999110636+1002727169+1005550835+1007916889+1009124063
3041+1007948556+1003955806+997753066+990001475+980977487+971239610+961690370
3031+952394914+942273187+931134964+921697728+918284343+922990075+933746413
3021+946504756+958473180+968744623+977001969+983055371+987359795+990787464
3012+993656627+995480953+995596962+993719581+990235004+986447594+984233523
3002+984881586+988218942+992988007+997937169+1002445044+1006330023+1009506779
2992+1012018544+1014089928+1015866339+1017330697+1018540214+1019507585
2983+1019895063+1019396564+1018294441+1017149164+1016303394+1016045605
2975+1016585217+1017430004+1017400454+1015608323+1012096311+1007668698
2966+1003593798+1001186101+1000955217+1002029528+1002624083+1000963530
2958+995877197+987597708+978795763+973720615+974736960+979963183+985182227
2948+987417384+985733780+979571776+968282023+952682631+935689469+920173060
2938+906417568+892694046+878532409+866645456+861113377+863816424+872748587
2928+883372365+891109068+892949870+888043181+877820711+865458159+854324244
2918+846100303+839826824+832567005+821320482+805048011+785895721+769191561
2908+761560891+767219106+784975283+808777983+830784699+843427562+840288820
2898+819446351+788725509+764707946+761407850+778426557+801126681+811755749
2888+800904336+773120827+744864817+733748436+745603874+771879115+799442321
2878+820881915+836101462+848084094+859288522+870679319+882168214+893140019
2868+902667720+909704137+913415820+913431388+909936608+903731753+896139550
2859+888505025+881412229+874451614+867180080+860256347+855040855+852012453
2849+850203771+848432726+846701812+846149805+847862204+852034597+858291525
2839+866371796+876122824+887060544+898379619+909363290+919504062+928353923
2829+935632938+941486517+946340076+950436818+953716736+956153530+957952311
2819+959335199+960345497+960951540+961178268+961062712+960593235+959715194
2809+958158860+955065237+949170393+940239742+930574191+924226648+923985410
2799+929368453+937713996+946502565+954341447+960659591+965371747+968786870
2789+971445252+973836549+976134660+978174302+979790492+981102263+982348131
2779+983611231+984858233+986037444+987000659+987555083+987723240+987703212
2769+987455399+986683618+985495565+984755526+985345547+987196627+989386438
2759+991109039+992241090+993044084+993657760+994011304+994089903+994116279
2749+994361977+994857905+995443770+996045505+996703998+997366874+997885400
2740+998270686+998785131+999658788+1000777840+1001771210+1002410128+1002748784
2730+1002834411+1002600126+1002189976+1002023028+1002302735+1002781508
2721+1003178584+1003489578+1003754699+1003880230+1003811229+1003633551
2713+1003458441+1003367977+1003424281+1003620174+1003890735+1004201579
2704+1004512045+1004690782+1004631379+1004441835+1004371096+1004557239
2696+1004939502+1005385626+1005838326+1006364787+1007052452+1007771255
2687+1008125932+1007844639+1007180856+1006679259+1006523421+1006371211
2679+1005895612+1005200541+1004540839+1003934796+1003315754+1002815442
2670+1002606928+1002656732+1002818691+1002977250+1003002341+1002793222
2662+1002428569+1002137375+1002149769+1002603527+1003483910+1004661307
2653+1006031271+1007446203+1008542733+1009007223+1009017048+1009077433
2645+1009478665+1010154540+1010848402+1011231421+1011116848+1010667323
2636+1010192706+1009832889+1009650676+1009796159+1010281205+1010805853
2628+1011083141+1011169147+1011207539+1011049132+1010522519+1009993715
2619+1010147361+1011129016+1012366571+1013321321+1013944066+1014329277
2611+1014457302+1014417247+1014473778+1014755147+1015131590+1015462688
2602+1015773607+1016081503+1016211796+1016009631+1015694328+1015702642
2594+1016163654+1016848221+1017572389+1018236399+1018580420+1018386417
2585+1017869024+1017460537+1017257767+1016971939+1016399602+1015756981
2577+1015467978+1015670900+1016140453+1016756321+1017675928+1018852720
2568+1019858635+1020499141+1021117276+1021954279+1022667111+1022839650
2560+1022619800+1022457463+1022473334+1022456556+1022315229+1022141329
2551+1021932589+1021546320+1020861905+1019855914+1018705952+1017863658
2543+1017734499+1018266931+1019072419+1019820696+1020340280+1020592779
2534+1020741890+1021055455+1021667242+1022478398+1023202566+1023549761
2526+1023527391+1023408737+1023281089+1022979012+1022595540+1022599017
2517+1023226599+1024106756+1024654530+1024645914+1024331896+1024106075
2509+1024137893+1024276726+1024285341+1024155502+1024098896+1024144921
2500+1023956889+1023315552+1022588738+1022392997+1022924371+1023855466
2492+1024689899+1025099596+1025152877+1025285059+1025857622+1026798995
2483+1027736212+1028212340+1027801358+1026522690+1025194066+1024731844
2475+1025014573+1025090905+1024591499+1024204551+1024597545+1025533099
2466+1026319391+1026677091+1026912737+1027397934+1028040783+1028384351
2458+1028233879+1027899305+1027672124+1027460813+1027189874+1027156469
2449+1027640684+1028429394+1028986993+1028932351+1028259651+1027298854
2441+1026488681+1025999629+1025607844+1025125670+1024823820+1025141087
2432+1026078228+1027162138+1027945708+1028301066+1028317315+1028136386
2424+1027840658+1027401486+1026880617+1026611265+1026810936+1027069028
2415+1026726896+1025815149+1025124914+1025300552+1026238298+1027359391
2407+1028197074+1028750818+1029323986+1029970915+1030296950+1030031754
2398+1029497130+1029214174+1029314085+1029597873+1029918390+1030276393
2390+1030682613+1030971389+1030694554+1029430321+1027347903+1025148569
2381+1023320766+1021820434+1020511460+1019401628+1018374249+1017194207
2373+1015783659+1014108217+1012041066+1009545474+1006638221+1003531750
2364+1001339293+1001434746+1003381505+1005128290+1005833262+1006583731
2356+1008136135+1009964920+1011441900+1012420532+1012867337+1012745584
2347+1012103038+1011087298+1010021905+1009359482+1009283301+1009494838
2339+1009630951+1009750134+1010120682+1010700425+1011258175+1011805269
2330+1012328632+1012369367+1011633711+1010730882+1010611548+1011474624
2322+1012696308+1013737744+1014556760+1015141793+1015339273+1015235431
2313+1015256593+1015809279+1017003907+1018699679+1020679540+1022766946
2305+1024757162+1026317955+1027196676+1027588159+1028043428+1028895319
2296+1029855209+1030248052+1029733607+1028827603+1028493331+1029136709
2288+1030262714+1031138865+1031447593+1031266815+1030852810+1030504783
2279+1030316297+1030008703+1029219540+1027953266+1026622677+1025729672
2271+1025634069+1026510220+1028269098+1030488383+1032618414+1034266649
2262+1035139097+1034939350+1033698016+1032026579+1030669463+1029958974
2254+1029867527+1030179202+1030519521+1030905260+1032202747+1034985753
2245+1037989517+1039079397+1037981203+1036663387+1036652882+1037240031
2237+1036856785+1035284202+1033755453+1033337443+1033879171+1034438962
2228+1034423393+1034314715+1035138265+1037009600+1038635615+1038577648
2220+1036516392+1033224155+1030047776+1028378456+1028788984+1030649360
2211+1032827910+1034577266+1035864625+1037142235+1038507741+1039130486
2203+1038165457+1035983657+1033858614+1032769264+1032727395+1032919962
2194+1032551000+1031585141+1030293851+1028521219+1026008320+1022857411
2186+1019469948+1016916088+1016979194+1020333554+1025151895+1028839695
2177+1030503499+1030765142+1030169831+1028980569+1027993472+1028195864
2169+1029574444+1031191617+1032325482+1032946413+1033937742+1036970376
2160+1041898075+1044600442+1041884622+1037174582+1035901960+1039050527
2152+1043723837+1046882607+1047507922+1046387131+1044611022+1042641590
2143+1040756048+1039129050+1037315229+1035174995+1034226518+1036272811
2135+1040712969+1044852034+1046889182+1047238871+1047020306+1046526871
2126+1045400412+1043688921+1042277466+1042147097+1043175383+1043959785
2118+1043341196+1041912359+1041200358+1041540752+1041803152+1041211468
2109+1040355495+1040215227+1040986554+1042068498+1042806195+1042987274
2101+1042662600+1041887948+1040951562+1040410968+1040436664+1040528942
2092+1040308714+1040069516+1040209785+1040617366+1041001669+1041416883
2084+1041914626+1042047791+1041524125+1041071804+1041572645+1042573799
2075+1042940417+1042730921+1042846854+1043133892+1042620278+1041529113
2067+1041415447+1043102225+1045476140+1046596552+1045512492+1042932784
2058+1040686140+1040563556+1042953265+1045906620+1046074096+1041851067
2050+1035815652+1033071340+1036225651+1042767651+1048468416+1051958283
2041+1054385403+1055758088+1054310961+1050028226+1046142946+1045272538
2033+1045969272+1045476820+1044002410+1043491819+1044129528+1044975147
2024+1046549771+1049857349+1053586944+1054927509+1053110513+1050361516
2016+1049355147+1050752621+1052824685+1052903435+1050195400+1047180905
2007+1046531254+1047297745+1046603052+1044229364+1042799242+1044221504
1999+1047824660+1051342642+1052790676+1051763524+1049582253+1048214934
1990+1048541195+1049494509+1049010899+1045851752+1040826333+1036256108
1982+1034221908+1035609254+1040304028+1046819576+1051902055+1052988534
1973+1051006783+1048504465+1045978719+1042089886+1036491678+1030434498
1965+1025136250+1021447391+1020540859+1023097515+1027927495+1032518805
1956+1034832107+1034152907+1030961715+1026578918+1022425646+1019017702
1948+1015884704+1012944273+1011521028+1013317315+1018435919+1025085992
1939+1031393480+1036339997+1039371724+1040578671+1040829885+1040931535
1931+1041107778+1041427766+1041969343+1042529133+1042849348+1043034056
1922+1043188382+1043011610+1042505781+1042589292+1043930839+1045503347
1914+1045722819+1044491764+1043206218+1042948504+1043287613+1043374147
1905+1043275445+1043350719+1043265318+1042518175+1041289084+1040022886
1897+1038699325+1037043307+1035035633+1032909835+1030942141+1029434175
1888+1028811354+1029629010+1032050461+1035045760+1036749770+1036218849
1880+1034054809+1031088002+1027488928+1023231360+1018743437+1015023214
1871+1013375660+1014777971+1018818182+1023625640+1027837710+1031385847
1863+1034438584+1036855047+1038360519+1038848966+1038547342+1037906081
1854+1037291422+1036837514+1036569673+1036559697+1036936442+1037877891
1846+1039635182+1042166445+1044584873+1046035552+1046770981+1047412243
1837+1047931751+1047635796+1046133574+1043918067+1041895354+1040782726
1829+1040676844+1041017238+1041159547+1040724986+1039677126+1038287437
1820+1036950726+1036078958+1035832883+1035787235+1035284807+1034078767
1812+1032265853+1029881131+1026948107+1023616193+1019955901+1016131686
1803+1013114243+1012691169+1015855758+1021278782+1026583529+1030505161
1795+1033088496+1034960284+1036667317+1038114217+1038985380+1039413820
1786+1039641228+1039612887+1039249216+1038858186+1038835060+1039122324
1778+1039327134+1039248913+1039053928+1039113179+1039634350+1040359350
1769+1041024947+1041553222+1041600079+1040841373+1039535119+1038205210
1761+1036877418+1035157915+1033004002+1030682084+1028299252+1025824293
1752+1023370193+1021296693+1020165020+1020332042+1021537024+1023141576
1744+1024615608+1025774413+1026570529+1026755313+1026061224+1024643647
1735+1023093434+1022190227+1022140725+1022606952+1023672799+1025276670
1727+1026841091+1028060130+1029085241+1029843419+1030099319+1030224775
1718+1031368540+1034187067+1037225822+1039083856+1040142371+1041043312
1710+1041815622+1042292808+1042689959+1043261917+1043584853+1043191405
1701+1042523768+1042501170+1043154751+1044123936+1045590032+1046980100
1693+1047349363+1046780806+1045876314+1044854452+1043594451+1042553393
1684+1043148100+1045491179+1047483586+1048278569+1048195511+1047590904
1676+1046767051+1045815022+1044497507+1042932784+1042172415+1043039800
1667+1044314160+1044596512+1044216516+1044353309+1045444549+1046587181
1659+1046903163+1046273012+1045121689+1044766935+1046958636+1049556179
1650+1049744212+1048808431+1048879926+1050740227+1052598562+1053147923
1642+1052844637+1052275097+1051693919+1051598769+1053013852+1055685761
1633+1057477515+1057718148+1057179141+1056629402+1056394059+1056369799
1625+1056553675+1057213075+1058161250+1058739707+1058923206+1059519273
1616+1061002827+1062205995+1061817233+1059564618+1054851328+1045364287
1608+1027317597+998924871+964742427+935679191+922292661+925399964+934914514
1598+939539985+935860951+929547870+929440024+939463427+956452130+974500256
1588+989037807+997789192+1000983936+1001697296+1003939331+1009004502+1015080652
1578+1020596709+1025960330+1031279738+1034937385+1036682583+1038145883
1570+1040843791+1044175176+1046485455+1047479278+1047450560+1046347378
1561+1044416566+1043671161+1046717398+1050288207+1051491073+1051450489
1553+1051142744+1050686795+1049982805+1048921342+1047323516+1045254778
1544+1043239774+1042031844+1043118625+1048196871+1054177494+1057126994
1536+1057631160+1058004052+1059786358+1062082656+1063462747+1064071586
1527+1064715719+1065513650+1065924405+1066182723+1067412191+1069464757
1519+1070887020+1071360502+1071315232+1070645177+1069123456+1066835472
1510+1063790142+1060317505+1058572382+1059792782+1059123028+1051152720
1502+1030013238+987810076+922195999+851084684+808125990+803771761+820374045
1492+841461984+858351532+866318969+867801012+870306655+878840003+894868817
1482+916835251+940155551+960313377+975940506+987754452+996984762+1005371796
1472+1013632618+1020262437+1024471787+1027120495+1029375377+1031741583
1463+1033292173+1032543821+1027483486+1009564822+957077823+864836548+774693561
1453+714890817+688580735+695572865+731089147+781668686+830265719+867703216
1443+894784701+914454157+928185691+937953647+946669663+955019816+959963083
1434+959956281+956574109+950060526+935911813+907589221+865352277+821846339
1424+797300122+802492186+831424600+871272439+907491048+930875588+943844410
1414+951425275+954961622+952572669+942349065+927310975+917090395+921763101
1404+940634097+962340020+978810727+989794170+997278903+1002264645+1005404823
1394+1007073463+1006600962+1001475028+984770943+946085990+887272080+835812082
1384+819946966+841519044+881996506+920741768+948025721+964971346+975832583
1374+983466503+988999263+992895578+995789378+998175838+999953836+1000853945
1364+1000820843+999589787+996412501+990748467+983241741+976198824+972949968
1354+975570486+983032773+992291197+1000651326+1006805017+1010404923+1011040970
1344+1007824385+1000461933+991125212+984963586+986299617+992960271+998483659
1334+999653044+998614632+999352177+1003500839+1009295847+1013934619+1016111809
1324+1016260089+1015252889+1013357220+1010178573+1005561340+1000669313
1316+997666910+998059300+1001662305+1007035146+1012684292+1017828591+1022176396
1306+1025272514+1026066438+1022979995+1014809183+1002037992+986649609+969862315
1296+950984819+929924238+910101364+897075935+894302376+901138517+914441989
1286+930887151+947883941+963552711+976681376+986697750+993476983+997303390
1276+999123408+1000481809+1002811890+1006659609+1011486187+1016150807
1268+1019634477+1021317779+1020401950+1014551394+998736384+967133874+919848310
1258+868504094+831418705+820406694+832186178+853007259+871165423+884339661
1248+896481607+910777541+926624217+941546298+953925628+963558984+970644601
1238+974865439+974856747+968042750+952015296+927859430+902479914+885968925
1228+884934367+898153119+918742937+939680707+957076765+970028128+979340740
1218+986445176+992537197+998182111+1003398434+1007871166+1011289614+1013701619
1208+1015469641+1016955236+1018391178+1019955901+1021859507+1024305067
1200+1027309208+1030596684+1033557898+1034981823+1032565284+1021593706
1191+992890136+935408931+848693312+754985713+690702981+678563529+710584956
1181+760627302+808108910+846975245+878711751+903961957+920133307+923578131
1171+914234911+899042647+889044713+891379479+904623472+922155944+938308022
1162+950737384+959127667+963560647+963845945+959675215+951605751+942003759
1152+934342556+930669870+929339054+925698942+916216964+902841242+892921756
1142+893681293+906291357+925533960+944695999+960006690+971125415+979278390
1132+985718589+991127026+995590463+998962583+1001264927+1002796926+1004024505
1122+1005349501+1006832829+1008154953+1008908823+1008855618+1007927394
1113+1006215298+1004098569+1002290265+1001515234+1001916391+1002734878
1105+1002796472+1001626028+1000176710+1000191976+1002534526+1006180307
1096+1008908974+1008768176+1005045762+998774701+992765360+990297203+992753873
1086+998494012+1004379636+1008258190+1009694888+1008680584+1004322349+994816717
1077+978391734+955140662+929399666+909689248+903831739+913107017+931819908
1067+952316013+969750992+982941856+992456935+998849295+1002449730+1003829519
1057+1003589717+1001739468+997487493+989383566+976109115+958525328+941316169
1047+931261554+932603252+944017100+960231529+976099668+988926710+997787529
1037+1001212931+994910960+972534527+932095760+882699210+841296775+820520209
1027+821561644+838380831+864179037+892947678+919388506+940369884+955646189
1017+966441902+973682978+977231568+976213788+970502669+962476208+956802046
1007+957328054+963795158+972199348+978729709+982931653+986948889+992497897
997+999187572+1005434448+1010214548+1013566338+1015871100+1017305153+1017896005
987+1017468321+1015393687+1010990485+1004771875+999131268+996967682+999245388
977+1004299374+1009592105+1013579186+1015952647+1017030510+1017403552
969+1017799192+1018826949+1020643264+1022884089+1025033165+1026818570
960+1028221107+1029333130+1030307833+1031253967+1032173877+1033067184
952+1033844935+1033965252+1032222321+1026977279+1017231391+1004497383+993393396
942+988871917+992240788+1000509243+1009541771+1017057793+1022818565+1027229249
932+1030585347+1033231637+1035603662+1037878949+1039898941+1041586627
924+1043239698+1045212682+1047348532+1048996842+1049686699+1049458913
915+1048408484+1045940705+1039757841+1025284530+998489478+962053739+927654468
905+909013373+911921987+931373255+956864321+979286326+994580466+1003504543
895+1008685269+1011019204+1007781835+994374673+969919148+942241596+925112322
885+927730799+947128182+972121127+993343440+1008117770+1017958960+1024741971
875+1029558649+1033205790+1036332667+1039125573+1041337982+1042820630
867+1043854734+1044917029+1046278453+1047841589+1049299524+1050415855
858+1050882763+1049676194+1045136350+1036713040+1026843132+1020100780
850+1019510759+1024015838+1030278811+1036196101+1041590405+1046570856
841+1050883896+1054429766+1057375714+1059996761+1062546465+1064911461
833+1066718632+1068090561+1069722697+1071898829+1073741823+1073690356
824+1070800258+1065362800+1058129659+1049086702+1035798723+1012254945+973795133
815+927908025+895660475+894214935+917947728+941109545+939484059+910597671
805+875993211+862691855+880114137+916118489+953084166+981976903+1002584860
795+1017800704+1030047776+1040166556+1047847635+1052931701+1056053287
786+1058240151+1060138390+1061394084+1060599101+1055479061+1043284741
778+1022992465+998910511+980694455+977059029+988884841+1009230323+1029560614
768+1044870852+1053815032+1056200509+1050601469+1033910082+1005450848+972926993
758+950036115+943260737+941330604+919791553+857059638+749718603+618307216
748+499800600+428749782+418815484+458895454+525392333+597310345+661567722
738+708537908+726618683+705699504+650504168+588231716+554448993+567345791
728+618080450+684757804+749963771+805829541+850123434+881145824+893004889
718+874563466+818897594+738660566+668146451+640968985+663228124+712972247
708+762519873+795373995+804967296+785633700+730571075+639621618+527033879
698+418984056+342176963+312625583+329910581+379087017+440404415+499669098
688+551332319+595319034+633361327+667025434+696894082+722859840+744705730
679+762030066+774197481+780115602+777698988+765804401+747653719+732141844
669+733486868+757487502+788008748+813070391+833815972+852178040+867579574
659+879337142+887777456+894101420+900021203+906434346+912741758+918105077
649+922805519+927891776+933687540+939207829+943433579+946563630+949350415
639+951935866+954178581+956463013+959374574+962863761+966209732+968661565
629+969838660+969501440+966790080+959778905+947416806+933428239+926144537
619+931240090+945585678+960966126+972600505+980906144+986868023+989943281
609+989992254+988383319+986702058+985190843+981009002+965471734+926043114
599+860285368+789609294+748508255+755194227+797886138+850096227+893437712
589+924177599+945160412+959019669+967768712+973739358+978840503+983496280
579+987065503+989137189+990035862+990634725+992067719+994932272+998402339
569+1000678458+1000882286+1000161292+1000255460+1001483719+1002958356
561+1004322954+1005979577+1007678750+1008553843+1008872320+1010192253
552+1013137067+1016024746+1016469208+1014180619+1011435929+1010591596
544+1012010533+1014652364+1017538909+1020053772+1021834415+1022936161
535+1023562458+1023788581+1024007978+1024962275+1026830133+1028919655
527+1030517178+1031551661+1032252702+1032469605+1031674169+1029622737
518+1026942590+1024916325+1024032616+1022330647+1015498587+997724952+959998150
509+890113280+785752807+671380192+589736470+571656338+613425656+682792831
499+750805233+807139120+850583465+882327679+905806235+924549281+940203919
489+953266531+963515301+970343733+974285923+977186979+980386635+983957218
479+987053713+988015492+984241232+970316450+937070543+881643189+821253824
469+784477238+788425020+826148572+874235240+913600527+939180395+954666498
459+965398425+974587546+982030184+986526873+988596065+989564570+990144237
449+990738793+992213052+995422004+1000041882+1004349859+1006606781+1006824893
439+1006451851+1006648575+1007830053+1009771219+1010919897+1008544925
431+1000638478+986902712+967092837+940905037+912642981+892626859+888462930
421+900657855+927339392+960971795+988081016+1002871821+1007348861+1006398570
411+1004892645+1003439321+999555098+994034884+991940223+996402374+1004514085
401+1009708491+1006852554+998829267+996698934+1003701191+1012527925+1018734444
391+1023163569+1025710098+1023549081+1016718684+1012005772+1016497851
382+1027438821+1036556749+1040215453+1039335297+1035427948+1029438181
374+1022823553
##END=
