##TITLE=JMB-143
##JCAMP-DX=4.24
##DATA TYPE=INFRARED SPECTRUM
##DATE=4/12/2018
##SAMPLING PROCEDURE=Diamant-ATR
##ORIGIN=Angelika Moesle
##XUNITS=1/CM
##YUNITS=TRANSMITTANCE
##RESOLUTION=4
##FIRSTX=3997.453
##LASTX=373.96442
##DELTAX=-1.4165319
##MAXY=1.0038469
##MINY=0.42519844
##XFACTOR=1
##YFACTOR=9.3490527e-010
##NPOINTS=2559
##FIRSTY=0.99970865
##XYDATA=(X++(Y..Y))
3997+1069315459+1070030022+1070385136+1070407067+1070176530+1069684216
3989+1069043353+1068507304+1068283652+1068424869+1068745555+1068882245
3980+1068643037+1068229333+1067995162+1068072879+1068293470+1068464524
3972+1068641699+1068969398+1069320942+1069381700+1069099458+1068814920
3963+1068895506+1069322599+1069680773+1069627092+1069191073+1068496975
3955+1067606768+1066783248+1066455166+1066785479+1067479513+1067930323
3946+1067605748+1066651276+1065931102+1066065752+1066628133+1066864344
3938+1066613915+1066091955+1065576052+1065470410+1066059058+1066958637
3929+1067315919+1066841137+1066215129+1066314459+1066949775+1066866639
3921+1065512871+1063921871+1063622224+1064904396+1066382486+1066686914
3912+1065809075+1064462766+1062992263+1061428806+1060291676+1060543890
3904+1062369061+1064533598+1065928807+1066631703+1066771389+1066005121
3895+1064407364+1063000551+1063226881+1065098401+1066269193+1065376053
3887+1063986774+1063941380+1064378483+1063648045+1062832813+1063356494
3878+1063616422+1061989847+1059754606+1058573422+1058262873+1058620154
3870+1060647746+1063322194+1063962483+1062766827+1062075853+1062607503
3861+1062861885+1061883887+1059767740+1056774710+1054171221+1055555846
3853+1062892615+1069180426+1069627092+1067022201+1063939149+1061454435
3844+1060168247+1060048006+1060035573+1059641123+1060258460+1062681969
3836+1064761521+1064780329+1063785882+1063142406+1062626949+1061622046
3827+1060477585+1059417152+1057778018+1055977711+1056449943+1059607078
3819+1061520613+1061146181+1061494983+1063223055+1063679476+1061930747
3810+1059281737+1057384014+1057633996+1059403509+1059811412+1058332174
3802+1057795359+1059362132+1060255974+1059649921+1059650495+1060860496
3793+1061689308+1061314238+1060407646+1059772840+1059720434+1060212110
3785+1060797443+1060762377+1060070830+1059668601+1060291740+1061284210
3776+1061460747+1060495181+1058761435+1057142957+1056872318+1058132494
3768+1059419448+1059823971+1059783423+1059281992+1057974064+1056702539
3759+1056893357+1058195038+1058482125+1056796705+1054228983+1053213306
3751+1055972292+1060282368+1061439580+1059747784+1059158563+1061744200
3742+1063815146+1062137376+1058113623+1054448618+1053418214+1055939395
3734+1060363592+1063639310+1064115813+1062194883+1059509724+1057912030
3725+1058165137+1059351549+1060367672+1061060431+1061374869+1060937384
3717+1059547276+1057437886+1055575802+1055737547+1058598095+1061497597
3708+1062087073+1061179588+1059901433+1058616329+1057863513+1058133833
3700+1058887669+1059310363+1059240042+1058569788+1057053382+1055030571
3691+1053889106+1055416287+1059211926+1061850288+1061694025+1060127444
3683+1058662041+1057648086+1056513953+1054939529+1054292164+1056804738
3674+1060621479+1061144013+1059352696+1059462928+1062146174+1063585437
3666+1062308494+1060022822+1058194145+1057060458+1056231392+1055656961
3657+1055993650+1057233935+1057489400+1055563051+1053132210+1053418341
3649+1057676138+1061965621+1062756753+1061002733+1058632842+1056952266
3640+1056544172+1057153731+1058062555+1058666568+1058497299+1057139195
3632+1054917916+1053769757+1056219214+1060707230+1062311681+1060434678
3623+1057171519+1054136538+1052789337+1054222543+1057103620+1058731725
3615+1058590508+1057787645+1057102983+1056839867+1057338238+1058499530
3606+1059259678+1058646230+1056942895+1055349345+1054816355+1055026363
3598+1054961397+1054448299+1054230066+1054608005+1054778357+1054047218
3589+1053170208+1053904662+1056359602+1057996505+1057534347+1056125941
3581+1055006791+1054498474+1054550817+1055028531+1055407808+1054976188
3572+1053472851+1051257948+1049186748+1048593510+1050267263+1052559246
3564+1053111681+1051973786+1050728018+1050424992+1050839207+1051172198
3555+1051078160+1050950140+1051375193+1052211528+1052647291+1052463869
3547+1052392017+1052913467+1053465647+1053433323+1052994053+1052545794
3538+1052141971+1051650550+1051083642+1050605418+1050294359+1050099142
3530+1050067137+1050351228+1050885301+1051376468+1051727502+1052042641
3521+1052248760+1052154722+1051811403+1051453037+1051192918+1051016955
3513+1051009623+1051361294+1052005727+1052321504+1051603690+1049991141
3504+1048528161+1048135241+1048624813+1049104695+1049160991+1049058473
3496+1049108903+1049289839+1049410144+1049438324+1049554357+1049871920
3488+1050207525+1050282437+1050117694+1050032390+1050220531+1050397960
3479+1050042910+1049051077+1047942319+1047312677+1047239359+1047403081
3471+1047625266+1047966418+1048408047+1048757742+1048927903+1049060513
3462+1049240302+1049334340+1049308137+1049310814+1049245147+1048775721
3454+1047962019+1047322878+1047153928+1047316311+1047624629+1047985736
3445+1048356661+1048839348+1049497552+1050033984+1050019384+1049360607
3437+1048306486+1047276337+1046796072+1047171524+1048078818+1048810913
3428+1048963925+1048649168+1048195680+1047929058+1048063708+1048439351
3420+1048486465+1047844519+1046915485+1046448800+1046699739+1047277867
3411+1047716117+1047858928+1047727146+1047364637+1046910512+1046591802
3403+1046507901+1046521353+1046442998+1046288712+1046296108+1046661231
3394+1047246882+1047655422+1047729442+1047811111+1048252167+1048836606
3386+1048997842+1048457457+1047409712+1046258556+1045421010+1045205009
3377+1045616291+1046283229+1046692853+1046609398+1046292027+1046192124
3369+1046441851+1046765725+1046837832+1046536463+1045939145+1045292353
3360+1044909251+1044933222+1045264046+1045809149+1046627250+1047646242
3352+1048403776+1048355131+1047435469+1046173890+1045264875+1045088593
3343+1045565542+1046342521+1047028841+1047281501+1046898972+1046065443
3335+1045362866+1045238161+1045500257+1045532708+1044977277+1044144576
3326+1043734123+1044121561+1044974727+1045645554+1045808384+1045602265
3318+1045326143+1045199080+1045292162+1045505549+1045630572+1045510968
3309+1045132392+1044581424+1044074000+1044015792+1044717859+1045875326
3301+1046682270+1046731425+1046434838+1046319187+1046381603+1046402769
3292+1046374462+1046279786+1045880809+1045080623+1044246074+1043929404
3284+1044353819+1045230957+1046020241+1046364963+1046263975+1045816098
3275+1045073802+1044314546+1044049773+1044406226+1044861881+1044918686
3267+1044663540+1044451492+1044449451+1044693568+1045146673+1045562035
3258+1045676921+1045606217+1045720083+1046100699+1046422406+1046430821
3250+1046275451+1046241661+1046372039+1046536144+1046727663+1047038850
3241+1047379938+1047449048+1047039934+1046298913+1045592319+1045108420
3233+1044685663+1044120923+1043590930+1043583024+1044353437+1045543993
3224+1046406021+1046386002+1045513646+1044354648+1043636132+1043751401
3216+1044468450+1045172494+1045440774+1045301661+1044994937+1044748142
3207+1044753370+1045035421+1045322190+1045322381+1045122510+1045029492
3199+1045055631+1044920599+1044569310+1044286430+1044239953+1044306513
3190+1044396726+1044592772+1044906318+1045188178+1045333156+1045421966
3182+1045641346+1046054732+1046439237+1046531299+1046427761+1046409910
3173+1046433435+1046221642+1045789704+1045485466+1045581417+1046061681
3165+1046661932+1047008631+1046883225+1046400219+1045874689+1045553365
3156+1045446703+1045318684+1044926656+1044331951+1043849200+1043701800
3148+1043899184+1044352480+1044845496+1045012852+1044654487+1044001192
3139+1043437217+1043102887+1042966580+1043061893+1043428547+1043967338
3131+1044479862+1044772879+1044765802+1044595003+1044465326+1044367144
3122+1044184104+1044035811+1044113464+1044240145+1044046011+1043608781
3114+1043469987+1043859210+1044328062+1044417255+1044310530+1044454871
3105+1044863220+1045211958+1045356618+1045384925+1045350370+1045192385
3097+1044818910+1044206928+1043484906+1042827531+1042273821+1041812555
3088+1041547463+1041544339+1041612812+1041496332+1041197896+1040905453
3080+1040656873+1040268607+1039558188+1038516180+1037296424+1036141635
3071+1035291529+1034857040+1034759496+1034825800+1034963064+1035161533
3063+1035269597+1034956179+1034070115+1032854695+1031607079+1030347667
3054+1029053637+1027946026+1027305355+1027204303+1027568216+1028322434
3046+1029361381+1030472945+1031437045+1032229962+1033033463+1033908051
3037+1034526854+1034472472+1033811462+1033098047+1032722723+1032541723
3029+1032285110+1031996110+1031876697+1032006821+1032351415+1032748926
3020+1032884405+1032595213+1032148866+1031938093+1032001274+1032034745
3012+1031821231+1031504242+1031369465+1031408291+1031357032+1031214477
3003+1031342305+1031897354+1032550011+1032937194+1033069166+1033129733
2995+1033138659+1033013062+1032811278+1032657310+1032480136+1032110167
2986+1031615303+1031288305+1031331467+1031716737+1032255911+1032715710
2978+1032944781+1032919789+1032701365+1032454060+1032383356+1032515201
2969+1032708569+1032896263+1033044557+1032997059+1032725910+1032537962
2961+1032689698+1033031678+1033289630+1033421985+1033513027+1033551216
2952+1033478663+1033298109+1033026578+1032686064+1032410325+1032395406
2944+1032664515+1033053546+1033471650+1033964346+1034461123+1034679802
2935+1034423827+1033872795+1033428169+1033288100+1033345670+1033495940
2927+1033767727+1034092876+1034261125+1034214647+1034124881+1034119780
2918+1034163516+1034206104+1034235113+1034172059+1033933234+1033616500
2910+1033444171+1033521888+1033817009+1034303968+1034920476+1035480115
2901+1035837206+1036048553+1036279791+1036672202+1037279721+1037988291
2893+1038529951+1038655357+1038275697+1037556161+1036918932+1036726903
2884+1036882656+1037000220+1036981348+1037125179+1037615389+1038181595
2876+1038418380+1038278439+1038051025+1037938945+1037909681+1037950038
2867+1038175092+1038587585+1038933965+1038960168+1038742254+1038611430
2859+1038740278+1038983949+1039127715+1039060709+1038718091+1038141812
2850+1037575160+1037274939+1037286160+1037506624+1037822656+1038116119
2842+1038290424+1038317074+1038189118+1037897249+1037497634+1037122820
2833+1036867227+1036714790+1036648995+1036775548+1037206084+1037845671
2825+1038441842+1038810153+1038879518+1038616912+1038078440+1037521989
2816+1037324158+1037652877+1038210922+1038490933+1038356666+1038116884
2808+1037992562+1037871046+1037633878+1037376564+1037251987+1037320715
2799+1037532572+1037737735+1037798684+1037744365+1037737735+1037894699
2791+1038195302+1038540726+1038835081+1039012957+1039041264+1038922361
2782+1038703619+1038453892+1038209711+1037935374+1037596135+1037288710
2774+1037228143+1037534931+1038087557+1038608306+1038871294+1038843752
2765+1038649045+1038396385+1038114589+1037872448+1037784467+1037863905
2757+1038020168+1038160811+1038167952+1037920966+1037493426+1037142903
2748+1037018454+1037041214+1037107073+1037241659+1037514720+1037853577
2740+1038027755+1037880545+1037523519+1037204809+1037058619+1037041597
2731+1037007424+1036846188+1036682657+1036829357+1037362920+1037903624
2723+1038039103+1037825780+1037651474+1037717843+1037887176+1037975795
2714+1037977771+1037990586+1038073403+1038231451+1038451788+1038717836
2706+1038983949+1039127843+1038993894+1038580317+1038108596+1037785232
2697+1037579304+1037367830+1037187212+1037145070+1037171656+1037072135
2689+1036805768+1036520274+1036315047+1036170133+1036105039+1036207621
2680+1036456711+1036669779+1036697767+1036584093+1036462193+1036366243
2672+1036246001+1036147181+1036225408+1036539910+1036959863+1037323775
2663+1037549148+1037569231+1037337737+1036953296+1036637136+1036519891
2655+1036576251+1036765283+1037068501+1037365407+1037467096+1037338757
2646+1037156036+1037095469+1037179689+1037329768+1037488262+1037679526
2638+1037943599+1038212261+1038341364+1038314460+1038278375+1038330972
2629+1038392878+1038303622+1037959155+1037410290+1036913131+1036798563
2621+1037182813+1037839997+1038406586+1038673144+1038684684+1038633616
2612+1038698264+1038903936+1039106676+1039177572+1039167562+1039225260
2604+1039473202+1040013396+1040773098+1041331526+1041307108+1040920180
2595+1040687794+1040627737+1040284099+1039491628+1038668108+1038329761
2587+1038536518+1038835017+1038769286+1038491889+1038651978+1039527649
2578+1040545685+1040902456+1040452603+1039735298+1039292904+1039250571
2570+1039499151+1039974187+1040619258+1041226649+1041553328+1041676821
2561+1042028238+1042823705+1043604510+1043672281+1042960906+1042175065
2553+1041993555+1042349051+1042629955+1042471397+1042068339+1041686576
2544+1041297034+1040912338+1040815941+1041107874+1041454126+1041643031
2536+1041968499+1042703655+1043551083+1043938138+1043623636+1042792019
2527+1041764994+1040831115+1040255728+1040228186+1040647055+1041052089
2519+1041045904+1040807780+1040833282+1041188588+1041515012+1041722406
2510+1042049850+1042487463+1042760588+1042851694+1042970214+1043072859
2502+1042860109+1042232444+1041460310+1040899779+1040686901+1040770420
2493+1041127574+1041771433+1042537000+1043042894+1043002410+1042533175
2485+1042041435+1041807391+1041853039+1042240987+1043106266+1044168739
2476+1044673103+1044248114+1043465652+1043106713+1043135466+1042828615
2468+1041790942+1040456301+1039626278+1039781138+1040773417+1041924891
2459+1042508757+1042382459+1042030023+1041880135+1041860244+1041715520
2451+1041407521+1041071916+1040845715+1040840423+1041136436+1041646729
2442+1042000568+1041806180+1041172075+1040714826+1040865479+1041443543
2434+1041987371+1042212744+1042193044+1042264831+1042564160+1042686888
2425+1042269485+1041740640+1041829323+1042479366+1042926733+1042724312
2417+1042113860+1041486322+1041003380+1040780685+1041008034+1041672996
2408+1042371748+1042637542+1042396676+1041953389+1041610708+1041463817
2400+1041474336+1041586481+1041777554+1042047428+1042315963+1042357212
2391+1042010450+1041465347+1041113676+1041069175+1041067071+1040876126
2383+1040565130+1040303289+1040101059+1039843362+1039480407+1039096348
2374+1038819398+1038798869+1039298514+1040524199+1042129926+1043239323
2366+1043313023+1042741589+1042279622+1042197634+1042252590+1042292947
2357+1042590554+1043479040+1044709124+1045332965+1044520857+1042429446
2349+1039999370+1038226925+1037681694+1038233555+1039205433+1039953276
2340+1040149449+1039866059+1039566922+1039596568+1039706162+1039430487
2332+1038809643+1038365081+1038388352+1038606648+1038589052+1038196960
2323+1037673789+1037473407+1037874170+1038719940+1039672053+1040572398
2315+1041353521+1041840161+1041911503+1041709209+1041494993+1041366208
2306+1041176793+1040754099+1040230035+1040015947+1040251138+1040503288
2298+1040328409+1039916999+1039813780+1040155952+1040551805+1040640998
2289+1040488943+1040418239+1040644186+1041055850+1041263372+1040960091
2281+1040291240+1039731792+1039668292+1040268479+1041446412+1042655265
2272+1043110155+1042591766+1041697542+1041120370+1041121263+1041729865
2264+1042799160+1043693320+1043595520+1042438244+1041046542+1040216583
2255+1040150469+1040763981+1041768309+1042486634+1042487782+1042296199
2247+1042611338+1043215223+1043543305+1043714104+1044083563+1044471000
2238+1044540684+1044233068+1043483376+1042393488+1041722916+1042216888
2230+1043526856+1044664241+1045214062+1045312053+1044927357+1044041230
2221+1043192782+1043117934+1043893000+1044885534+1045625216+1046392250
2213+1047526192+1048432019+1048110440+1046691833+1045525376+1045627001
2204+1046752145+1047980508+1048674287+1048834949+1048860068+1049115023
2196+1049706285+1050423335+1050865537+1050964676+1051003503+1050543640
2187+1048536959+1045666083+1044698350+1046741116+1049221239+1049463634
2179+1048088253+1047258549+1047839801+1049256176+1050468409+1050599234
2170+1049378713+1047095018+1044208777+1041429198+1039809445+1040211865
2162+1042739740+1046525943+1049974182+1052108309+1053402530+1054228281
2153+1054042373+1053045886+1052848501+1054271443+1055739843+1055133216
2145+1052457940+1049619578+1048242476+1048452484+1049283145+1049878231
2136+1050358432+1051267957+1052244616+1052120868+1050459547+1048086086
2128+1046037773+1044758471+1044309255+1044602845+1045283937+1045883296
2119+1046148452+1046007745+1045441411+1044678841+1044222166+1044271831
2111+1044335139+1043880504+1043255899+1043314234+1044077825+1044454743
2102+1043578179+1041962379+1041045331+1041766779+1043703011+1045617119
2094+1046845673+1047736455+1048592553+1049002241+1048677028+1048179231
2085+1048164568+1048418503+1048226601+1047467410+1046958009+1047627052
2077+1049329686+1050737518+1050692762+1049339249+1047575346+1046021006
2068+1045058245+1045174662+1046497636+1048392108+1050086901+1051308442
2060+1051919340+1051571940+1050238892+1048549583+1047118671+1046032099
2051+1045361718+1045562354+1046859508+1048763416+1050613834+1051964095
2043+1052231802+1050852149+1048090548+1045345716+1044519900+1046725049
2034+1050960404+1054562165+1055699486+1054872651+1053634661+1052805020
2026+1052236073+1051593999+1050881604+1050193881+1049421046+1048821178
2017+1049469819+1051899703+1054656522+1055793269+1055432991+1055391550
2009+1056528871+1057689654+1057330332+1055246572+1052466228+1050148615
2000+1048850951+1048521786+1048842663+1049408997+1049775268+1049527644
1992+1048285766+1045952724+1043253221+1041533628+1041440738+1042008537
1983+1041548802+1039409320+1036737486+1035663091+1037386000+1040691364
1975+1043116786+1043648756+1043191315+1042644427+1041749311+1040077534
1966+1038241907+1037297763+1037528236+1038668363+1040592927+1043000944
1958+1044924679+1045333475+1044257167+1042972955+1042872605+1044213814
1949+1046015650+1046985424+1046536399+1045245876+1044488151+1045253207
1941+1047056702+1048476520+1048543845+1047331676+1045786133+1045053591
1932+1045600607+1046932189+1048164504+1048809511+1049056433+1049367684
1924+1049851391+1050120436+1049811544+1048973679+1047919367+1046931360
1915+1046095854+1045470165+1045288528+1045644917+1046057792+1045883168
1907+1045110461+1044210754+1043473111+1042926159+1042578505+1042444428
1898+1042500086+1042665785+1042687908+1042241561+1041394069+1040645333
1890+1040237622+1039735298+1038768266+1037748445+1037344240+1037724601
1881+1038553859+1039421944+1040157928+1040966275+1042142741+1043544453
1873+1044741321+1045652121+1046485332+1047142834+1047352332+1047349655
1864+1047609774+1048202374+1048766540+1048967495+1048867719+1048775976
1856+1048841516+1048917766+1048768198+1048326824+1047716436+1047059443
1847+1046478637+1046287564+1046657214+1046933846+1046404618+1045384542
1839+1044593537+1044318945+1044330102+1044287706+1044152099+1044272978
1830+1044910908+1045550177+1045498791+1044927739+1044331441+1043657044
1822+1042569707+1041097801+1039512348+1037838722+1035797742+1033369833
1813+1031201216+1030178845+1030564943+1031781766+1033174489+1034473045
1805+1035650723+1036892793+1038499859+1040464907+1042283575+1043433711
1796+1043887007+1044179386+1045029620+1046366620+1047067285+1046738055
1788+1046224575+1046216669+1046537292+1046698591+1046732509+1046850519
1779+1046741944+1045970257+1044677885+1043513340+1043294853+1044327234
1771+1045589960+1045956932+1045490503+1044665707+1043783916+1043212482
1762+1043239769+1043463484+1043359564+1043289179+1043697464+1044148593
1754+1044160387+1044183212+1045059521+1046696041+1047942893+1048233040
1745+1047962338+1047610858+1047384720+1047373626+1047437700+1047168846
1737+1046659318+1046925622+1048725801+1050590882+1051019505+1050563914
1728+1049888496+1049171638+1048680535+1048583946+1048438331+1047729952
1720+1046785999+1046743156+1048194405+1049744793+1050161940+1049818621
1711+1049260639+1048650060+1048249999+1048539318+1049262042+1049242979
1703+1048291185+1047813024+1048835268+1050164299+1050884791+1051360657
1694+1051027602+1049420855+1047367697+1045745075+1044475145+1043279233
1686+1043211398+1045894644+1049465292+1050692061+1049966341+1048643493
1677+1047534543+1047082650+1047000789+1046469967+1045451931+1044742532
1669+1044578363+1044140432+1043234541+1042673882+1043146751+1044252768
1660+1045054165+1045240903+1044826561+1044060547+1044477567+1048167692
1652+1051765372+1051792404+1050433982+1050414728+1052286248+1053782763
1643+1053849196+1053282671+1052649268+1052096068+1052130495+1053610625
1635+1055743923+1056465499+1055782686+1054841156+1054392195+1054404117
1626+1054439628+1054586838+1055259196+1055990654+1055860594+1055046255
1618+1054782055+1055910641+1057333520+1057884233+1057975403+1058337402
1609+1059048777+1059657189+1059897353+1059940515+1060015746+1060128528
1601+1060161361+1060077651+1059829582+1058917634+1055489286+1045136409
1592+1021926048+984482760+942803798+914934624+912267253+930192792+954960043
1582+975975837+990287375+999489670+1005916722+1010632661+1012866244+1012744855
1572+1012662612+1015140057+1020573491+1025422932+1026300644+1023582142
1564+1019112615+1014285234+1009581217+1004837227+1000209844+996775886+995144402
1554+995451063+997506452+1000880034+1004887657+1008332390+1010475824+1011852990
1544+1013326617+1015455324+1019615640+1026240778+1031035453+1032159067
1536+1031938476+1032572262+1034517419+1036290693+1037080806+1037700566
1527+1038897816+1040227421+1041005038+1041591454+1042524058+1043461062
1519+1044210690+1045201502+1046370509+1047094827+1047141495+1046761581
1510+1046324988+1046684055+1049428059+1053423059+1055079152+1054723783
1502+1054012599+1053704536+1053934436+1054507081+1054542018+1053096188
1493+1050288493+1046744303+1043091667+1039327650+1032474015+1017535642
1485+992788473+962657472+936478818+922896954+924111800+936970941+956875044
1475+979287769+1000402065+1016714608+1026162423+1030347795+1032315266
1466+1034216560+1036388110+1037439872+1036432675+1033568557+1028330403
1458+1017919381+1000188677+977656859+951563063+921433209+889266837+860491771
1448+842253070+839306007+850413358+868359298+880789624+875960903+852494695
1438+820742283+795544687+783746107+783073877+794156683+818099776+847407322
1428+871154178+887188177+899216912+908991152+916198689+921696197+927538172
1418+934051611+939458970+943586962+947865351+953061235+958720361+963878566
1408+967993616+971428212+974825447+977919847+980032807+981440448+982849810
1398+984268544+985415556+986508759+987597116+988196474+988227331+988341134
1388+989353304+991444396+993878488+996001776+997761917+999060729+999457921
1378+998657480+997024275+995617781+995562570+996940628+998944121+1001152585
1368+1003517695+1005730495+1007591623+1009462952+1011676135+1013840034
1360+1015324882+1016074702+1016500392+1016971667+1017503764+1017966177
1351+1018486416+1019298014+1020331032+1021304376+1022052729+1022545489
1343+1022793177+1022871786+1022755115+1021794331+1018739905+1013040486
1334+1005946368+999988105+997246205+997989968+1000979109+1004775895+1008518171
1324+1011789299+1014324507+1016039509+1017058565+1017470612+1017189007
1316+1016114931+1014223073+1011489461+1007987158+1004118392+1000724026
1307+998885084+999290564+1001663835+1005008026+1008402902+1011436672+1014061518
1298+1016261057+1017881894+1018752401+1018876659+1018391294+1017403351
1289+1016059528+1014772001+1014190940+1014785135+1016436191+1018539078
1281+1020512797+1022115145+1023319599+1024135724+1024596862+1024752934
1272+1024640725+1024293453+1023758933+1023187245+1022928145+1023387498
1264+1024690008+1026536728+1028334038+1029430810+1029437313+1028470026
1255+1027065509+1025847666+1025238553+1025355990+1026051681+1027018777
1247+1027957056+1028750292+1029455738+1030076008+1030433099+1030287419
1238+1029432659+1027703503+1025154015+1022301117+1019980509+1018849627
1230+1019062504+1020368137+1022379217+1024722841+1027048678+1029068556
1221+1030672561+1031962511+1033105251+1034146239+1035003931+1035623882
1213+1036090248+1036546222+1037034966+1037479273+1037843886+1038248091
1204+1038826092+1039507949+1040025829+1040138101+1039780309+1039017675
1196+1037943344+1036599330+1034841038+1032249216+1028448286+1023681599
1187+1018820172+1014529351+1010507383+1005511752+997965167+987252203+975535420
1177+967813190+968487333+977413316+990108734+1001735368+1010098077+1015382835
1167+1018540289+1020261539+1020631445+1018870283+1013252917+1002455669
1159+988481522+977598077+976026905+984118083+996130433+1005694218+1010055935
1149+1009402322+1004206884+994148681+979098864+961119325+945462690+938351805
1139+942548333+955225709+970558087+984017096+994155311+1001465940+1006809225
1129+1010866131+1014174810+1017127165+1019901389+1022456552+1024642255
1120+1026388562+1027768852+1028859249+1029625517+1029982799+1029889207
1112+1029350288+1028255173+1026135009+1022105645+1014766008+1001696923
1103+979859330+948566143+912726670+881340019+861363872+853687291+855283774
1094+863641001+877980909+897348452+919301378+940740567+959340822+974116430
1084+985160218+993087100+998566629+1002092139+1003850814+1003736246+1001879708
1074+999326777+997758219+998309634+1000917267+1004752178+1008900253+1012688496
1064+1015799473+1018247081+1020194852+1021795032+1023141150+1024248634
1055+1025069412+1025559814+1025735458+1025662268+1025406611+1024991568
1047+1024407000+1023631105+1022553012+1020895708+1018384727+1015050354
1038+1011179549+1007040527+1002898382+998760762+993329496+984392675+972463716
1028+963256830+963406972+973401867+987122143+998115883+1003685880+1003297614
1018+996776587+985908635+975855150+972436365+977502190+987825740+998594681
1009+1007000298+1012575905+1015682738+1016187420+1012818301+1004400380
1000+992922039+984152511+983062368+989063475+997251305+1003654449+1007862581
990+1011276201+1014653800+1017767836+1020365460+1022586739+1024528644
982+1025952798+1026611512+1026542529+1025833895+1024220645+1021099341
973+1016277761+1011069827+1008200162+1009651794+1014601202+1020233169
965+1024426191+1026944120+1028460909+1029495011+1030297620+1031062932
956+1031944724+1032948988+1033905246+1034652451+1035228794+1035759616
948+1036272587+1036801560+1037504711+1038468236+1039479068+1040157355
939+1040294810+1039996756+1039555765+1039250125+1039225133+1039453693
931+1039766921+1039954933+1039890350+1039575975+1039079007+1038451341
922+1037810670+1037445610+1037605252+1038167442+1038799442+1039450633
914+1040379349+1041650937+1042883125+1043579135+1043630075+1043452582
905+1043618472+1044321942+1045264301+1046037199+1046488201+1046708154
897+1046834899+1046908026+1046848224+1046631457+1046501398+1046793458
888+1047497757+1048275373+1048916045+1049426402+1049744155+1049757097
880+1049527963+1049246868+1049076962+1049067399+1049079130+1048961247
871+1048876326+1049099467+1049520631+1049723562+1049378904+1048229406
863+1046056198+1043094791+1040263442+1038595682+1038359088+1038771773
854+1038310125+1034786783+1025711486+1010607414+993851074+983315985+984342882
844+995440479+1010415066+1023634930+1032811724+1038380191+1041775577+1044155861
834+1046000796+1047526893+1049095196+1050930695+1052799601+1054384927
826+1055747493+1057115032+1058454966+1059504050+1060163465+1060742741
817+1061612164+1062653216+1063514988+1064314728+1065378731+1066490741
809+1067194530+1067569471+1068048907+1068759709+1069407712+1069627092
800+1069442267+1068951292+1068182218+1066573048+1062904728+1055180522
792+1039649803+1009201239+955463387+879187595+800640604+752169084+753455655
782+795935759+853720189+905541000+944222342+971547943+991021574+1005278920
772+1016190927+1025021086+1032416891+1038598551+1043596732+1047374200
764+1049907750+1051290080+1051699641+1050885110+1047373626+1037863013
755+1015983022+971895406+899472888+809454761+728833828+677342438+649631311
745+631103673+624320615+644550250+691327296+740126260+767997028+778455739
735+793585122+826339439+868984541+906987468+934505354+954106112+969249202
725+981509622+991619211+1000148257+1007536603+1013911440+1019085647+1022973411
715+1025429626+1025553311+1021904627+1013783356+1002489969+991275509+982832278
705+975880269+964252934+939238442+893979333+828338788+749985484+669959383
696+599750365+552834525+541276811+565531537+611897875+664260985+715097231
686+763055462+805994153+840597295+865661516+882896144+895169506+904905238
676+913597623+921731262+928851137+934614055+940281215+948496587+959146944
666+968330050+974960607+980232104+984616773+988268644+991908849+996065212
656+1000328683+1004024290+1006960005+1009291197+1011137024+1012564174
647+1013816381+1015322778+1017286616+1019394921+1021162394+1022460696
639+1023545610+1024708114+1026014066+1027283551+1028317143+1029193515
630+1030207471+1031447245+1032634040+1033552937+1034297975+1034443973
622+1032385205+1027119765+1021102337+1019278951+1023737384+1031123052
613+1037003854+1040422957+1042825937+1045045558+1046785871+1047641014
605+1047639994+1047288004+1047213474+1047688957+1048741867+1050428307
596+1052563135+1054603032+1056115549+1057077672+1057733262+1058434692
588+1059532676+1061197185+1063254104+1065248544+1066762273+1067589172
579+1067808105+1068024170+1068869303+1069627092+1068154102+1060796359
571+1039277667+992536578+923518053+862035019+843166675+868796273+902754663
561+909127714+888821255+872988912+886137435+923918114+965342375+996427403
551+1016619932+1030041071+1039542823+1046982236+1053128448+1057422330
543+1059676762+1060858392+1062020003+1063635804+1065601426+1067420923
534+1068779728+1069627092+1069928779+1068212948+1063298031+1054019485
526+1039434950+1017790023+983214934+924121109+828485424+698532538+564860072
516+474273317+454803766+499572156+579823629+665928745+740613155+798531023
506+839437979+863811608+869144820+847143441+790558939+707536875+626933475
496+585130447+599973443+657482772+726979203+785764582+829077323+862095203
486+889365147+911644688+928207915+939778317+948704746+956971632+965009703
476+972338502+978547130+983358445+986680896+989063220+991066075+992068427
466+990376950+984406828+973327210+956417030+931758736+897420431+858795385
456+831615846+827486132+844449484+871552263+894472412+903133685+896047218
446+878700891+861245799+854990311+866120040+890788153+919176418+942650022
436+954832406+952167203+936572155+913815792+888949657+865372388+847652076
426+842830560+855807200+882233541+911777744+939621417+966917691+990700824
416+1005880318+1014650931+1021293729+1026984222+1030126885+1029382931
408+1025462906+1019108089+1009787337+998491526+989191494+985245586+985106282
398+981980833+973661413+970233193+979374667+997068138+1014282620+1025700393
388+1031965890+1035964779+1039474031+1042262664+1043910979+1046450203
380+1052568809+1061862402+1069627092+1073741823+1069627092
##END=
