##TITLE=X9718
##JCAMP-DX=4.24
##DATA TYPE=INFRARED SPECTRUM
##DATE=19/11/2018
##SAMPLING PROCEDURE=Instrument type and / or accessory
##ORIGIN=Default
##XUNITS=1/CM
##YUNITS=TRANSMITTANCE
##RESOLUTION=4
##FIRSTX=3996.5625
##LASTX=399.65625
##DELTAX=-2.0390625
##MAXY=1.0551223
##MINY=0.36546385
##XFACTOR=1
##YFACTOR=9.8265918e-010
##NPOINTS=1765
##FIRSTY=0.89494538
##XYDATA=(X++(Y..Y))
3997+910738335+911411561+911599900+911312570+911029244+910936682+910930616
3982+911091417+911131086+911075403+911472339+912121727+912301453+911735042
3968+910759019+910230822+910885912+911967357+912150115+912212288+912958059
3954+913680174+914102283+914432436+914396103+914224566+914487269+913653910
3939+911808255+911452929+912728838+914612101+915967166+915849978+915473362
3925+915577206+915124102+915131502+916522476+916768438+914862430+913330975
3911+913159075+914248829+918005042+923513135+926292355+924961855+920729064
3897+916009686+915353565+918725883+920152766+918913858+920068333+921937098
3882+922924040+923071678+920002642+918684940+921410964+925302198+928331322
3868+927402125+925981672+926284469+923859120+920291245+921088271+928225234
3854+937627413+934901692+924411882+919078055+919396441+922995372+928170764
3840+933690504+935127820+930934152+926951327+924134622+921727773+921492486
3825+923296713+927978969+933671033+933149933+930543403+927597379+921826521
3811+918743049+921476837+926279738+928236759+930792762+932221283+928659716
3797+924702124+920286089+916768560+916295803+917245987+918674265+919781549
3782+920329277+922104631+922781194+920420565+918899240+920844675+924790076
3768+926389102+925329433+923468492+923117958+925664863+926863921+926579988
3754+931390289+941156346+944683884+941231439+940929915+938533074+931443667
3740+929405124+933744003+939235052+938753743+932149829+926033109+924246290
3725+925571392+926927610+926403053+924173078+922084129+922721568+927668832
3711+932341686+929751472+924650262+923169031+924733422+924669612+921983500
3697+920192618+920794148+925164569+932801947+935856668+929938597+923900670
3683+922428052+925105550+931535864+940119120+942840473+940632638+940261905
3668+935098098+926798290+922466447+921251801+921940737+925096087+927694914
3654+928357101+933837656+943797450+943970018+933354588+925794001+923674178
3640+923429854+923372898+924243318+926434776+931248656+938183814+937639423
3625+930152533+927117040+929956006+934289001+935157299+934645297+935014938
3611+934501602+933112994+930412446+927232591+926500710+927610662+928179378
3597+927860264+927206690+926136771+926701119+930886597+933350039+929584546
3583+925599415+924270068+923582223+922487434+921525059+921707877+924209532
3568+928460581+929974385+926612075+923299443+921711335+920143425+919024071
3554+919225268+918891536+917428320+917139656+917105628+915026445+912442904
3540+910972894+910224999+909520717+908783134+908555248+908493864+907381120
3526+905224419+902789000+900695139+899130869+897346659+894958431+892697158
3511+890777259+888239210+885519919+884069562+882697088+879426855+875258905
3497+871570688+867915286+863940407+860360886+857498931+854626726+851685796
3483+849090184+846128086+842757284+840510750+839284640+837356856+835080661
3468+833925580+833608892+833290264+832917226+832479651+832187226+832427425
3454+832703291+832669202+833360019+835408206+837703022+839354274+840709158
3440+841935995+842954357+843966410+845281807+846829821+848346233+850019684
3426+851926724+854040663+856412028+858205215+858967425+859813340+861266063
3411+862556832+863613286+865155295+866930771+867855600+868182539+869113737
3397+870642765+872444809+874274390+875474843+876208543+877160850+878372281
3383+879559025+880536868+881234054+881741749+882151180+882662635+883675295
3369+885175997+886471013+887377827+888185953+888607334+888937366+889598825
3354+890200537+890844466+891491307+891746549+891898494+892389144+893403017
3340+894367637+894717686+894943146+895309996+895656345+896047761+896467928
3326+896797596+897026453+897021783+896852005+897140851+897893052+898523152
3311+898950841+899314415+899901995+900958449+901668372+901522251+901470935
3297+901600558+901618270+902058636+902619587+903054130+903533013+903602707
3283+903260847+903172107+903571348+904190165+904730978+904841676+904551071
3269+904186101+904101971+904462755+904865818+905386796+906113400+906480554
3254+906324485+906261644+906834484+907487330+907908407+908566227+909173337
3240+909184741+908794416+908473665+908461412+908760509+909215554+909656830
3226+909666657+909155444+908909482+908989002+908962981+909081261+909570152
3212+910219601+910486611+910341642+910182419+910050491+910052310+910403511
3197+910881848+911290855+911570542+911479072+911502122+912017095+912429741
3183+912536921+912782095+913216820+913466846+913505666+913323514+912845177
3169+912313887+911847014+911512130+911425694+911292493+911240571+911706595
3154+912315282+912687470+912771419+912990146+913661917+914115324+914248040
3140+914311002+914005778+913931717+914609735+914884509+914488665+914742087
3126+915619969+916257044+916421241+916188926+916119111+916021636+915117369
3112+913752295+912486091+911510128+911016870+911027727+911145461+910823012
3097+909912073+908295699+905950537+903170954+900462582+898568826+897578488
3083+897256341+897734496+898333782+897717816+895303991+891437505+886285343
3069+879998057+874011020+869570966+866727693+865535551+865909741+867738533
3055+871412314+876727217+881976428+885684905+888047353+888986498+887701733
3040+884372299+880143996+876499088+874471827+873629672+872921569+872218803
3026+871806581+871969565+873363876+876038584+879042657+882107386+885453804
3012+888171578+889467807+890011289+890720545+891668363+892860324+894262337
2997+895397341+896138685+896658996+897202054+898009573+899056504+900149049
2983+901161163+901871571+901880488+901197374+899617031+896027016+891988447
2969+891997606+895909767+899720996+902029399+902889872+902579736+901956248
2955+901403121+900970398+900910166+901137385+901340463+901444610+901569563
2940+901991914+902595142+903087370+903292631+903186361+902843955+902277424
2926+902009019+902184316+902347543+902911830+904281999+905647983+906271956
2912+906920798+908422956+909916440+910661726+911061937+911650063+912702392
2898+913706985+914193086+914400773+914657108+915169776+915730485+915982027
2883+915864353+915576539+915391536+915449463+915692817+915897957+915961950
2869+915899534+915710771+915352898+914992599+915139933+915653572+915940781
2855+916013204+916185651+916518837+916751576+917021861+917572076+918010380
2840+918190287+918382568+918598566+918892871+919338029+919684438+919954966
2826+920180850+920335949+920775102+921291895+921344848+921234696+921451846
2812+921706118+921655531+921545075+921600212+921743179+921980286+922125922
2798+921753855+921178468+921056063+921312154+921646614+922087890+922539781
2783+922844398+922848826+922615480+922650054+922799209+922690148+922635921
2769+922954853+923394127+923421544+923260440+923360827+923468977+923631779
2755+924059165+924222331+924204255+924528282+924866745+924994367+925046228
2741+925074312+924997399+924665669+924424499+924810577+925443649+925666562
2726+925533421+925323671+925374015+925725762+926061799+926184022+926178806
2712+926252382+926332752+926347491+926251775+926153330+926208042+926212349
2698+926228423+926430530+926551297+926535769+926775301+927203172+927473579
2683+927599805+927457687+926979896+926639188+926808117+927149370+927423355
2669+927874821+928240701+928245069+928216985+928281644+928324650+928359831
2655+928500978+928769626+928959481+929059260+929238440+929322328+929352413
2641+929594675+929843609+929841608+929363453+928620653+928333627+928534279
2626+929027598+929623123+929512546+928837682+928792493+929333974+929622759
2612+929727634+930143010+930879561+931509236+931683442+931664881+931611321
2598+931247928+931054009+931428806+931509115+930930088+930573428+930694680
2583+930928268+931469021+932069338+932152316+931975199+931941474+932056358
2569+932193502+932591894+933303819+933679950+933416519+932849198+932807588
2555+933608375+934315144+934245814+933767780+933466985+933361503+933405115
2541+933559486+933899223+934818411+935271333+934495112+933700209+933202765
2526+932844285+933040448+933577380+934008708+934197835+934317510+934675504
2512+935318463+935815300+935456942+934210027+933145384+933186812+934183702
2498+935465494+936469480+936991733+937078168+936814737+936280657+935929395
2484+936214420+936265311+935530336+935392585+936090984+936295093+936049920
2469+935948623+935947410+936455893+937655982+938419404+938110117+937505008
2455+937382239+937515805+937233631+936805699+936760692+937093393+937677939
2441+938328056+939023846+939736499+940181475+939963657+939033126+938297667
2426+938299972+938508327+939090507+939878496+940076660+940107292+940378730
2412+940641130+940683892+940604311+940561609+940152845+939558957+939573818
2398+939911554+940252746+940819945+941247755+941282693+940899466+939818507
2384+938299547+936634466+934167264+931192609+929359510+928592933+927732582
2369+926978683+926621780+926481663+925806739+924044001+923447930+924936015
2355+926130887+926440417+927616122+929359510+929480156+928077657+927695703
2341+928619986+930235450+931829684+931898166+930987954+930410565+930547346
2327+931077483+930993050+930200209+930294590+931980598+933547718+933818853
2312+933654898+934007191+935196786+937142949+938800933+939488353+940031471
2298+940870169+941574694+941854502+942157845+942940253+943747409+944358523
2284+945079485+945787892+945323021+943656363+942313732+941902238+942733899
2269+944323645+945074815+944697896+944258257+944133730+943889163+942928607
2255+941417290+941456231+943758327+945556670+945613687+945687688+947179898
2241+949362561+949792554+948504272+947776151+947466379+947038265+947848454
2227+949207644+949534764+949454273+948588402+946777988+945642620+945656147
2212+946046714+947001629+949021247+950901052+952215841+953431579+953091296
2198+950376130+947534132+945977262+945789773+948413347+952325084+953340837
2184+952297364+952290206+953259800+953011776+950773552+949909258+951906675
2170+953897057+952951786+950413434+948813923+946727461+945813247+946981491
2155+946715391+945415280+944856876+946726370+951053906+954221690+953688035
2141+950765363+948244237+947409665+947820188+949207401+950106634+949625870
2127+949299903+949744757+950224186+950461838+950954975+951917533+952908053
2112+953740867+953712115+952383071+951391702+951169396+950473666+950194828
2098+951355672+952953242+954279860+954720590+953460634+952456162+953993743
2084+956121694+956871954+957096990+956328593+954623297+954441874+955486863
2070+955592709+954676068+954254506+955905211+958677030+959558975+958357189
2055+957665523+958312181+958945617+958995355+960103610+962302771+962469030
2041+960682394+960399007+961896676+963430678+963343940+959831747+957029782
2027+960321852+964851435+962910610+957295215+955606842+957544392+957758388
2013+955973389+956375602+959260060+961160246+961758925+961864953+960789331
1998+959327753+959012036+959569712+960449534+961677039+962243995+961511022
1984+959345343+956031134+954671398+956913079+959758414+961595517+962001490
1970+961083819+959766420+956200062+950471240+946559322+945695391+945689750
1955+946382083+948953615+950714472+949423217+948861599+951696561+954677342
1941+954715798+953651459+954333177+956447783+958237271+958419907+957088376
1927+956851270+958780207+959873661+959318836+959506568+959626607+958790094
1913+958596600+958373020+957038092+955875307+955993709+956538101+956456760
1898+956561453+957120828+957345620+958482687+960548586+960420601+958489177
1884+957117127+956117509+955341106+955118375+955681813+957414647+960892447
1870+965030554+965296532+961167100+958097397+957630463+958106556+959166043
1856+960570786+961463892+961638704+962076401+964643141+969508336+971089893
1841+967336955+964526559+964149276+963745728+964042520+967159171+969425176
1827+968115603+965734654+962432819+959357232+957702826+956475988+955524895
1813+956128245+957376495+956869952+955523500+955676779+957566956+959418556
1798+959350863+958777781+960822450+962956405+959072632+953258284+950799088
1784+950524860+950779921+950111365+947499497+946029791+947842327+947821583
1770+940715009+931374458+923731559+918732070+913819866+907073713+900517961
1756+893614344+888358157+887025838+885228465+878922011+871797665+867238057
1741+864844977+862428969+862708656+871618000+883512311+885353660+882495890
1727+880926950+882481576+886630843+893973067+907207886+920637108+923700200
1713+923176917+926312371+934088046+944631173+952950634+959689933+968380065
1699+972009385+968734905+961238553+954626209+953277269+955842007+963593905
1684+971920402+965422152+954696267+951110862+953011533+954144596+954737089
1670+956254896+952142386+947207315+948119285+949261022+946947402+947869441
1656+957636772+973053283+972629536+967458450+970084269+966582207+957001941
1641+953528023+957750320+967563689+972478805+964603350+958832614+960291524
1627+963990598+967359095+968904319+966988484+968137682+972745936+970940072
1613+966462471+966009306+966442940+963742331+957700400+947672611+933579866
1599+921696716+919997122+928872742+941023084+950023170+954378791+955044010
1584+954230000+955457324+961382066+971925254+980869052+980317806+980143418
1570+984432802+984465556+981671355+982410394+989523154+1005467073+1009496119
1556+994612779+984474109+980372275+979086176+979388548+984135403+994893679
1542+1007899095+1007893150+994097623+988211943+988747540+986428521+985340465
1527+989143566+994737974+1001717047+1006194890+1004206450+1000521083+995551074
1513+991785398+993969517+1003298968+1007708209+988509888+968703910+957667221
1499+946829243+923348332+887484158+854512752+830741964+827236990+848181793
1484+876953647+903124795+924029383+940238977+955310110+969053170+974889294
1470+971225460+969303984+973062442+975516664+975158002+980033387+987327390
1456+979069495+958452177+928077839+866806001+764821717+675341220+663088793
1442+716402137+782426956+836179756+874959626+896240770+910557518+921782485
1427+928912290+935402958+942138495+949402837+957067389+959049340+957377101
1413+957778586+959535865+961414882+963836288+965516473+965103402+965431857
1399+966845820+966695149+963493640+957227826+951975642+948993769+943942965
1385+935479385+927140514+920588280+916354518+915017589+914450208+911670019
1370+908617906+905954055+903763507+906083436+910812700+912032320+910704610
1356+908268889+905064225+902196569+899853652+897241662+893799407+889911084
1342+885885920+880135808+871635955+862764399+855639446+851370625+850514641
1327+852299701+855410529+859154793+864351476+872051634+881989045+892844371
1313+902556383+909023940+911971967+912373937+911278239+910014582+909719367
1299+911039434+914418910+920003309+926889032+933628452+939408226+943629068
1285+945654145+945268794+942554538+938187211+934008162+932502486+935025492
1270+940496707+946786237+952869112+958641364+963657655+967324036+969815864
1256+971755295+973391685+974473008+975036022+975350040+974843316+972568031
1242+968258934+962045042+953881590+944330803+935016697+927626918+923407957
1228+922848583+925368556+928473683+925132603+911108218+896886337+893789702
1213+896001662+893182713+884319831+874405772+869212850+871536417+879755977
1199+889773637+898252442+905082483+912347855+920965563+928646675+930999782
1185+926138044+918290673+914397680+918536211+929139084+939355698+942531610
1170+936599043+921568064+897333132+866066356+833885182+806802914+787545938
1156+779790098+784823736+793645918+798837020+807383033+828134584+857382713
1142+885247147+906939299+922996282+935003292+944405956+952317016+959106417
1128+965035527+970418911+975328689+979520294+982691051+985086254+987348862
1113+989825527+992106514+993779662+995301897+997150039+999007098+1000642457
1099+1002299289+1003797686+1004584158+1004710869+1005013969+1005265451
1087+1003711675+999358056+992334582+984525667+981152985+986066887+996171893
1073+1005673427+1012398714+1016903428+1019691563+1021308301+1022583786
1060+1023850657+1024976926+1025620734+1025413168+1024585813+1022936442
1048+1019444570+1013578482+1004782808+992745651+977143167+955885619+925492902
1034+886752641+856575679+858540767+888713483+917063168+923786575+906923407
1020+868397687+814095521+757115372+709731077+679136313+673314808+694345015
1005+721631150+730962482+738317929+773604835+824731089+863756557+886309121
991+900784243+913965502+927656579+940053975+950209022+959064746+966983146
977+973384164+978143332+981613792+984686892+988608940+993760009+999452984
962+1004885196+1009672387+1013594677+1016560597+1018745808+1020316932
950+1021280156+1020757055+1016541733+1005929579+989982445+975208104+965321462
936+956496430+946091599+940409543+947218839+964250693+981366617+991300571
922+991821003+981290614+959976353+935409326+921688164+927744774+948104121
907+968344156+977654319+972859182+954173347+925952618+896892220+872822274
893+853509069+839641179+838626639+857994131+892608660+927106789+952465200
879+969880403+982458615+992102935+1000225808+1007279550+1013187794+1018346809
865+1023680940+1028801317+1031787314+1032399581+1032069973+1031868715
852+1031842997+1031624270+1030922959+1029674164+1028746362+1028810780
840+1029871419+1032264559+1036183696+1041286604+1046717300+1050827504
828+1053398126+1056014846+1058708964+1060215792+1060801977+1061685256
816+1062412527+1062132173+1061896947+1062918160+1063820849+1063061916
803+1061846117+1061892216+1063116264+1064144391+1065254041+1066825893
791+1067998504+1069223401+1070935248+1072669053+1073741823+1073494345
779+1071527376+1066934468+1058052054+1040659659+1007115352+950960010+869407678
765+766957431+658830466+561409247+488284405+460475564+496638076+586709853
750+694690757+789157338+859530681+909073679+943731031+968750069+988133393
736+1003175472+1014025460+1022414311+1030345631+1036951243+1040597182
724+1042669936+1044219102+1044487568+1042959267+1036517670+1019161426+983857960
710+924623816+841827663+741510401+633135714+530503255+446107227+388988356
695+371913133+405406669+480586158+570695814+649595517+707984959+749914174
681+781773989+807995178+830646733+851047690+869206966+883869396+901549303
667+925387178+941703164+953260346+964160315+972334928+976840006+978719447
653+978337068+976045406+969508943+948357907+891039477+774078744+621738362
638+523977103+545042370+652265979+767029248+845883398+889012883+909620497
624+918378565+920907515+922200893+929698762+943141936+953362613+957004003
610+956673122+953987253+950896624+948144943+944705599+940786038+936379466
595+931780977+926947687+918454324+902809988+880720536+857734278+843371492
581+845925129+863980743+885732035+902568090+914543255+922886129+928215468
567+932267988+936195252+940742790+944701171+945366694+944792095+946249792
553+948351235+950024080+951768803+954107535+955991707+955529384+954809998
538+954103228+952067294+951988380+953857388+954472262+954998033+954826678
524+951153504+944799071+935019973+922258274+910763326+902017571+897022996
510+897692825+903241558+911034763+917735242+920099692+919871260+922678563
495+929265432+936068602+939975182+940367205+941258613+944018907+943613964
481+941425054+941578576+942788126+947907836+956016212+957401121+953763977
467+953600629+956508440+957842943+957472210+955857232+947209377+931099259
453+914266055+898468318+885136934+882574380+895750908+919083817+943026203
438+962040250+976207723+984390282+987705037+990426996+994718745+1000725192
424+1006703374+1014970306+1030384573+1038365267+1030752393+1027084011
412+1029363239+1024835839+1012480115+1009521474+1022121098+1033068500
400+1028802773
##END=
