##TITLE=DMK c 11
##JCAMP-DX=4.24
##DATA TYPE=INFRARED SPECTRUM
##DATE=11/1/2018
##SAMPLING PROCEDURE=Diamant-ATR
##ORIGIN=Rieke
##XUNITS=1/CM
##YUNITS=TRANSMITTANCE
##RESOLUTION=4
##FIRSTX=3997.453
##LASTX=373.96442
##DELTAX=-1.4165319
##MAXY=0.94339353
##MINY=0.74655598
##XFACTOR=1
##YFACTOR=8.7860369e-010
##NPOINTS=2559
##FIRSTY=0.93030959
##XYDATA=(X++(Y..Y))
3997+1058850086+1058646294+1058188644+1057746123+1057656438+1058022300
3989+1058598399+1059079658+1059349797+1059428153+1059388941+1059336229
3980+1059263776+1059004423+1058528320+1058176094+1058320594+1058853343
3972+1059268660+1059270967+1059070499+1059041667+1059259705+1059487920
3963+1059489480+1059192069+1058702398+1058349697+1058517059+1059204551
3955+1059934851+1060269575+1060173106+1059799306+1059262351+1058714067
3946+1058363808+1058329209+1058536529+1058711353+1058588969+1058259877
3938+1058074062+1058232537+1058642224+1059073348+1059311875+1059303666
3929+1059239421+1059295050+1059401084+1059397896+1059264997+1059073213
3921+1058854225+1058683607+1058742153+1059151500+1059822508+1060496975
3912+1060840382+1060596496+1059882750+1059225717+1059073620+1059330938
3904+1059459088+1059212285+1058997028+1059095804+1059157538+1058802123
3895+1058145159+1057578015+1057478222+1058009343+1058838282+1059366893
3887+1059312824+1058887805+1058546230+1058399424+1058194207+1057784113
3878+1057238271+1056711696+1056500306+1056932108+1057802498+1058311503
3870+1058027863+1057575776+1057765661+1058572688+1059420826+1059861244
3861+1060009136+1060192644+1060458442+1060638829+1060514817+1059874066
3853+1058962158+1058651043+1059024843+1059508679+1059783025+1059864433
3844+1059903305+1059990616+1060098753+1060123108+1059973316+1059788791
3836+1059887024+1060215235+1060352000+1060098210+1059638254+1059108557
3827+1058492772+1058005272+1057987227+1058394200+1058809043+1058859245
3819+1058562037+1058171142+1057932548+1057982207+1058211574+1058481171
3810+1058759316+1058980543+1059059713+1059073213+1059177890+1059427406
3802+1059863687+1060441685+1060911004+1061084674+1060902863+1060407426
3793+1059902627+1059864094+1060502131+1061447212+1062030638+1061981047
3785+1061646731+1061422790+1061188606+1060644052+1059963615+1059634048
3776+1059648158+1059583778+1059338129+1059266693+1059728481+1060555725
3768+1061146816+1061299321+1061414378+1061738179+1061858799+1061164658
3759+1059650533+1058223718+1057764033+1058195157+1058913653+1059298103
3751+1058850697+1057746666+1056855313+1056771802+1057767085+1059576858
3742+1061068800+1061566543+1061232498+1060397860+1059596464+1059611457
3734+1060655246+1061896450+1062602531+1062787260+1062690452+1062414817
3725+1061975552+1061460509+1061095936+1061068529+1061225104+1061178362
3717+1060823422+1060445009+1060227446+1059916466+1059222325+1058657488
3708+1059030541+1060190541+1061291655+1061710772+1061496125+1061174902
3700+1061102652+1061172663+1061203327+1061183314+1061169000+1061093222
3691+1060750901+1060147327+1059806837+1060114628+1060743438+1061258142
3683+1061415395+1061145663+1060716370+1060569835+1060715963+1060654636
3674+1060337076+1060387684+1060860666+1061150479+1060810125+1060161369
3666+1059649854+1059259502+1058869217+1058637950+1058875866+1059611525
3657+1060572006+1061530792+1062413867+1063043899+1063000753+1061847605
3649+1059952150+1058831498+1059094243+1059862873+1060185249+1059639271
3640+1058512785+1057632898+1057638800+1058521197+1059852222+1061116966
3632+1061887495+1061953911+1061429031+1060778444+1060383478+1060297932
3623+1060598125+1061279579+1061930370+1061928132+1061182568+1060237418
3615+1059585271+1059585745+1060444331+1061728139+1062503213+1062294808
3606+1061636012+1061308276+1061476655+1061831188+1061935662+1061486492
3598+1060618205+1059874677+1059730991+1060173038+1060805648+1061298235
3589+1061498432+1061364922+1061076398+1060891805+1060731770+1060359870
3581+1059871692+1059752564+1060317809+1061190370+1061687231+1061664980
3572+1061566611+1061697339+1061927792+1062044885+1062013814+1061879219
3564+1061613557+1061146613+1060476487+1059808193+1059469807+1059572652
3555+1059948962+1060438632+1060932034+1061179379+1060996889+1060655721
3547+1060651583+1061049058+1061385817+1061447077+1061513153+1061674138
3538+1061534048+1060855307+1060105401+1059914635+1060242981+1060563730
3530+1060645952+1060775052+1061193015+1061627328+1061613896+1061117170
3521+1060589170+1060466718+1060748323+1061043767+1061006794+1060727021
3513+1060586999+1060754632+1060975384+1060870571+1060372013+1059817148
3504+1059634455+1059908665+1060260552+1060332802+1060233416+1060303630
3496+1060644934+1061050076+1061299524+1061328424+1061141389+1060833801
3488+1060633198+1060636386+1060623225+1060393722+1060046177+1059762266
3479+1059652364+1059882275+1060507490+1061195186+1061497482+1061328628
3471+1060923147+1060584421+1060580283+1060955575+1061390769+1061466886
3462+1061082707+1060550908+1060303834+1060471806+1060754361+1060791062
3454+1060581979+1060398200+1060401999+1060514613+1060561966+1060485442
3445+1060407087+1060410614+1060349355+1060059948+1059684114+1059518719
3437+1059602298+1059693136+1059629367+1059505287+1059481679+1059590359
3428+1059749715+1059875084+1059977658+1060228124+1060831291+1061687842
3420+1062238433+1061918159+1060816299+1059651008+1059023418+1058931088
3411+1059119073+1059535408+1060109743+1060478251+1060384292+1060113678
3403+1060163269+1060640253+1061190505+1061374420+1061035897+1060401795
3394+1059802902+1059320219+1058845677+1058429138+1058322493+1058679129
3386+1059349051+1059971213+1060243388+1060116256+1059766472+1059470892
3377+1059532694+1060133351+1061050008+1061665794+1061519123+1060754971
3369+1059894350+1059343827+1059246205+1059552504+1060013410+1060270796
3360+1060151736+1059812196+1059549587+1059576723+1059907511+1060291283
3352+1060357699+1060022297+1059665729+1059733841+1060243999+1060812025
3343+1061076059+1061000688+1060828510+1060780750+1060823761+1060785160
3335+1060631095+1060476284+1060405255+1060461020+1060698664+1061072735
3326+1061403320+1061537915+1061392262+1060887531+1060120055+1059526657
3318+1059521704+1059968093+1060298882+1060207772+1059983153+1060059270
3309+1060423165+1060685028+1060636726+1060485713+1060558981+1060942414
3301+1061341789+1061252511+1060475198+1059485071+1059055099+1059540632
3292+1060655857+1061714842+1062042849+1061525907+1060788077+1060531980
3284+1060858427+1061438732+1061963001+1062178123+1061941564+1061501349
3275+1061359834+1061703581+1062208108+1062451926+1062301999+1061901877
3267+1061514035+1061422926+1061776373+1062397721+1062884339+1062972531
3258+1062705852+1062296368+1061993530+1061996989+1062314956+1062731224
3250+1062939561+1062675663+1061896789+1060924029+1060211300+1059931527
3241+1059957985+1060125753+1060345284+1060648191+1061155703+1061779969
3233+1062081586+1061762805+1061158824+1060949062+1061410307+1062127650
3224+1062447109+1062161366+1061676377+1061488391+1061667015+1061970735
3216+1062251594+1062522683+1062765958+1062907676+1062959981+1063028974
3207+1063126325+1063081279+1062745809+1062235990+1061853711+1061756767
3199+1061817145+1061814635+1061668643+1061460306+1061357528+1061529706
3190+1061970193+1062381847+1062450976+1062254782+1062152343+1062262787
3182+1062346095+1062259260+1062226221+1062519902+1063071510+1063531806
3173+1063627189+1063434727+1063327064+1063553311+1063874670+1063836544
3165+1063419870+1063123747+1063301963+1063713143+1063879148+1063666808
3156+1063351283+1063226593+1063363155+1063729289+1064283882+1064818870
3148+1064955297+1064517863+1063757239+1063079990+1062725797+1062742892
3139+1063056043+1063545917+1064146370+1064784068+1065231135+1065237376
3131+1064786375+1064052683+1063253390+1062675120+1062574581+1062898721
3122+1063337240+1063701339+1064012725+1064267872+1064423701+1064590656
3114+1064923548+1065284457+1065322041+1064975174+1064609515+1064515489
3105+1064550359+1064465287+1064301182+1064251523+1064357964+1064499411
3097+1064542828+1064434827+1064237548+1064076766+1063996579+1063883015
3088+1063527871+1062812632+1061888581+1061068461+1060502334+1060159945
3080+1060104655+1060404305+1060774713+1060740521+1060206619+1059548298
3071+1059131827+1058983257+1058919419+1058836654+1058813656+1058964194
3063+1059251565+1059477608+1059404002+1058935769+1058283689+1057789676
3054+1057443013+1056841067+1055817833+1054759119+1054061451+1053642944
3046+1053240109+1052841548+1052587826+1052504043+1052495088+1052429894
3037+1052185737+1051718318+1051003757+1049877067+1048230789+1046483497
3029+1045453480+1045545335+1046308741+1046922898+1046944472+1046525151
3020+1046096605+1045970015+1046140090+1046308877+1046131203+1045595130
3012+1045128729+1045184833+1045821716+1046827854+1048014515+1049149617
3003+1049858886+1049913091+1049481152+1048912108+1048368709+1047805635
2995+1047229400+1046803771+1046634781+1046576371+1046376785+1045946746
2986+1045361285+1044625354+1043585025+1042100478+1040211264+1038115138
2978+1036140107+1034780318+1034487180+1035231659+1036456852+1037620990
2969+1038599178+1039482729+1040245659+1040749712+1040918024+1040757582
2961+1040245659+1039304919+1037940314+1036346883+1034815323+1033561908
2952+1032625103+1031789922+1030631415+1028810245+1026330414+1023413965
2944+1020223779+1016832245+1013273009+1009402454+1004898001+999708633+994383653
2934+989637960+985697870+982346089+979410237+976856121+974664476+973035158
2924+972521676+973524829+975731467+978379337+981035417+983848342+987098702
2914+990794500+994732623+998712197+1002577324+1006153384+1009249746+1011751896
2904+1013724621+1015322529+1016511496+1017003948+1016597992+1015441656
2895+1013900734+1012378400+1011317040+1011099545+1011837917+1013402855
2887+1015625096+1018298068+1021073953+1023576578+1025646992+1027375628
2878+1028899930+1030235025+1031314362+1032114130+1032670623+1033005483
2870+1033063079+1032670216+1031590743+1029810481+1027734367+1025860214
2861+1024245278+1022467322+1020007844+1016540057+1012109889+1007305853
2853+1003114075+1000418988+999623223+1000657039+1003210476+1006898269
2844+1011226270+1015561326+1019406576+1022719484+1025748413+1028597430
2836+1031130380+1033185870+1034741920+1035977087+1037189119+1038534391
2827+1039894044+1041040543+1041821316+1042231342+1042482554+1042893598
2819+1043534416+1044141925+1044498833+1044680509+1044865373+1045121334
2810+1045458907+1045925444+1046545843+1047214068+1047763981+1048167427
2802+1048527522+1048849221+1049011698+1049005864+1048974657+1048999080
2793+1049066377+1049227023+1049564121+1050042055+1050530029+1050918143
2785+1051131907+1051137877+1051002875+1050837142+1050630772+1050260636
2776+1049734196+1049289436+1049153687+1049339977+1049764385+1050385190
2768+1051104432+1051737381+1052185126+1052481181+1052645829+1052657701
2759+1052572019+1052519714+1052587080+1052745486+1052896770+1053001855
2751+1053154766+1053457401+1053818922+1053959148+1053673473+1053109178
2742+1052695624+1052710888+1052987608+1053176475+1053178714+1053136450
2734+1053133125+1053115758+1053040252+1052931504+1052820653+1052720386
2725+1052676764+1052789311+1053131362+1053647422+1054159887+1054498409
2717+1054631783+1054665500+1054683884+1054657359+1054580225+1054568556
2708+1054661497+1054664075+1054408182+1054055820+1053949175+1054222164
2700+1054700030+1055135022+1055408553+1055495931+1055390847+1055189429
2691+1055099134+1055180407+1055218804+1055048458+1054829062+1054805318
2683+1054966642+1055126881+1055203065+1055268328+1055396546+1055554478
2674+1055665668+1055740631+1055864846+1056026849+1056049100+1055782488
2666+1055349057+1055091400+1055206797+1055500748+1055628898+1055521439
2657+1055379382+1055315680+1055252589+1055163107+1055183460+1055442473
2649+1055880925+1056253435+1056322293+1056119586+1055961180+1056090754
2640+1056403565+1056638089+1056697924+1056629948+1056434772+1056112327
2632+1055806504+1055714648+1055887234+1056207711+1056512992+1056696635
2623+1056769088+1056812642+1056854703+1056898867+1057067789+1057464111
2615+1057883228+1057987837+1057781875+1057586902+1057577133+1057667632
2606+1057810978+1058083085+1058486938+1058869896+1059045263+1058941671
2598+1058662915+1058386263+1058188373+1058052964+1057991229+1057980375
2589+1057896728+1057767628+1057910500+1058499963+1059178365+1059447555
2581+1059276191+1059013310+1058849611+1058633608+1058199838+1057725703
2572+1057616345+1057978204+1058405530+1058522622+1058544805+1059003880
2564+1060028606+1061131484+1061681261+1061498160+1060950080+1060471467
2555+1060154857+1059914295+1059783703+1059815181+1059935258+1060110014
2547+1060417398+1060831156+1061156653+1061239079+1061087931+1060852797
2538+1060754428+1060859852+1060923961+1060723629+1060457899+1060455050
2530+1060677430+1060961070+1061431406+1062105330+1062435101+1061901742
2521+1060809854+1059933833+1059615052+1059632352+1059731195+1059895572
2513+1060162523+1060438361+1060599074+1060643713+1060605384+1060403355
2504+1060003370+1059664440+1059721697+1060139186+1060547719+1060720644
2496+1060754632+1060812228+1060940989+1061150276+1061407119+1061546463
2487+1061427946+1061203259+1061194372+1061483168+1061817823+1061904048
2479+1061645916+1061196679+1060890991+1060965344+1061232295+1061253664
2470+1060925250+1060586999+1060485103+1060536526+1060705109+1061103059
2462+1061641439+1062062862+1062346299+1062645813+1062939425+1063123069
2453+1063215942+1063176527+1062845874+1062295418+1061879626+1061793537
2445+1061871349+1061893804+1061856357+1061887835+1062052686+1062298675
2436+1062545817+1062753272+1062871178+1062800217+1062461695+1061878608
2428+1061183789+1060629467+1060495211+1060788077+1061116627+1061140914
2419+1061025857+1061110115+1061340296+1061454811+1061492394+1061672510
2411+1061973788+1062184432+1062216317+1062157635+1062117609+1062102617
2402+1062016731+1061799032+1061523601+1061320216+1061272456+1061371231
2394+1061491512+1061529503+1061582689+1061764840+1061894754+1061721694
2385+1061357189+1061091459+1060939836+1060759313+1060650158+1060854221
2377+1061358070+1061933627+1062486592+1063027414+1063392191+1063364241
2368+1063043560+1062807273+1062924297+1063367972+1063906623+1064245281
2360+1064196436+1063804524+1063251829+1062631295+1061967954+1061467090
2351+1061411393+1061732413+1062050719+1062145085+1062198882+1062474991
2343+1062716163+1062330831+1061162894+1059679094+1058670174+1058797646
2334+1060013071+1061448705+1062155125+1061870942+1060975316+1059966397
2326+1059185895+1058806058+1058802598+1058966093+1059102859+1059261741
2317+1059630181+1060197528+1060701513+1060974298+1061170492+1061543274
2309+1062112928+1062642896+1062827896+1062496904+1061752290+1060949808
2300+1060451658+1060340875+1060394129+1060369842+1060278190+1060288298
2292+1060445145+1060610946+1060639643+1060494261+1060288027+1060243660
2283+1060451861+1060706872+1060814874+1060904084+1061104755+1061206719
2275+1061027689+1060844113+1061080672+1061815178+1062765008+1063534316
2266+1063868497+1063893394+1064001464+1064343717+1064611347+1064411761
2258+1063721080+1062961406+1062657889+1062930810+1063384321+1063556500
2249+1063326725+1062975109+1063055093+1063876502+1064858082+1064956450
2241+1063989388+1062850080+1062410815+1062932709+1064189517+1065378620
2232+1065448495+1064258103+1062869482+1062289991+1062485100+1062790855
2224+1062835426+1062926400+1063543271+1064478923+1064869208+1064233613
2215+1062966154+1061712535+1060913310+1060925454+1061825150+1062961473
2207+1063275302+1062390463+1061210993+1061148444+1062693980+1064985350
2198+1066836098+1067764220+1067814150+1067107459+1066109258+1065522441
2190+1065302842+1064690856+1063837765+1064100985+1065871750+1067483294
2181+1067363420+1066156204+1065626643+1066309116+1067072928+1066661885
2173+1065130867+1063469325+1062292908+1061643135+1061597479+1062075277
2164+1062492155+1062642353+1063319873+1065038197+1067025576+1068541465
2156+1069830497+1070948232+1071402218+1071099447+1070531693+1070149888
2147+1070147582+1070490921+1070734332+1070357276+1069556219+1069056372
2139+1068972386+1068635152+1067715511+1066742479+1066322141+1066533735
2130+1067119331+1067632474+1067554729+1066830875+1066077916+1065856622
2122+1066060278+1066325465+1066536991+1066613650+1066367662+1065890067
2113+1065561856+1065558600+1065829146+1066399140+1067127540+1067490213
2105+1067217632+1066724637+1066419424+1066117196+1065589535+1065161395
2096+1065308134+1065978530+1066637055+1066912215+1067021980+1067454055
2088+1068251109+1068847424+1068761742+1068231910+1067955733+1068302600
2079+1068867844+1068828565+1067809198+1066371325+1065477056+1065503310
2071+1065957364+1066170450+1066053155+1065978870+1066046371+1065909605
2062+1065467083+1065129714+1065153594+1065375160+1065801875+1066607952
2054+1067411315+1067526033+1067015129+1066573625+1066401175+1066128864
2045+1065918356+1066463927+1067690681+1068596551+1068794170+1069132150
2037+1069907292+1069562189+1066726876+1062923415+1061129042+1062047395
2028+1063806287+1064776809+1064969882+1065142061+1065934502+1067573250
2020+1069520738+1070712691+1070659300+1069982798+1069574671+1069868555
2011+1070985137+1072632364+1073741823+1073214433+1071357308+1069711980
2003+1069227329+1069454730+1069518432+1069125433+1068537191+1068010683
1994+1067499779+1066733795+1065518845+1064103699+1063150748+1063070628
1986+1063468647+1063564776+1063216485+1063055161+1063675084+1065379230
1977+1068297173+1071511577+1072879438+1071420196+1068864452+1067548217
1969+1067853633+1068580880+1068830736+1068702586+1068623484+1068727415
1960+1068923134+1069284926+1069970858+1070706788+1070856037+1070174379
1952+1069132218+1068476949+1068618328+1069251209+1069617478+1069417689
1943+1069146871+1069268237+1069649295+1070122345+1070703939+1071098226
1935+1070786161+1069679281+1068269290+1067272243+1067219531+1067962924
1926+1068660050+1068691324+1068343372+1068194259+1068207827+1067963331
1918+1067332010+1066496015+1065582004+1064580140+1063429232+1062068425
1909+1060660402+1059741642+1059731330+1060267879+1060423165+1059678754
1901+1058469639+1057606033+1057363911+1057383585+1057309164+1057280196
1892+1057752703+1058982375+1060649480+1061965376+1062420991+1062226968
1884+1061917549+1061875420+1062203970+1062828710+1063609551+1064344057
1875+1064764462+1064725997+1064414000+1064183886+1064249555+1064630478
1867+1065209969+1065705813+1065857911+1065758660+1065780708+1066073100
1858+1066370850+1066423426+1066319088+1066309998+1066528714+1066914657
1850+1067338862+1067773378+1068257283+1068642411+1068555033+1067941554
1841+1067336013+1067156168+1067321359+1067481394+1067365659+1067008412
1833+1066669958+1066617992+1066939487+1067405549+1067667616+1067607509
1824+1067384315+1067261253+1067328686+1067416335+1067315389+1067004817
1816+1066617992+1066259864+1066000850+1065938098+1066075745+1066219295
1807+1066172825+1065965641+1065771821+1065691295+1065652219+1065514300
1799+1065239140+1064920359+1064684954+1064602053+1064604631+1064513793
1790+1064304574+1064143792+1064059196+1063925550+1063702899+1063511997
1782+1063482079+1063643810+1063936269+1064275402+1064662838+1065134598
1773+1065538994+1065530446+1065053122+1064450294+1063969782+1063695708
1765+1063674610+1063871278+1064137008+1064266515+1064116521+1063704527
1756+1063302710+1063304202+1063759478+1064251997+1064273978+1063812325
1748+1063414985+1063403520+1063625290+1063836544+1063939593+1063964152
1740+1063944478+1063824333+1063520002+1063126868+1063080804+1063618031
1731+1064215567+1064433470+1064339647+1064203831+1064168758+1064206273
1723+1064274046+1064395276+1064599950+1064786578+1064639297+1064073442
1714+1063531195+1063363969+1063524411+1063776573+1063986607+1064221266
1706+1064603817+1065118656+1065611040+1065879009+1065842307+1065794141
1697+1065999086+1066306266+1066510940+1066639837+1066750280+1066793088
1689+1066738476+1066649538+1066543436+1066334963+1066089042+1066014079
1680+1066109191+1066211426+1066107155+1065631053+1064904213+1064282254
1672+1063883150+1063500871+1062948380+1062337344+1061823997+1061402234
1663+1061052993+1060828917+1060756599+1060827221+1061082097+1061572649
1655+1062197593+1062533538+1062460338+1062526821+1062922533+1063467765
1646+1063775149+1063688788+1063522512+1063549580+1063787564+1064100578
1638+1064429264+1064905773+1065571150+1066186054+1066625862+1066901157
1629+1067005292+1066974085+1066891320+1066764323+1066588142+1066499475
1621+1066584479+1066661342+1066389981+1065619113+1064708358+1064016999
1612+1063542864+1063218588+1063034470+1062976873+1063005027+1063056450
1604+1062976195+1062398400+1060709790+1057278840+1051879846+1044960349
1595+1037455460+1030266231+1024083072+1019821826+1018632927+1020919888
1587+1025686543+1031294417+1036604676+1041221676+1045067537+1048157183
1578+1050591289+1052346111+1053218061+1053363104+1053203815+1052987880
1570+1052921260+1053248929+1054056023+1055226335+1056470931+1057424357
1561+1057790558+1057315948+1056336811+1055818172+1055718176+1055767971
1553+1056109410+1056899002+1057971013+1059031423+1060057506+1061208483
1544+1062392498+1063210311+1063500871+1063761309+1064436794+1065284254
1536+1066042707+1066607070+1066937994+1067137716+1067348631+1067564906
1527+1067671754+1067654726+1067605474+1067329161+1066172146+1063249523
1519+1057316966+1047304364+1034857181+1024441404+1019205837+1019328085
1510+1023363152+1029258736+1033431926+1031237092+1024338423+1017475845
1502+1013285491+1013538671+1018612439+1026238762+1032977532+1037568618
1493+1040951808+1044016624+1046603303+1047716018+1046938230+1044851262
1485+1041805441+1037674448+1032605022+1027485326+1023350737+1020650019
1476+1019451283+1019908933+1022060349+1025043622+1027541091+1029166135
1468+1030091136+1030257141+1029486069+1028018414+1026319424+1024461281
1459+1022108448+1019115067+1016566379+1015505494+1015412756+1015728824
1451+1016483885+1017932613+1020070257+1022436184+1024463927+1025743190
1442+1025936331+1024904549+1022855165+1020327914+1018376627+1017929831
1434+1018751105+1020347316+1022691602+1025679081+1028789689+1031616794
1425+1034057345+1035917184+1036756299+1035796089+1031740670+1024168958
1417+1015219615+1007520635+1002728200+1001942543+1005111155+1010657702
1408+1016607558+1021698490+1025343679+1027331600+1027855326+1027362264
1400+1026379395+1025521827+1025241715+1025633357+1026622399+1028055930
1391+1029714623+1031408592+1032953246+1034099270+1034682763+1034831130
1383+1034881400+1035135665+1035660680+1036322665+1037008597+1037653893
1374+1038101502+1038254618+1038357260+1038813621+1039799814+1041132195
1366+1042473260+1043565623+1044286357+1044735866+1045213529+1045913911
1357+1046776635+1047613986+1048280516+1048733892+1048992499+1049109523
1349+1049176617+1049279667+1049459986+1049743151+1050136895+1050552145
1340+1050791689+1050726494+1050460561+1050177667+1049952031+1049829851
1332+1049891382+1050062746+1050015597+1049478303+1048581455+1047758757
1323+1047422406+1047782298+1048800715+1050184112+1051532097+1052596577
1315+1053235021+1053019290+1051306935+1048264845+1045557682+1045156068
1306+1047312030+1050406221+1052850096+1054281456+1054981296+1055143502
1298+1054924988+1054603901+1054427923+1054445426+1054511502+1054457434
1289+1054255948+1053968510+1053593896+1053091471+1052495360+1051910035
1281+1051453063+1051207074+1051160807+1051230683+1051358901+1051507606
1272+1051582502+1051507199+1051343772+1051196084+1051049210+1050853966
1264+1050659943+1050481456+1050177599+1049669883+1049095955+1048543872
1255+1047830804+1046668972+1044859946+1042303456+1039072702+1035554985
1247+1032352792+1029989579+1028723477+1028537595+1029198494+1030363853
1238+1031723167+1033086687+1034374565+1035583003+1036773056+1038010189
1230+1039274595+1040474688+1041528110+1042364784+1042924601+1043251319
1221+1043492491+1043625390+1043160549+1041381643+1038247155+1035017148
1213+1033491218+1034385623+1036766136+1039178669+1040933966+1042201560
1204+1043335102+1044432146+1045423087+1046304467+1047142294+1047924220
1196+1048536884+1048843386+1048717407+1048097416+1047051930+1045674164
1187+1043759035+1040576584+1035381992+1028759433+1023279370+1021843939
1179+1025038330+1030689079+1036008361+1039521058+1041150648+1041379676
1170+1040595647+1038938718+1036691715+1034695653+1034016234+1035067010
1162+1037269035+1039604230+1041394058+1042588385+1043500428+1044403381
1153+1045390592+1046477256+1047635899+1048712319+1049478778+1049847896
1145+1049913701+1049714794+1049104910+1048005424+1046673925+1045536313
1136+1044812593+1044475699+1044467355+1044673928+1044745499+1044238123
1128+1042961506+1041007166+1038494636+1035480768+1032085366+1028538748
1119+1025036091+1021540829+1017784721+1013549390+1009005250+1004868694
1111+1002334388+1002658800+1006359415+1012636939+1019714910+1025845561
1102+1030072208+1032188890+1032083195+1029292046+1023605274+1016307026
1094+1010317619+1008467481+1011505433+1017852629+1025038466+1031210499
1085+1035663529+1038575637+1040507590+1041968868+1043168622+1044045660
1077+1044521016+1044662734+1044555140+1044113025+1043144200+1041528925
1068+1039280361+1036576997+1033809321+1031478332+1029954234+1029341162
1060+1029523245+1030279324+1031362529+1032493153+1033394546+1033947647
1051+1034203337+1034169213+1033796974+1033255338+1032927602+1033047476
1043+1033586127+1034493761+1035771463+1037298342+1038848762+1040325711
1034+1041799064+1043290327+1044708255+1046020420+1047267187+1048345100
1026+1048787961+1047536716+1043164823+1035504173+1027424405+1023510569
1017+1025874935+1032197302+1038525029+1042903367+1045714054+1047773682
1009+1049191000+1049699258+1049351442+1048656690+1048150195+1048066548
1000+1048442722+1049237199+1050282887+1051366228+1052361986+1053181902
992+1053767906+1054236139+1054780217+1055364729+1055759287+1055899174
983+1056002766+1056294139+1056746769+1057144109+1057354888+1057472930
975+1057648297+1057804330+1057605015+1056784285+1055543080+1054482602
966+1053990015+1053800469+1053357134+1052471480+1051392821+1050372504
958+1049406664+1048275225+1046558122+1043810526+1040214928+1037077387
949+1036137936+1037982239+1041082604+1042483436+1039899742+1033954024
941+1028403204+1027281466+1031450789+1038332091+1044744278+1049255990
932+1052150732+1054272230+1056198010+1058001813+1059472656+1060486392
924+1061047362+1061003877+1059940889+1057334876+1052588979+1045037687
915+1034520422+1022160006+1009796538+998116899+986256805+974179283+964655605
905+961548321+966242320+976500435+988566560+999640522+1008511306+1014904769
895+1019076263+1021892784+1024582715+1027899083+1031558519+1034630187
887+1036385281+1036721972+1036013992+1034877940+1034055174+1034196689
878+1035551186+1037872609+1040619662+1043232731+1045385640+1047169837
870+1048980220+1051075871+1053279050+1055170434+1056462247+1057051168
861+1056734354+1054894325+1050357987+1041607009+1027573857+1008868349+988556045
851+971475919+962075507+962045996+969326606+979281137+987617747+993197535
841+998231752+1005384280+1014750026+1023828468+1029860479+1031484438+1028440516
832+1020584282+1007656655+989995546+969282781+948163111+928724046+911581440
822+897018728+886796364+883760244+889085157+900406600+913186268+923644241
812+930168636+932709454+932048962+929943745+928986520+931036787+935241725
802+938168758+936959235+932736590+930303773+933915653+943598755+955803681
792+966934086+975584321+982030496+986948978+990925296+994298242+996980508
782+998762805+999895737+1001050920+1002704728+1004759607+1006668495+1007839891
772+1008125634+1008012205+1008187572+1008845554+1009502926+1009546886
764+1008941209+1008342384+1008520871+1009768520+1011854945+1014325278
755+1016730552+1018754089+1020262652+1021271775+1021887492+1022204713
747+1022038369+1020498939+1015706301+1005536242+990019900+973444438+962547471
737+961209120+967162640+974207369+977249323+975687506+973338200+975097500
727+982492285+992187530+998541036+996070025+980192773+950658002+916622984
717+893519938+891294305+907206494+930461162+951866711+968084181+979348570
707+986709503+991309000+993934347+994246005+991233901+985447878+980483808
697+980815207+987614423+997701513+1006911295+1013337389+1017154825+1018858835
687+1018547109+1016434226+1013613499+1012088858+1013486366+1017535340
679+1022336391+1026161628+1028542276+1029749764+1030086251+1029876421
670+1029590679+1029737349+1030340516+1030680870+1030155584+1028405714
662+1025075574+1019667558+1010867803+996344438+974713728+948752439+926265993
652+916108484+922079574+940611684+963891996+984844304+999645746+1006543126
642+1003339915+987561507+961267395+934859446+921656930+926704919+943415722
632+962154744+978324387+991340138+1000896787+1006917332+1010694878+1013951546
622+1017375916+1020658906+1023303928+1025056783+1025997726+1026603946
613+1027540480+1029088322+1030823131+1032083738+1032703254+1033094421
605+1033651728+1034190786+1033796364+1030736025+1022488421+1007298052+987298423
595+969451296+961413387+965644580+978061913+992478700+1005024320+1014335861
585+1020242571+1023607377+1026007020+1028442348+1030670694+1031768756
577+1030554959+1025524880+1015761048+1002821684+991295907+986398455+989927773
567+998811583+1008149921+1014832248+1017800460+1016047876+1007973129+993637818
557+977351694+966378136+965707739+974404309+987366535+999656329+1008884291
547+1014941810+1018726479+1021007944+1022068219+1022118285+1021615250
538+1021110519+1021056246+1021613621+1022509655+1023377602+1024146232
530+1024787796+1025137309+1025318714+1025616261+1025150063+1020999532
521+1009229530+987727852+959790242+933927729+916904453+908447359+905044698
511+905693454+911999946+924625481+941386487+958700254+973975898+986157758
501+995127046+1001534620+1006090971+1008495160+1007418061+1000166080+981712869
492+948035640+904295200+866238479+849707316+859485463+886983128+917869751
482+942563378+959355522+970557634+978883051+985943180+991741617+995450033
472+997119445+998024161+999136401+1000611315+1002379298+1004010991+1004725755
462+1004769241+1006080524+1009998770+1014297735+1014943234+1011156327
453+1004761575+996845913+987690133+977669525+967402115+958588182+954769796
443+959271536+971022340+984135239+993562515+998604806+1000774132+1001279948
433+1000941561+1000822434+1001741465+1003403210+1004697533+1005012515
425+1005035852+1005988397+1007567445+1007112305+1002529971+997721051+997944381
415+1001246367+1003442083+1003797905+1005015840+1008935917+1013924817
407+1017618105+1019653650+1020565490+1020554433+1020311700+1020687467
398+1020436458+1017379308+1012831641+1009305307+1007389365+1007336110
390+1009660926+1013135972+1014056427+1009548107+1002697401+1000245589
381+1003422681+1007148735+1005931004+999135655+994355974+999614539
##END=
