##TITLE=VLL-106,X18695
##JCAMP-DX=4.24
##DATA TYPE=INFRARED SPECTRUM
##DATE=19/4/2021
##SAMPLING PROCEDURE=Diamant-ATR
##ORIGIN=Angelika Moesle
##XUNITS=1/CM
##YUNITS=TRANSMITTANCE
##RESOLUTION=4
##FIRSTX=3997.453
##LASTX=373.96442
##DELTAX=-1.4165319
##MAXY=0.85098737
##MINY=0.25627559
##XFACTOR=1
##YFACTOR=7.9254375e-010
##NPOINTS=2559
##FIRSTY=0.85017031
##XYDATA=(X++(Y..Y))
3997+1072710889+1073141147+1073741823+1073733851+1072817682+1071636560
3989+1070924051+1070687827+1070503119+1070187025+1069921019+1069920793
3980+1070158973+1070351277+1070243882+1069939595+1069777750+1069809412
3972+1069662985+1069127437+1068606931+1068656417+1069209037+1069645988
3963+1069595299+1069270932+1069010641+1068896101+1068911820+1069129844
3955+1069602368+1070176948+1070460402+1070122648+1069376973+1068896252
3946+1069042980+1069584544+1070200638+1070702267+1070863736+1070547942
3938+1069944107+1069427437+1069300112+1069744960+1070773036+1071913848
3929+1072282586+1071433051+1069950801+1068956643+1068930772+1069215429
3921+1069026134+1068453735+1068209088+1068663637+1069376672+1069755790
3912+1069774065+1069742253+1069745261+1069615303+1069308159+1068990411
3904+1068765166+1068532552+1068282264+1068237365+1068473515+1068704700
3895+1068705903+1068701541+1069150225+1069977725+1070281711+1069547392
3887+1068456593+1068060329+1068354989+1068457270+1068331975+1068513825
3878+1068488631+1067401141+1065787430+1065016110+1065492319+1066394649
3870+1067158224+1067770858+1068064315+1068055891+1068281888+1068964615
3861+1069380132+1068881060+1067667749+1066196179+1064776726+1064138973
3853+1065349802+1067453410+1068426661+1067990537+1066795577+1065540000
3844+1064775298+1064620748+1064677830+1064670158+1064938647+1065801418
3836+1066831977+1067454538+1067611194+1067484696+1067112272+1066481964
3827+1065873993+1065661308+1065640326+1065305054+1064916686+1065230148
3819+1065832103+1065830900+1065473367+1065249025+1064775974+1063721952
3810+1062438097+1061478384+1061347750+1062115686+1062937996+1063063893
3802+1062790516+1062599190+1062204806+1061594804+1061556373+1062387558
3793+1063350957+1063835439+1063869959+1063571012+1063068330+1062798789
3785+1063130225+1063725486+1063962087+1063898236+1064129121+1064682417
3776+1064853136+1064295478+1063317189+1062342810+1061736192+1061787032
3768+1062306636+1062708992+1062751709+1062626866+1062443211+1062162164
3759+1061894954+1061742209+1061398514+1060468282+1059127195+1058291422
3751+1058862918+1060121428+1060436770+1059756826+1059212555+1059532183
3742+1059973271+1059583625+1058474551+1057324339+1056790521+1057003657
3734+1057621029+1058513433+1059542111+1060211075+1060322456+1060339302
3725+1060765273+1061396634+1061683021+1061514558+1061127544+1060662315
3717+1060104883+1059450509+1058880517+1058830956+1059615512+1060789941
3708+1061574949+1061682570+1061211249+1060451511+1059864522+1059757879
3700+1059918295+1059975076+1059949506+1060138350+1060580716+1060773696
3691+1060240405+1059548428+1059920852+1061040304+1061439727+1060872443
3683+1060081343+1059505711+1058891121+1057821530+1056540985+1056208120
3674+1057360438+1058557278+1058826443+1058725140+1058666478+1058142212
3666+1057074502+1056221356+1056190221+1056799696+1057360964+1057517169
3657+1057590270+1057899745+1057989918+1057429628+1056877761+1057549432
3649+1059420200+1060512579+1059949806+1058780492+1057761139+1056833614
3640+1055796965+1054824165+1054308096+1054479869+1055292929+1056281446
3632+1056696663+1056385457+1056424640+1057682774+1058990695+1059244743
3623+1058709271+1057961340+1057296963+1056787663+1056349208+1055883904
3615+1055536749+1055476960+1055491399+1055300901+1055218700+1055783127
3606+1056725016+1057206414+1057022007+1056673725+1056471720+1056110276
3598+1055356027+1054691049+1054776258+1055420780+1055551640+1054488292
3589+1052821259+1051979018+1052703184+1054047430+1054884782+1055030156
3581+1054660741+1054068112+1053777964+1054155502+1054975406+1055686185
3572+1055873450+1055421006+1054583804+1054021258+1054286437+1055021132
3564+1055450562+1055337000+1054758585+1053862948+1053015292+1052558336
3555+1052437479+1052450038+1052539986+1052501931+1051967437+1051105266
3547+1050766986+1051514015+1052784107+1053517147+1053302582+1052557434
3538+1051968414+1051904263+1052234947+1052625044+1052834871+1052727250
3530+1052316170+1051880949+1051730836+1051839811+1051954050+1051902157
3521+1051606444+1051115419+1050778719+1050961245+1051477314+1051762874
3513+1051698347+1051770320+1052371522+1053315969+1054120155+1054459638
3504+1054221684+1053406668+1052253974+1051261696+1050734121+1050462775
3496+1050120885+1049772753+1049637230+1049603989+1049426501+1049132593
3488+1048868693+1048589149+1048203865+1047892208+1047993060+1048511235
3479+1048994513+1049136278+1049126351+1049099126+1048747685+1047962451
3471+1047280100+1047136079+1047237533+1047187446+1047163379+1047484738
3462+1047945530+1048044276+1047621313+1046951372+1046380477+1046107777
3454+1046200658+1046612941+1047160973+1047569571+1047658541+1047543173
3445+1047539413+1047774735+1048056986+1048132644+1047918004+1047518054
3437+1047171502+1047039439+1046908504+1046388599+1045541245+1044965537
3428+1045119109+1045855233+1046653402+1047026804+1046727631+1045840192
3420+1044781732+1044102389+1044112617+1044583186+1044891158+1044620865
3411+1043957240+1043380780+1043128010+1043060776+1042945935+1042736033
3403+1042503042+1042201313+1041813923+1041685695+1042167846+1042906978
3394+1043154859+1042806426+1042466642+1042515752+1042719337+1042748292
3386+1042615025+1042526808+1042558244+1042613822+1042612995+1042534253
3377+1042377748+1042265013+1042388277+1042712568+1043002415+1043190056
3369+1043337913+1043327534+1043004521+1042463333+1041905224+1041476997
3360+1041343204+1041566643+1041933050+1042183865+1042292689+1042303519
3352+1042128889+1041712243+1041194821+1040692740+1040063410+1039203421
3343+1038517009+1038663813+1039753107+1041117283+1041969751+1042060827
3335+1041703369+1041349145+1041205199+1041222121+1041310188+1041425555
3326+1041553031+1041722622+1041886046+1041782486+1041222497+1040460728
3318+1039983992+1040000237+1040332801+1040640397+1040623325+1040227963
3309+1039678352+1039176798+1038690661+1038171208+1037797957+1037827965
3301+1038276949+1038835585+1039090085+1038864690+1038380584+1038020344
3292+1037944836+1038046591+1038213023+1038455339+1038819115+1039316758
3284+1039850274+1040143882+1039938266+1039303296+1038568375+1037976498
3275+1037561883+1037263764+1037000615+1036698510+1036387003+1036257873
3267+1036524331+1037116960+1037663112+1037960404+1038279356+1038893494
3258+1039540799+1039753032+1039538392+1039329693+1039309387+1039146640
3250+1038543407+1037800439+1037506757+1037725458+1037888130+1037564666
3241+1036935486+1036395953+1036096254+1035994048+1036040150+1036170107
3233+1036323002+1036589911+1037162987+1038005377+1038726610+1038940122
3224+1038631173+1038069980+1037509088+1037044912+1036648046+1036243810
3216+1035817538+1035426763+1035116686+1034898662+1034838496+1035051858
3207+1035483921+1035742105+1035386001+1034490063+1033685050+1033503050
3199+1033924358+1034596255+1035169481+1035412625+1035359228+1035297032
3190+1035351406+1035249652+1034738847+1033991217+1033339776+1032817991
3182+1032254768+1031766300+1031826466+1032649754+1033752586+1034427040
3173+1034433733+1033967752+1033278407+1032606360+1032169258+1031932131
3165+1031656423+1031325664+1031267529+1031681091+1032244314+1032400895
3156+1031996658+1031412753+1031067855+1031010171+1031024160+1030914433
3148+1030661137+1030396409+1030202376+1030002025+1029762341+1029588012
3139+1029439854+1029114510+1028701399+1028604759+1028909346+1029177984
3131+1029092174+1028853693+1028775177+1028893553+1029108268+1029311777
3122+1029261314+1028705160+1027743416+1026764600+1026061793+1025706516
3114+1025541963+1025069966+1023783028+1021911884+1020428506+1020035550
3105+1020476638+1020993158+1021186590+1021250967+1021469743+1021724769
3097+1021684007+1021343170+1021032792+1020841616+1020399777+1019402009
3088+1018115672+1017132795+1016698251+1016483761+1016007100+1015120413
3080+1014116779+1013420138+1013096373+1012671906+1011525079+1009376722
3071+1006313326+1002533133+998288840+994009952+990336703+987933170+987165761
3061+987935577+989808376+992224242+994660490+996782524+998488740+999788839
3051+1000701247+1001247474+1001489113+1001646596+1002103176+1003056196
3043+1004267777+1005377453+1006263088+1006881061+1007069530+1006768327
3034+1006179082+1005535763+1004923279+1004387130+1004040277+1003993874
3026+1004247020+1004684046+1005177854+1005661283+1006064241+1006266397
3017+1006238721+1006180210+1006410568+1007129093+1008261181+1009469001
3009+1010368775+1010882738+1011317884+1011939242+1012555035+1012782084
3000+1012664085+1012698680+1013175340+1013787448+1014068270+1013979150
2992+1013790457+1013554082+1013084792+1012391084+1011683314+1010886197
2983+1009554887+1007377576+1004425260+1000813155+996430707+991109302+984785768
2973+977366621+968663846+958650518+947705377+936472872+925541119+915343534
2963+906285181+898797145+893305172+890251026+890085345+893114448+899291705
2953+908043440+918248320+928587143+938107341+946438745+953571504+959644901
2944+964870718+969402000+973287783+976591164+979393895+981688829+983449494
2934+984773133+985828961+986742798+987586994+988382756+989114217+989798749
2924+990471399+991078618+991496091+991689372+991758562+991796767+991763451
2914+991522939+990979345+990128681+988940866+987173131+984372958+980229517
2904+975031677+969727796+965465077+963064703+962819378+964549059+967740909
2894+971712427+975774795+979418863+982484140+985111939+987474334+989626150
2884+991600252+993406267+994872498+995747754+996065653+996165603+996277586
2874+996367307+996458984+996772822+997372596+997950861+998177384+998112405
2864+998106088+998371643+998782948+999062717+999060837+998811301+998441660
2854+998131507+998078712+998345170+998772194+999142888+999374224+999510499
2844+999636470+999851486+1000224587+1000704406+1001138950+1001414057+1001556799
2834+1001715861+1002053314+1002624284+1003321977+1003925962+1004232505
2826+1004196631+1003955895+1003677103+1003417866+1003208264+1003180513
2817+1003462463+1003985301+1004492044+1004717965+1004566874+1004218667
2809+1004024934+1004167903+1004478130+1004684949+1004691492+1004489712
2800+1004014255+1003293474+1002582695+1002123858+1001836343+1001425563
2792+1000795406+1000237898+1000157502+1000645293+1001360810+1001855370
2783+1001996834+1002029925+1002201171+1002416864+1002387608+1002074146
2775+1001805884+1001898990+1002305106+1002717390+1002904579+1002886229
2766+1002864645+1003025286+1003399064+1003930625+1004565370+1005160030
2758+1005460406+1005370158+1005147997+1005147094+1005419117+1005718440
2749+1005872614+1005991516+1006217587+1006412899+1006340099+1006073266
2741+1005898034+1005852459+1005754013+1005623830+1005658801+1005814479
2732+1005833431+1005640075+1005325786+1004867626+1004263415+1003798863
2724+1003778181+1004137745+1004628544+1005156194+1005673166+1005991065
2715+1005954965+1005644963+1005275247+1005009090+1004885149+1004838220
2707+1004793924+1004772264+1004886353+1005221173+1005691892+1006037016
2698+1006035061+1005726863+1005356621+1005102873+1004932229+1004718190
2690+1004500392+1004514681+1004837017+1005159428+1005160556+1004900341
2681+1004595829+1004286955+1003979510+1003809392+1003819394+1003845416
2673+1003778407+1003712150+1003725988+1003724709+1003588810+1003349277
2664+1003111323+1002898262+1002682795+1002503276+1002415209+1002381817
2656+1002342860+1002335941+1002414457+1002517565+1002536743+1002485903
2647+1002503276+1002662263+1002850506+1002911198+1002833810+1002702875
2639+1002564194+1002479210+1002566525+1002817264+1003029723+1003094702
2630+1003168931+1003419595+1003752084+1003906935+1003744865+1003409217
2622+1003255945+1003524885+1004036366+1004369908+1004362237+1004216035
2614+1004128193+1004080136+1003991467+1003847296+1003678307+1003543611
2605+1003505933+1003618743+1003959354+1004531903+1005073467+1005206282
2597+1004867852+1004381264+1004083521+1004059003+1004188584+1004307561
2588+1004352535+1004404277+1004565295+1004805806+1004960958+1004895152
2580+1004687957+1004604102+1004809943+1005219368+1005674219+1006093647
2571+1006388307+1006437417+1006232178+1005894499+1005511772+1005076475
2563+1004619218+1004309592+1004340728+1004715408+1005185450+1005403550
2554+1005162587+1004542808+1003804880+1003159004+1002695204+1002427919
2546+1002249228+1002037521+1001934412+1002237721+1002953539+1003774872
2537+1004459253+1004938621+1005193572+1005246743+1005102722+1004675247
2529+1003970560+1003216838+1002647824+1002334512+1002276603+1002459506
2520+1002822679+1003264218+1003629422+1003784574+1003827517+1004040352
2512+1004500392+1004933507+1005041053+1004805505+1004484824+1004409767
2503+1004698185+1005078957+1005128594+1004728494+1004157674+1003701320
2495+1003309944+1002718668+1001845819+1000954844+1000319798+999853366+999307892
2485+998710223+998256351+997925742+997595358+997347101+997307843+997385005
2475+997391548+997246775+996983326+996710701+996545999+996537124+996675505
2465+996869312+996916166+996713409+996397841+996084154+995753094+995519276
2455+995575079+995844996+996108220+996324289+996507794+996618122+996826369
2445+997448404+998404508+999178987+999463645+999414309+999159584+998513483
2435+997434642+996382274+995917195+996202605+996998894+997846699+998256651
2425+998056150+997516617+997012130+996767483+996918347+997429452+997992901
2415+998313433+998417519+998514009+998715714+998983149+999209070+999341960
2405+999445746+999543665+999471391+999108970+998733312+998851010+999560586
2395+1000319122+1000503152+999999643+999099418+998102478+997267231+996874577
2385+997012807+997377861+997492852+997118322+996369940+995500850+994736148
2376+994326722+994490448+995123312+995809649+996302404+996723863+997151338
2366+997385080+997304609+997107417+996958282+996679190+995991875+994907544
2356+993777036+993047982+992854926+992790324+992357509+991585587+990980097
2346+990941666+991223993+991247607+991001982+990883155+990861571+990507047
2336+989673981+988832342+988692383+989487694+990618127+991146229+990632867
2326+989345704+987904818+986973833+987026854+988008302+989233947+989878769
2316+989661723+989005844+988542120+988581979+989034649+989588998+989905092
2306+989843422+989563427+989301407+989118053+988929359+988699377+988571901
2296+988768793+989249740+989612011+989576363+989356308+989261171+989239737
2286+989145503+989102861+989264781+989471750+989453249+989193786+988871976
2276+988596118+988450894+988631164+989183708+989769343+990102284+990406194
2266+990953699+991455780+991465782+991074406+990703111+990539912+990649338
2257+991277088+992493558+993784632+994578289+994963122+995304034+995544921
2247+995580720+995786636+996355575+996672872+996166355+995222134+994535797
2237+994123138+993589997+992844096+992039911+991277239+990725898+990594437
2227+990728230+990748761+990729057+991107347+991857985+992378266+992196040
2217+991306344+990039787+988935752+988480977+988818204+989762199+990814868
2207+991231814+990693183+989929383+990062499+991396592+993220958+994473902
2197+994230608+992048635+988516850+985368094+984427483+986059394+988658013
2187+989952321+989164832+987617603+986750619+986339163+985739765+985712089
2177+987050243+988532644+988559267+987992057+988965458+991556482+993528102
2167+992725571+988314770+980467396+970605383+961772952+957111411+957146232
2157+959587744+962482452+965397616+967863571+969348453+970412102+972245718
2147+975104552+978012798+979961706+980919088+981573687+982420064+983499883
2138+984791258+986093162+986675638+986029687+984774111+983784315+982899808
2128+981526232+980011643+979373965+979919214+980941725+981590759+981455312
2118+980549446+979185346+977739872+976413902+975305881+974547346+974148524
2108+973984122+974070685+974438446+974685576+974305180+973597484+973636592
2098+975081915+977437090+979639294+980979027+981251652+980495298+979087728
2088+977949850+978118764+979815955+982000335+983168672+982804070+981822772
2078+981399508+981752378+982308608+982581683+982610337+982819036+983438213
2068+983977446+983795821+983254934+983307353+983785443+983346235+981389130
2058+978961681+977520870+977393169+977656318+977396704+976922375+977349549
2048+978927387+980531021+981328363+981866241+982851375+983887423+984033399
2038+983095270+981901889+981501263+982396900+984250747+985823245+985604017
2028+983236433+980008259+977582314+976838369+977957822+980364287+982286497
2019+981688001+978391313+974656696+973002749+973713152+975019719+975553462
2009+975700265+976294699+977348196+978686124+980214325+981120717+980420542
1999+978424179+976441954+975196154+974481239+974081966+974317815+975564442
1989+977413701+978747417+978842253+977973615+976749926+975662211+975509240
1979+977092342+979979003+982564235+983690682+983303743+981795848+979653734
1969+977576298+976384947+976443910+977244410+977959777+978120118+977465744
1959+975935061+974301194+973833709+974676175+975406808+974801394+973304629
1949+972096357+971344591+970186783+968191171+966120203+965156504+965682500
1939+967098718+968557428+969462466+969634389+969345219+969105159+969227897
1929+969526843+969522857+969095608+968787787+969266327+970585303+972218869
1919+973585602+974160106+973657123+972563241+971795756+971700695+971890065
1909+972038975+972322354+972862489+973354491+973426013+972962438+972179762
1900+971547047+971360309+971375501+971153791+970630728+970055171+969639202
1890+969481268+969469310+969236320+968504257+967389016+966338303+965858935
1880+966183151+967061491+967951187+968443866+968459584+968176356+967899595
1870+967838978+967822658+967446925+966677936+965918198+965514337+965410402
1860+965252467+964853270+964454599+964401428+964667810+964902230+964851841
1850+964515968+963988467+963453597+963206392+963253848+963038606+962241189
1840+961299450+960742619+960643045+960669217+960465106+960002810+959678669
1830+959988521+960867011+961724067+962280672+962729958+963281073+963931611
1820+964587790+965232237+965977160+966918297+967965025+968904808+969527370
1810+969659884+969279338+968617443+968037524+967769788+967734967+967647652
1800+967374802+967037725+966652140+966077185+965442665+965245774+965724766
1790+966345071+966583853+966564224+966507969+966308671+965826069+965306767
1781+965120931+965209299+965174704+964874629+964601327+964761969+965412883
1771+966087563+966400875+966392827+966181797+965861040+965656478+965755375
1761+965896312+965637977+965000224+964270643+963547530+962880145+962570594
1751+962916170+963641012+964115943+964147680+963898671+963500526+963074254
1741+962802382+962705816+962527877+962194410+962111382+962562096+962807721
1731+962159514+961016221+959960243+959189449+958666913+958284787+957849791
1721+957303489+956975813+957339213+958270272+959004967+959346180+959661522
1711+960140965+960771348+961591403+962593307+963342742+963341990+962931737
1701+963091401+964129480+964975857+965045273+964794834+964319753+963453071
1691+962509000+961984433+961934571+962071372+962434395+963183229+963688844
1681+963392830+962629105+961784759+961091954+960754878+960708851+960611082
1672+960429684+960412085+960402008+959941818+959133796+958511987+958423544
1662+958660219+958727755+958390603+957647936+956703640+956277368+957125400
1652+957885740+957181730+955835002+955010736+955107151+955244178+954651022
1642+953441923+951988703+950620692+949721971+949759575+950537589+951048393
1632+950981534+950772083+950864813+951412544+952342476+953654608+955261475
1622+956534425+956888799+956491708+955306449+951584091+943439049+932404337
1612+922591661+918402419+921722045+929660494+937354446+942456548+945411120
1602+947224581+948316884+948807909+949001039+949362333+950110490+951037413
1592+951915527+952792738+953707253+954519410+955162729+955745657+956369497
1582+956977618+957376289+957516324+957749917+958383158+958617051+957198802
1572+954057415+950117033+947259477+947242254+949602618+952648041+955027958
1562+956163881+956564583+957659368+959866385+961215143+961241541+960549262
1553+958998274+955920061+950325731+940519598+923125027+892949971+846643291
1543+788035944+730930401+700991193+709400211+736321372+768514000+804621817
1533+839517300+864611614+879868432+890552078+899527553+906707919+911680965
1523+915263815+918487854+921157167+922742450+923626882+924370225+925232471
1513+926486242+928236830+930280273+932874455+936939906+941539627+944370560
1503+945733156+946717687+947715756+948694045+949267798+948423376+944437794
1493+933651942+908022081+858389157+791929548+738725130+721017248+736633179
1483+771190157+809347358+840633820+862363533+877214912+888321672+897342421
1473+904938680+910646948+913370259+912949703+909430328+902277263+892594017
1463+884902622+882743286+885781789+892667720+902185511+910954618+915866447
1453+918024730+919388680+920843480+922604747+924566891+926400808+927862225
1443+929008301+929888897+930390000+930628706+931148159+932211507+933043219
1434+932901003+931940387+930517926+928686416+926283861+923233024+919705677
1424+916114253+912819972+909833812+906950235+903924667+900406119+896013819
1414+890473337+883442408+874314037+862415351+847191999+828565091+809125573
1404+795641303+794563815+807131240+829335057+853449051+872945951+886738945
1394+896455282+903192003+907875278+911643813+915221173+918541626+921160702
1384+923030567+924504469+925813894+926845054+927289676+926760221+924509959
1374+919032727+908290494+890435583+864914095+835161024+809710456+797028642
1364+799882964+814394107+832278875+847113333+858063737+866840817+874675782
1354+881904881+888415229+894148014+899309153+904107570+908495658+912235991
1344+915138295+917277777+918980157+920475418+921593216+921932173+921208984
1334+919287602+916237066+912728971+910176003+909911576+912028872+915319919
1324+918429794+920803394+922606552+924193715+925802763+927520486+929342520
1315+931223140+933087516+934862094+936472045+937747777+938431031+938380567
1305+937668885+936353369+934175231+930490476+924449042+915307886+902682928
1295+886504451+866827280+843998194+819127921+794281414+772309309+756595309
1285+750368490+755186686+769535533+789180215+809192056+825394675+833996523
1275+830815954+811625671+774052602+721233017+665196839+624712854+615435461
1265+638981418+681259122+722227476+747308026+751113338+734698561+702522478
1255+661695513+621530555+591339931+577443678+581617051+601598659+632705565
1245+669524536+707215681+742323698+773037536+798891062+820147650+837303890
1235+850937897+861720140+870357410+877455499+883383295+888260002+892130367
1225+895143000+897504191+899304265+900458538+900776662+900065207+898204892
1215+895115474+890495147+883490014+872797643+857327990+836356435+808192709
1205+769096476+715775864+651051651+586786237+539207811+519543388+528133729
1196+556659050+595093651+636551638+677322349+715007552+747957737+775705345
1186+798766670+817843465+833435555+845979140+855974569+863949117+870378092
1176+875602479+879817818+883184975+885911521+888216758+890277724+892187750
1166+893933901+895468419+896829662+898157512+899619907+901353649+903411005
1156+905732788+908188138+910640480+913006334+915289085+917493019+919529392
1146+921340295+923037787+924717004+926210986+927190027+927319383+925985666
1136+921713547+911759707+892165263+858762107+810070621+751102884+693102832
1126+645821623+609340593+577223849+549232270+536725838+552128257+595300206
1116+652821266+708670856+753445424+785517571+807416575+822443938+833183462
1106+841291202+847730931+853010972+857341903+860776220+863310913+864929889
1096+865717905+866048439+866535026+867627329+869317150+871366233+873737277
1086+876618447+880028698+883557474+886585072+888730721+890097905+891159749
1077+892391636+893934427+895615072+897269170+898935526+900729132+902654274
1067+904571821+906266455+907519550+908196787+908394204+908505886+909000672
1057+910013331+911213104+912103627+912435966+912410621+912534036+913144714
1047+914038396+914732780+915119794+915595402+916455767+917439923+918041953
1037+918095876+917904475+917934257+918485748+919526384+920758270+921884341
1027+922798178+923521216+924065713+924349919+924046987+922252403+917308010
1017+907866930+895426755+885416435+883648850+890852755+901975383+911261913
1007+916685448+919393493+920908684+921942025+922797577+923687724+924570952
997+925048665+924599681+922823899+919197053+912400167+899840639+878011953
987+844429204+801057468+756409397+722579293+708304825+714435153+735639924
977+765053211+796912898+826775621+851550231+869822088+881640604+887964816
967+890274490+890045711+888155991+885031301+881440629+878775904+878468158
958+881328496+887298935+895447512+904209324+912014357+917974567+922048893
948+924648340+926207150+927042171+927304041+926884688+925486519+922931069
938+919449146+915631501+911941481+908168810+903471321+896953301+888032426
928+876476382+862741522+848564146+836890779+830749922+831750999+839259341
918+850667228+862322846+870112988+868546882+849534163+806515673+745971602
908+693383955+678288380+708688680+764631451+818477684+856120620+878419198
898+890971657+897903764+901510831+902849586+902214917+899952171+896698351
888+892858970+888251880+882371012+874871094+865739189+855079684+842870017
878+828975870+813338129+796065393+777309129+757126870+735445364+711929565
868+685936907+657015998+625547198+592722457+560065690+529067759+500914035
858+476289012+455423912+438132826+423710878+411055386+399006211+386563704
849+373063715+358541704+344095953+331835071+324236819+323358292+330492141
839+346039596+369141533+397595670+428645569+460018857+490304505+518703479
829+544755061+568299213+589462394+608504858+625705132+641411724+656017779
819+669744290+682548391+694289143+704830724+714048515+722047205+729399493
809+736817962+744434978+751600527+757466428+761605583+764116887+765451731
799+766247193+767247593+769401214+773754256+780616798+788817493+796436840
789+802350949+806603139+809458062+810659114+809501381+805136532+796574017
779+782448007+761391018+733550755+701550656+668782170+636628650+604213448
769+570623027+536293737+502305962+469554773+439243028+413823935+397254946
759+394411191+409386435+442675540+489266765+540121648+586425245+623027696
749+648523125+663089245+666803706+659877615+644596881+627179259+616679381
739+620199997+638255447+664949484+692521559+715776691+733269181+745766889
730+754515466+760683924+765375773+769454461+773383938+777291832+781024268
720+784165955+786278212+787234616+787190395+786142313+783670117+779304139
710+773016704+765147821+756150987+746858967+738860352+734241980+734860556
700+741548542+753520180+768609889+784337502+798826384+811082979+820878885
690+828507181+834542072+839540614+843632463+846281546+846396462+842527225
680+833501888+820334238+807885940+802807905+808150593+820334012+832981683
670+842492254+848512103+851848726+853608865+854748323+855643058+856178605
660+856157923+855756921+855418415+855342231+855267701+854728393+853433408
650+851435089+848879488+845443668+840029458+831193717+817887160+799795348
640+777328081+751650314+724814738+699995155+681326582+672563566+675357497
630+688572227+708876697+732270285+755485482+776258115+792959881+804189679
620+807833671+800495899+780818277+756038854+741704822+749566485+776701835
611+808974032+834008330+848852038+856794323+861367796+864502338+867292434
601+870145703+872552319+873905289+874664501+876000624+878305034+880756474
591+882477355+883508740+884452434+885697031+887139722+888326109+888809989
581+888548946+887999110+887737766+888018664+888804574+890066318+891701012
571+893290432+894362579+894723572+894339867+893487849+893018935+893387147
561+893538915+892040796+888713348+883303726+873033417+853449878+822288786
551+782951366+745508705+723250062+724582274+746519709+777197297+805414120
541+827091941+843723012+857497205+868718203+876073575+877948329+874316444
531+868464230+865752951+869284886+877341184+885629044+891611441+895592962
521+898243097+899315922+898610934+896735578+894704018+893438438+893580805
511+895163832+897513517+899781752+901444348+902324493+902515668+902368413
501+902446629+903379117+905448807+908061715+909781919+909451386+907459008
492+905464600+904566481+904069891+902659915+900634747+900089724+902367436
482+906371820+910331380+913751332+916594749+917990060+917159477+915069857
472+913922803+914731652+916510743+917721346+917462334+915839598+913749452
462+912038348+910897386+910432157+911422104+914439173+918654888+922514423
452+924878698+925890530+926915673+928785463+930516798+930650817+929274307
442+927545906+926145105+925258643+924691884+922865714+917223553+907017094
432+894670626+884228920+879071617+880287635+886721422+895875062+904414263
422+909530127+910660786+909950007+910646572+913062589+914926212+914835061
412+913012350+910221954+905802128+896947661+880130152+852686154+813566532
402+764438170+711791937+671303477+666468209+702373569+750795364+783714038
392+790384350+771905148+741321568+720357986+727007166+763551933+813367986
382+855470834+882633860+899463327+913629798+930660518+946920670+951311993
##END=
