##TITLE=LSH-R205A
##JCAMP-DX=5.0
##DATA TYPE=LINK
##BLOCKS=1


$$ === CHEMSPECTRA SPECTRUM ORIG ===
##TITLE=LSH-R205A
##JCAMP-DX=5.00
##DATA TYPE=INFRARED SPECTRUM
##DATA CLASS=XYDATA
##$CSCATEGORY=SPECTRUM
##ORIGIN=Angelika Moesle
##OWNER=
##XUNITS=1/CM
##YUNITS=TRANSMITTANCE
##XFACTOR=1.0
##YFACTOR=8.6301932e-10
##FIRSTX=3997.453
##LASTX=373.96442
##MAXX=3997.453
##MAXY=0.9266599379410203
##MINX=373.96442
##MINY=0.5813008527496594
##NPOINTS=2559
##XYDATA= (X++(Y..Y))
2559I70042009I70594393I71198161I71605439I71627540I71328418I71075225I71186558
2551I71560892I71793987I71613865I71142011I70745438I70604683I70483750I70103408
2543I69644055I69546880I69886059I70330909I70610899I70692811I70682934I70743435
2535I70910642I70978741I70778037I70429465I70104513I69799728I69531686I69486379
2527I69755526I70030337I69844758I69293479I69049747I69320415I69491144I69148926
2519I68779565I68905264I69331949I69650823I69692055I69364133I68667748I68091882
2511I68344040I69426844I70561517I71027017I70926458I70929497I71255278I71472143
2503I71119772I70225929I69283465I68673826I68339965I68220413I68689504I70082757
2495I71850205I72664485I71760145I70064455I68811128I67979997I67518364I68083387
2487I69746824I71358461I71426767I70050089I69531133I70941584I72420547I71881769
2479I70239673I69747653I69888960I69175861I68602896I69575956I71328349I72544450
2471I72928591I72293605I70194643I68015703I67788548I68994427I69673615I69065633
2463I68149828I67932065I68793378I70712356I72634373I71815259I66924058I63234523
2455I63957982I66762238I69574023I71487268I72197466I72068521I71809319I71352729
2447I69918037I67746142I66286448I66042716I66376507I66881514I67736818I68983446
2439I70164876I71083996I72114450I72818432I71528776I68633906I67660570I68970184
2431I69520842I68365864I67687989I68564081I70106032I71084480I70767884I70001467
2423I70494317I71762355I71469242I69307983I67956653I68166956I68473744I68283676
2415I68165091I68426158I68961207I69706559I70445073I70658623I70184974I69743094
2407I69971700I70370138I70037519I69151067I68650206I68871422I69586592I70311294
2399I70289539I69239194I67959139I67111018I66696005I66995748I68160119I69238987
2391I69024678I68064878I68317932I70377044I72985569I73989433I71872376I69023572
2383I69061075I70887367I70926320I67865141I65303028I65866324I68178283I70034688
2375I69797932I67379820I64919854I64265736I65099768I66551313I68085183I69197410
2367I69440588I68885373I68201834I68149552I68948568I70109762I71168946I72190698
2359I73031843I72598873I70042423I67082770I66079527I67074551I69033242I70845721
2351I71342922I70199892I68753596I68346111I68955681I70091183I71536926I73025696
2343I73622144I71932601I68300528I65716590I65677499I67062672I68536041I69623680
2335I70631826I71834045I72362463I70757525I68485761I68679006I70223167I69890410
2327I67406202I65975171I66759821I68326290I69409578I69795929I69946353I70078543
2319I69679140I68592536I68310474I70167293I73230061I74433037I70800690I65148805
2311I62944726I64374376I66996438I68949258I69731284I69936201I70076127I69944489
2303I69442245I69322763I70186769I70890336I69108661I65591512I64396684I66165998
2295I68972602I71167634I71522422I69746686I67808229I67836755I69181939I70085244
2287I70094775I69797172I69187464I68049338I67230570I67598618I68610079I69062871
2279I68473882I67527618I67029106I66818181I66330926I65823572I66277607I67996779
2271I69987862I70564487I69153139I67470917I66944708I67208745I67443429I67397086
2263I67310271I67319871I67311514I67367457I67921015I69183182I70556199I70707936
2255I68852222I66455243I65475829I65783100I66198251I66174009I66152737I66710854
2247I67667891I68267930I68161017I67921222I68117229I68325047I67794625I66686888
2239I65918054I65879239I66258683I66741519I67152042I67352055I67353782I67330024
2231I67445570I67784818I68269794I68570228I68362480I67733296I67082217I66690203
2223I66570996I66642755I66846912I67098862I67311928I67494399I67623482I67457725
2215I66815142I66058739I65779509I65991263I66167724I65975930I65658714I65689655
2207I66244525I67043126I67542744I67405028I66815833I66204191I65770599I65452208
2199I65238451I65308622I65758513I66322845I66580113I66508700I66573137I67019575
2191I67380994I66995886I65936562I65009915I64793740I65165450I65779440I66447577
2183I66982833I67183674I67065435I66754019I66247357I65615410I65223188I65395989
2175I66032287I66748080I67219934I67293143I66999063I66553247I66139270I65744424
2167I65372093I65212828I65410286I65845535I66283478I66525621I66405240I65925789
2159I65436669I65358140I65752988I66362557I66887730I67064537I66772874I66253089
2151I65921023I65881311I65933939I65979245I66083603I66261170I66469401I66721835
2143I66993745I67072894I66689305I65885731I65161513I65033328I65442194I65861282
2135I66001899I66056460I66166274I66150182I65961496I65876614I65985530I65998860
2127I65753816I65432593I65136511I64750851I64332523I64175606I64441369I65034364
2119I65745667I66293630I66444054I66305164I66255299I66378581I66272773I65661131
2111I64891951I64511194I64596973I64848440I65050456I65146802I65150877I65258411
2103I65690138I66236513I66354477I65896091I65360214I65297019I65728884I66243903
2095I66444952I66237826I65782824I65267666I64787248I64388604I64098184I63874827
2087I63640143I63422864I63408015I63734210I64240321I64543931I64451177I64188591
2079I64110961I64290117I64560645I64840636I65134854I65327822I65287833I65103153
2071I64978490I65028977I65295499I65727641I66091753I66158193I65980281I65775365
2063I65623420I65428864I65056948I64455459I63786424I63407394I63575775I64191353
2055I64901551I65396404I65540750I65294323I64715213I64085545I63781865I63837808
2047I63864467I63608097I63367681I63632270I64431355I65245703I65571691I65406833
2039I65082847I64809763I64578740I64390606I64326928I64377898I64396477I64326376
2031I64351654I64663759I65132022I65368501I65129536I64547523I64023525I63965026
2023I64476109I65199568I65604981I65477417I65015164I64530187I64222225I64165592
2015I64323061I64591034I64917782I65316841I65740556I66068409I66223391I66156605
2007I65790145I65155849I64504425I64132648I64184792I64582953I64986432I64995066
1999I64618453I64319193I64409392I64682338I64773919I64607817I64404765I64463954
1991I64926484I65591789I66042095I66061986I65803751I65457112I65019584I64529013
1983I64199089I64148533I64284799I64534193I64829931I64893954I64485226I63860185
1975I63585098I63912053I64568242I65085955I65189070I64934772I64570936I64317052
1967I64288942I64488886I64751403I64807208I64531431I64094938I63819230I63888088
1959I64209725I64541514I64673567I64520725I64192527I63953354I63942787I64018621
1951I64045626I64125948I64329967I64467752I64402140I64332937I64478181I64709135
1943I64765216I64624254I64376999I64005566I63560788I63252894I63099846I62825726
1935I62284531I61633176I61036729I60533520I60142403I59870908I59698866I59649761
1927I59737543I59876433I59962143I59987973I60049717I60290479I60759984I61283016
1919I61612319I61727105I61839682I62088316I62322931I62255384I61789264I61139291
1911I60653762I60610251I61104413I61959579I62779383I63175265I62870825I61630621
1903I59314173I55988059I51915696I47650571I44215818I42769937I43775873I46557959
1895I49730679I52036491I52839374I52045608I49806996I46418378I42429791I38716222
1887I36284020I35775285I37052025I39369165I41977068I44404643I46319753I47600154
1879I48523280I49464501I50415668I51125866I51548338I51821836I52019708I52196101
1871I52484517I52922943I53310469I53372904I53034553I52488109I51957411I51416561
1863I50704084I49942571I49581567I49922196I50791728I51757536I52540391I53167573
1855I53768440I54315161I54677408I54876178I55053537I55206310I55225303I55193740
1847I55334909I55631406I55788115I55654543I55442098I55401074I55476009I55447762
1839I55302102I55263634I55489270I55878936I56220326I56433530I56586648I56685204
1831I56598113I56324614I56161827I56371509I56828445I57206923I57361076I57328339
1823I57157403I56921062I56762557I56792807I56986674I57205749I57292287I57176810
1815I56925689I56708064I56710413I57023002I57537400I57960286I57988879I57530632
1807I56806206I56196705I55913331I55863947I55872927I55918027I56094074I56443890
1799I56824923I56939157I56640311I56219082I56172118I56695011I57565509I58385521
1791I58791210I58637126I58113680I57562402I57201259I57117414I57344293I57824642
1783I58428273I59033560I59508039I59722210I59659982I59398570I58998406I58537050
1775I58152633I57960425I57995233I58202084I58419156I58516055I58578766I58734784
1767I58841145I58679187I58378891I58283512I58450097I58600798I58528693I58291800
1759I58018301I57749568I57518062I57407556I57420542I57412530I57270463I57062438
1751I56938259I56987710I57200914I57450723I57570413I57570897I57635749I57793770
1743I57834657I57674287I57514816I57527800I57645901I57758132I57874369I58028454
1735I58181986I58276398I58311967I58350920I58443329I58538224I58514880I58314177
1727I58004350I57732578I57638719I57765246I58008701I58203258I58264933I58228052
1719I58175908I58175010I58213342I58186337I58029973I57847158I57791905I57853442
1711I57885143I57818357I57729056I57708682I57777402I57903998I58037640I58155396
1703I58313417I58538570I58627594I58283512I57589130I57082536I57166174I57661784
1695I58086331I58148213I57866427I57436496I57087302I56964158I57100977I57441952
1687I57777402I57780924I57341462I56782724I56553496I56776508I57239729I57683335
1679I57946266I57961737I57773189I57506528I57254163I57076735I57103187I57422613
1671I57844809I58031631I57927135I57795497I57789418I57737413I57437393I56981770
1663I56687414I56753164I57065339I57362665I57522344I57600249I57666276I57748601
1655I57900200I58188202I58578144I58905099I59034320I59032110I59075207I59216860
1647I59370668I59472539I59482623I59284198I58794457I58137508I57533878I57054496
1639I56623252I56252717I56114380I56291808I56570625I56653434I56539683I56505496
1631I56686861I56887427I56899099I56834659I56934391I57156781I57241455I57166865
1623I57243182I57665585I58223701I58547134I58472474I58121070I57759721I57616756
1615I57730852I57936459I58008494I57816216I57404104I57028665I57017960I57422061
1607I57883900I58036604I57888942I57672353I57566960I57715519I58152633I58592579
1599I58689892I58550863I58551416I58702945I58672902I58356583I58022860I57933005
1591I58068995I58229503I58300087I58402028I58672556I58956067I58940944I58575727
1583I58087505I57635887I57216247I56883421I56812146I57090824I57594931I58102699
1575I58462874I58638162I58646933I58511911I58263207I57963463I57732578I57723945
1567I58032598I58613644I59286201I59786026I59826429I59291243I58470402I57964498
1559I58157468I58810756I59249458I58988046I58199528I57506182I57250434
1552I57146145I56818705I56432425I56419441I56783207I57099664I57134059
1545I57074317I57149391I57356311I57660336I58149594I58802054I59325154
1538I59464459I59293108I59007178I58672625I58386626I58389044I58781818
1531I59368043I59894321I60208014I60199175I59918701I59665922I59644650
1524I59682705I59553691I59338967I59225424I59192963I59117682I59004345
1517I58956622I59020991I59172451I59392285I59661571I59897221I59989009
1510I59924917I59795281I59676903I59612189I59647343I59772420I59884858
1503I59925400I59975749I60136049I60371838I60566809I60684358I60776215
1496I60867243I60957373I61124373I61446286I61776349I61755767I61179003
1489I60287647I59582767I59320319I59350156I59526479I59994534I60763576
1482I61280253I60944803I59950954I59094614I58810894I58865594I58922987
1475I58935488I58967603I59022717I59049998I58913870I58503485I57991849
1468I57737482I57872574I58261479I58756609I59160640I59162091I58697972
1461I58152840I57914358I57962566I58032045I57954140I57802680I57817529
1454I58105600I58431449I58512394I58448025I58582910I59025963I59525029
1447I59739200I59514738I58992259I58480348I58145934I57911112I57733476
1440I57774708I58121761I58543542I58703774I58492020I58077697I57783963
1433I57891290I58382620I58908000I59155875I59152698I59074516I58963321
1426I58811101I58709299I58687682I58597759I58382344I58281164I58535186
1419I59016778I59356440I59359065I59179979I59143996I59410864I59799425
1412I60041982I60197655I60470877I60673169I60468046I60110426I60068365
1405I59989009I59132462I57729470I56741837I56420960I56191387I55779481
1398I55588586I56065826I57222946I58709161I59993291I60539943I60191716
1391I59379785I58632844I58128806I57806616I57519512I57120867I56635062
1384I56288424I56280067I56590032I57015198I57282204I57122111I56477525
1377I55726164I55428907I55723885I56252579I56670907I56910357I57117759
1370I57552594I58249808I58754053I58612815I58047999I57633401I57479938
1363I57294152I57108781I57393744I58357135I59501547I60075548I59826084
1356I59143167I58550035I58233440I58028523I57710823I57286831I57015888
1349I57064441I57266664I57443402I57696388I58014019I57946266I57191659
1342I56205684I55726026I55926108I56348027I56489816I56340223I56430698
1335I57187654I58241313I58838313I58911591I59125141I59904542I61018565
1328I61958128I62212910I61531029I60408788I59860824I60254772I60837752
1321I60776215I60180251I59739062I59783057I60108768I60436759I60634562
1314I60589324I60237644I59663574I58889698I57789488I56588789I56062719
1307I56645146I57739347I58437665I58519922I58331167I58205952I58417775
1300I59125003I59934448I59995501I59011460I57765108I57036815I56525249
1293I55794746I55737698I57588646I60753769I63144117I63508436I62187701
1286I60169269I58505557I57868981I57915739I57783756I57328478I57057395
1279I57147802I57378205I57588094I57529319I56842673I55836185I55733070
1272I57470821I60447740I62943966I63697260I62822342I61512517I61302906
1265I63276308I67243485I71637071I74587607I75281298I74214448I72255895
1258I69951532I67652627I65714933I64416161I63805762I63698020I63806591
1251I63828346I63525150I63001221I62744574I63068767I63762320I64505324
1244I65126290I65319741I64850029I64057712I63449385I62973388I62333567
1237I61694575I61403673I61305531I60913309I60100757I59277430I58933554
1230I59217688I59995501I61105932I62287155I63070010I63233142I63160416
1223I63218500I63079196I62194608I60670890I59278051I58747354I59139576
1216I59784507I60020779I59997297I60364862I61263056I62050469I62048535
1209I61253318I60266997I59631804I59338829I59076450I58801432I58769317
1202I59109256I59688852I60243376I60357541I59618474I58230539I57292425
1195I57867808I59663159I61212224I61590978I61296691I61264368I61692711
1188I62096258I61943694I61013454I59533938I58122452I57295395I56943646
1181I56603431I56190697I56070936I56508121I57497755I59072582I61001368
1174I62241020I61881259I60762402I60546987I61160494I60992044I59531383
1167I58041507I57625942I58161128I59186057I60561077I61927671I62426460
1160I61732147I60907920I61322659I62916685I64236246I64293224I63669082
1153I63224923I62748856I61927049I61401048I61721166I62425976I63070493
1146I63949210I65083607I65863285I66185267I66529074I66712718I66158332
1139I64984568I63580333I62060000I61128655I62023188I64419269I65896367
1132I64977661I63111587I62193848I62237083I62428877I62771165I63678268
1125I64661619I64543034I63064692I61309468I60365346I60249523I60504029
1118I61053305I61739813I61684837I59948537I56738522I53576508I52110253
1111I52694061I54258734I55630923I56603914I57496099I58292007I58803435
1104I59055523I59135846I59115334I59218448I59631320I60211054I60705216
1097I60901637I60382128I58980035I57763035I58225635I60249385I62105030
1090I62489378I61720199I60618539I59602589I59000064I59143996I59996744
1083I61060280I61766127I61937064I61900183I62049225I62431985I62872898
1076I63151092I63004053I62426322I61820549I61461618I61175412I60780359
1069I60369973I60010350I59712196I59648656I59949918I60441317I60883266
1062I61223619I61426395I61385715I61159113I60925603I60646372I60143163
1055I59604108I59322598I59138816I58768212I58219419I57620554I57018651
1048I56584714I56599218I57090272I57824642I58573862I59127282I59208088
1041I58522132I56787420I54070117I51327605I49550349I48739730I48463953
1034I48338807I48134857I47998798I48270156I49032773I50205571I51831782
1027I53682799I55021284I55436919I55537616I56086615I56976866I57686650
1020I58070515I58366045I58699768I58922504I58861450I58598449I58427168
1013I58504590I58756678I59051585I59224250I59035701I58407553I57720630
1006I57527316I57973133I58637402I58761581I57987705I57136200I57120384
999I57739968I58288968I58391461I58246424I58156570I58121347I58095792
992I58236340I58609362I58841076I58249532I56783829I55649778I55632097
985I56248711I57005667I57842254I58606737I58967051I58945709I58806336
978I58387248I57555978I56851513I56772502I57081638I57239867I57154295
971I57255268I57735272I58366943I58885208I59134188I59030176I58765311
964I58834031I59278949I59229084I57803232I56067415I55462542I55526772
957I55552465I55532781I55689974I56127018I56900273I57931970I58831959
950I58947712I58062986I57214451I57289525I58078941I59092404I59979133
943I60492978I60463764I60136049I60186605I60687604I60709912I59520125
936I57882795I56333385I54708833I53968039I54783976I56398376I57921265
929I59220934I60446290I60980786I59866280I58284479I58105669I58952133
922I60063807I61068361I61636630I61733597I61855083I62159937I62108760
915I61524537I61184390I61368173I61469630I60961516I60241028I60213195
908I61140603I62737461I64469341I65098732I63177890I61005719I60791616
901I60853775I59354091I56649014I55110931I55106994I55588239I56145045
894I56890051I57655225I57783341I57476275I58063056I59720691I61708941
887I63372032I64565618I65576940I66466639I67083461I67724939I68666022
880I69115567I67318904I62451807I56799921I52389965I48988089I46512100
873I45686563I46861086I49458769I52733567I56190904I59379715I61982647
866I64061649I65857760I67516016I69097887I70590939I71866298I72820020
859I73558050I74395537I75678424I77521982I79713768I81950239I84119302
852I86315439I88751647I91591402I94533996I96958049I97864668I94320032
845I82510911I64833591I49543305I41350301I40259899I43730980I49072349
838I55229585I61565216I67097481I72449002I77841478I82412907I85365792
831I86603096I86901872I87753654I90469437I95208073I98903686I90086194
824I56244913I15336115H88379465H74217221H69379891H72725688H80222859
817H87384097H93062020H97655066I01753743I05842475I10090057I14408016
810I18535147I22273098I25538503I28244825I30578816I33023449I35863620
803I38966790I42017126I44645542I46467760I47611964I48273056I48547384
796I49050524I51207225I56556535I64778891I72715524I75660121I67669825
789I45083278I17445851I01973095I00404692I04184011I07928936I10462388
782I12319691I14250271I16633713I19413037I22229725I24690451I26770213
775I28773036I30662385I31718185I30473837I25836589I19539219I14744710
768I12753489I13483923I16412704I19971844I22746333I24834037I26398573
761I27290067I27389797I27000269I26977201I27968080I29811087I31968547
754I34069788I35918527I37203624I37702896I37946351I38535892I39302240
747I39898412I40393333I41048210I41747634I42209197I42543611I43128455
740I43960070I44625583I45016423I45503609I46035481I45991831I44713088
733I42035705I38611933I35380230I32661617I30265743I28458720I28028305
726I29366583I32088237I35160259I37548121I38943515I39736523I40492027
719I41343947I41915669I41809930I41288833I41240004I42160229I43845491
712I45809292I47495865I48441023I48465127I47767292I47013652I46916476
705I47059580I45724687I41576214I35655595I30785735I28961515I30146744
698I32760104I35281400I37264194I38801172I40031362I41116446I42214653
691I43358788I44389725I45089148I45450429I45744025I46239430I46938371
684I47612516I48047282I48246950I48393783I48660858I49049212I49049695
677I47530052I43825116I39251339I36564079I37318617I40469443I43904058
670I46535789I48483498I50067993I51374777I52457236I53424012I54341544
663I55191184I55891713I56345679I56455562I56179163I55715872I55503843
656I55778999I56254927I56486917I56413432I56351550I56623459I57308932
649I58243661I59136813I59712886I59849566I59691545I59586566I59800668
642I60251526I60449743I59790585I58196766I56351688I54828937I53275867
635I51246108I49596485I49976136I52843380I56871473I60408926I62866475
628I64601117I66128357I67816934I69893864I72392852I75293799I78772961
621I83227324I88686587I92914624I89861249I73351408I45417968I18417323
614I04785846I06110241I14917165I24107402I31298683I36736190I41004906
607I44579861I47744776I50587295I53158594I55466962I57447684I59084116
600I60458031I61680141I62822204I63896445I64824198I65271327I64657682
593I62863505I60946806I60510797I62235840I65449170I68957201I71860289
586I73744044I74570686I74525448I73879343I72987642I72404869I72823750
579I74641961I77589528I80996033I84383822I87627402I90711856I93607072
572I96288737I98733164A000945254A003027088A005204854A007764412A010873177
565A014446475A018154864A021122184A021233448A015521268A002709526I85859608
558I71627332I65979936I70343202I81397303I93156421I98252469I89148910
551I62615906I25312452H92191521H75848750H77585672H89741570I04354741
544I17635436I28818066I38280489I46599329I53739157I58797979I60710188
537I59125141I53919969I42909035I21852353H90930735H60866701H47011245
530H55547641H78996191I05302868I27325704I43802739I56003737I65645039
523I74249326I82757128I91375574I99881235A008155735A016411657A024906545
516A033612841A042229076A050409026A057869869A064191826A068775893A071423786
509A072806680A073741823A073450506A068187043A052165287A021195117I75811167
502I20983581H64674199H17267191G88430722G80777050G87847536H00149783
495H11869534H21625277H29814965H36936007H43200501H48550641H52924267
488H56463792H59433597H62008695H64212222H66142250H68169592H70695170
481H73771958H77083291H80157731H82620114H84395091H85631773H86502272
474H87238300H88117155H89164046H90121705H90881768H91706752H92951515
467H94674348H96502643H97896587H98639177H99052601H99725573I01064403
460I03048233I05341061I07582091I09500171I10866765I11506931I11252356
453I09935144I07856003I06215013I06397622I08655434I11925742I14967721
446I17260757I18857821I19906715I20553097I21031926I21588178I22350106
439I23354245I24618001I26135917I27791895I29203727I29781181I29281701
432I28337787I28082591I29141085I31207793I33589646I35815205I37551229
425I38286498I37523189I35055142I30624468I23738454I14551603I04570155
418H95859577H90057820H88462965H91464748H96020706H94205188H76933212
411H41686107G97067401G58300938G36919304G34428673G44744673G60564068
404G77154577G92554470H06416488H18878966H29976509H39696683H48121746
397H55327185H61350918H66272024H70085116H72456265H72646332H69624797
390H62386206H50668596H35934837H21690406H12174665H10008157H14815443
383H24001467H34687864H45004140H54111567H61720762H67872957H72882812
376H77118307H80821102H84148044H87150035H89678790H91545692H92796602
369H93715653H94618682H95702522H97010895H98488200I00033742I01535152
362I02949125I04356260I05871966I07503702I09015954I09918223I09859655
355I08948063I07333939I05042492I02963352I03172620I07139521I14154133
348I22274065I29936302I35379403I34875918I23957461I02791656H79523159
341H64984924H63233360H69125179H74701921H75481668H71407716H65157242
334H60347193H59579256H63114568H69303919H76149736H82473281H87934409
327H92462119H96069397H98990581I01523963I03783778I05759459I07409220
320I08687549I09693206I10678838I11785609I12940656I14030368I15017794
313I15936638I16856932I17761549I18473197I18840486I18978202I19159637
306I19446050I19608768I19511524I19492807I20293066I22439545I25613093
299I28773934I30485232I28455612I20409441I08126256H99269259I01162130
292I12944800I27069056I37724376I44692576I50136920I55186419I59742515
285I63503740I66429136I68173932I66750980I58048897I37852214I05569460
278H66319817H28262171G96469158G69454562G42565181G14626492F90270770
271F75736334F73566442F81689206F96142490G13442921G31108085G47489810
264G61707375G73654074G83958402G93490926H02500833H10486088H17053917
257H22497916H27436842H32265884H37005556H41448661H45390975H48801831
250H51869157H54889449H57975216H60897366H63384682H65454499H67245913
243H68759823H69991326H71133872H72490935H74216047H76143727H77941427
236H79463625H80815922H82105785H83378796H84679778H85918118H86861825
229H87437691H87852220H88401842H89338989H90783557H92563990H94261890
222H95475229H95927675H95432823H94064364H92477728H91815392H92904689
215H95438141H98204480I00183338I01192588I01579008I01699872I01875989
208I02472782I03540254I04835020I06115421I07122669I07681407I07851445
201I07893437I08138964I08673253I08941157I07963745I05382432I02308890
194I00700567I01629150I04432439I07558470I09858619I11168442I12037145
187I12984374I14007369I14878213I15597734I16272640I16949272I17743315
180I18848636I20469873I22409157I22995380I19633078I12381366I05839298
173I04935372I09401959I14786632I18052728I19630178I21109210I23137519
166I25279854I26927681I28102827I29327423I30910260I32734273I34634673
159I36668299I39055332I41992815I45477019I49153707I52263854I53967970
152I54080477I53169092I50767555I42852885I23313083H91306796H56402116
145H32283564H25135242H30249869H39343967H48441863H57513238H66229065
138H73065420H77392220H80332466H83316568H86673830H89814157H92285105
131H94227012H95915589H97259599H97934573H98001290H98060272H98438957
124H98662521H98366922H98121464H98403388H98526117H97764465H96861645
117H97211598H98915781I00722737I01663406I01741864I01238102I00464708
110I00155228I01048380I02907893I04851044I06661382I08669592I10758471
103I12337371I12765852I11284333I07546660I02871979H99936084I00423339
96I03473537I06905666I09423439I11271556I13207110I15265600I16535986
89I16157094I14249719I11987901I10845769I11293312I12244202I12338062
82I11523782I10581871I09812484I09193038I09218108I10432966I12422183
75I14060618I14653474I14780900I16001006I19333267I23713730I26845977
68I27810197I27429924I26822702I26424817I26037983I25465846I24881762
61I24548384I24447894I24490852I24930936I26034943I27395668I27947430
54I27215960I26307061I26854265I28911788I31051291I32125394I29724686
47I17609812H91072388H58281589H39670507H46691957H69487495H91203957
40I04827423I13397868I20631900I26789896I31012753I33251019I33361178
33I31063723I28559348I28935063I31948932I34608497I29426393I03780808
26H50197156G80492777G23506004G02275899G16112224G48690854G86538058
19H23986756H54757673H70505309H73778795H74464337H77567713H83124912
12H89782801H96110836I00083193H99177195H93355271H86973711H84136510
5H85608843H89934469H93962907H93835551H89631065
$$ === CHEMSPECTRA INTEGRALS AND MULTIPLETS ===
##$OBSERVEDINTEGRALS= (X Y Z)

##$OBSERVEDMULTIPLETS=
##$OBSERVEDMULTIPLETSPEAKS=
$$ === CHEMSPECTRA SIMULATION ===
##$CSSIMULATIONPEAKS=
##END=


$$ === CHEMSPECTRA PEAK TABLE EDIT ===
##TITLE=LSH-R205A
##JCAMP-DX=5.00
##DATA TYPE=INFRAREDPEAKTABLE
##DATA CLASS=PEAKTABLE
##$CSCATEGORY=EDIT_PEAK
##$CSTHRESHOLD=0.93
##MAXX=3997.453
##MAXY=0.9266599379410203
##MINX=373.96442
##MINY=0.5813008527496594
##$CSSOLVENTNAME=- - -
##$CSSOLVENTVALUE=0
##$CSSOLVENTX=0
##NPOINTS=23
##PEAKTABLE= (XY..XY)
405.12812162627006, 0.6060776688073687
434.8752913604376, 0.7246518699751952
576.5284805707583, 0.7121076554588754
755.0114989757622, 0.5813008527496594
789.0082643862388, 0.7760867443990839
844.2530081782638, 0.7418335049992258
854.1687314229866, 0.7449870673485152
871.167114128225, 0.7792748180279606
917.9126665676308, 0.6990526888485932
949.0763681939011, 0.6338261339609623
1077.980770375293, 0.673825678762606
1124.726322814699, 0.7309870686922534
1148.8073649804533, 0.75587439264785
1242.298469859265, 0.7808476655605446
1327.290383385457, 0.8082728945950063
1364.1202125801406, 0.8017117349814697
1402.3665736669273, 0.8009063567218525
1460.4443812431587, 0.7877238954044075
1485.9419553010162, 0.7770666450146494
1534.1040396325252, 0.7502916423524941
1563.8512093666927, 0.8114624586582486
3044.1270366145427, 0.8075921501335062
3061.125419319781, 0.8136286699461828
##END=


$$ === CHEMSPECTRA PEAK TABLE AUTO ===
##TITLE=LSH-R205A
##JCAMP-DX=5.00
##DATA TYPE=INFRAREDPEAKTABLE
##DATA CLASS=PEAKTABLE
##$CSCATEGORY=AUTO_PEAK
##$CSTHRESHOLD=0.93
##MAXX=3997.453
##MAXY=0.9266599379410203
##MINX=373.96442
##MINY=0.5813008527496594
##NPOINTS=100
##PEAKTABLE= (XY..XY)
1797.5789715637216, 0.8263645731357451
2838.7299122595778, 0.8263537853942451
1634.6778039718529, 0.8263205254926715
2859.9778906411257, 0.8262612188050011
2066.7200310633307, 0.826161857664651
1715.4201218217354, 0.8260945645961932
2672.9956808835027, 0.8260534969588318
1749.4168872322125, 0.8260426488059793
1789.0797802111024, 0.8260133829578188
2902.473847404222, 0.8260108197904384
2301.8643251524627, 0.8260033693446489
2777.8190408991395, 0.8259807194025954
2743.822275488663, 0.8259757130275202
2561.0896614073495, 0.8259736262468044
2185.70871, 0.8259590230968906
2651.7477025019543, 0.8259249890669872
2284.8659424472244, 0.8259232008909562
2766.486785762314, 0.8258785569015326
2852.8952311806097, 0.8258562055641638
2678.6618084519155, 0.8257667984886504
2609.2517457388585, 0.8257473676086606
1753.666482908522, 0.8257131540707386
2952.052463627834, 0.8257045713436012
2942.136740383112, 0.8256575428317965
2728.2404246755277, 0.8256397214828385
1857.0733110320562, 0.8255510893986744
2756.5710625175916, 0.8255241476615427
2684.3279360203283, 0.8254827227341827
2566.7557889757622, 0.8254084556066
1296.1266817591868, 0.8253498643619459
2266.451027849883, 0.8253400889421083
2331.6114948866298, 0.8252881731518944
2915.2226344331507, 0.8251950110793197
2963.3847187646597, 0.8251861297474976
2691.410595480844, 0.8251451820698216
2042.6389888975762, 0.8251076899215027
2225.3716029788893, 0.825100597628731
2927.97142146208, 0.8249290552784946
2202.707092705238, 0.8248200982263253
2175.7929867552775, 0.8248161041729124
2272.1171554182956, 0.8248100250648223
1769.2483337216572, 0.824728962523114
2352.859473268178, 0.8246914116894815
1726.7523769585614, 0.8246432508963288
1303.2093412197028, 0.8246182768432467
1731.001972634871, 0.8245826332823114
2321.6957716419074, 0.8245536056274831
2981.7996333620013, 0.8245295852107496
2976.1335057935885, 0.8244109718354088
2990.2988247146204, 0.8243506519630568
1643.176995324472, 0.8242757884891241
1694.1721434401875, 0.8232928483195134
1947.7313521266615, 0.8216895431090879
1270.6291077013288, 0.8195201127590902
3008.7137393119624, 0.8195072382368744
1834.4088007584046, 0.8181412780107773
1372.6194039327597, 0.8172072140773355
1609.180229913995, 0.8161457745333971
3061.125419319781, 0.8136286699461828
1385.3681909616885, 0.8123083082088772
1563.8512093666927, 0.8114624586582486
1327.290383385457, 0.8082728945950063
3044.1270366145427, 0.8075921501335062
1364.1202125801406, 0.8017117349814697
417.87690865519926, 0.8013646570906033
983.0731336043782, 0.8009532065886581
1402.3665736669273, 0.8009063567218525
1446.2790623221263, 0.7999992336625232
447.62407838936633, 0.7994208898954185
457.5398016340887, 0.797816392855312
801.757051415168, 0.7935400570420312
1460.4443812431587, 0.7877238954044075
494.3696308287722, 0.7860774961872571
484.45390758404983, 0.7846511574034941
1011.4037714464421, 0.7820810642930511
617.607905441751, 0.780976709387387
1242.298469859265, 0.7808476655605446
871.167114128225, 0.7792748180279606
647.3550751759185, 0.7773219908559544
1485.9419553010162, 0.7770666450146494
528.3663962392493, 0.7768513527630049
511.3680135340105, 0.7766622272571428
789.0082643862388, 0.7760867443990839
545.3647789444876, 0.7750961751386845
539.6986513760748, 0.7740089270019813
679.935308694292, 0.7696539131693734
961.8251552228303, 0.7667607038994838
381.04707946051576, 0.7630268896473732
1148.8073649804533, 0.75587439264785
1534.1040396325252, 0.7502916423524941
854.1687314229866, 0.7449870673485152
844.2530081782638, 0.7418335049992258
1124.726322814699, 0.7309870686922534
434.8752913604376, 0.7246518699751952
576.5284805707583, 0.7121076554588754
917.9126665676308, 0.6990526888485932
1077.980770375293, 0.673825678762606
949.0763681939011, 0.6338261339609623
405.12812162627006, 0.6060776688073687
755.0114989757622, 0.5813008527496594
##END=

##END=

