##TITLE=X8429
##JCAMP-DX=5.0
##DATA TYPE=LINK
##BLOCKS=1


$$ === CHEMSPECTRA SPECTRUM ORIG ===
##TITLE=X8429
##JCAMP-DX=5.00
##DATA TYPE=INFRARED SPECTRUM
##DATA CLASS=XYDATA
##ORIGIN=ComPlat
##OWNER=
##XUNITS=1/CM
##YUNITS=TRANSMITTANCE
##XFACTOR=1
##YFACTOR=8.6836327e-010
##FIRSTX=3997.453
##LASTX=373.96442
##MAXX=3997.453
##MAXY=0.9323979605560412
##MINX=373.96442
##MINY=0.5553283668116665
##NPOINTS=2559
##XYDATA= (X++(Y..Y))
2559I53656241I53414559I53662419I54096980I54239340I53927370I53359921I52889530
2551I52733099I52787324I52835853I52887745I53066278I53254696I53236231I53140819
2543I53334318I53806906I54095470I53925997I53537425I53274945I53197724I53168758
2535I53082203I52949247I52887882I53002306I53250440I53510175I53756936I53997314
2527I54048314I53655417I52935931I52390309I52262227I52338829I52500340I52864613
2519I53275700I53245223I52562871I51553379I50784609I50680893I51283211I52209992
2511I53004911I53474276I53557605I53219618I52672215I52378915I52608654I53232113
2503I53971986I54657084I55147584I55235103I54845570I54129584I53220376I52119867
2495I50971928I50187851I50039448I50289095I50668881I51262207I51910995I52063788
2487I51534366I50907269I51131516I52346997I53246322I52951306I52134968I51549055
2479I50798337I49507558I48652644I49147334I50176251I50619255I50592416I50457195
2471I50137400I49886383I50429670I51673362I52793022I53690630I54662095I55354812
2463I55135712I53994019I52300459I50414295I48919585I49005935I51438407I54122308
2455I55108256I54948874I54417530I53824135I53334044I53062023I52991186I53074927
2447I53348664I53744375I53993127I54000540I54024427I54314707I54763270I55112237
2439I55259676I55000834I54080300I52989195I52933665I54032938I54735814I54860945
2431I55723135I57341878I58280121I57928957I56693502I55289123I54594965I54773086
2423I54840628I54451850I54442652I55013945I55203529I54990195I55238329I56041077
2415I56734274I57082349I57375168I57686177I57690638I57187780I56474814I56022681
2407I55958503I56113012I56262441I56180966I55805160I55350144I55131800I55382474
2399I56066817I56720684I56924476I56929281I57066836I57049745I56588208I56083222
2391I56108413I56450516I56307675I55414117I54185526I53331916I53505782I54289035
2383I54547740I54518293I55435533I57365078I58240103I57038762I54636217I52012514
2375I50166229I50358216I52801945I55732333I57474971I57864985I57475657I56880135
2367I56471931I56339456I56306852I56322158I56589443I57175905I57725576I57805062
2359I57445044I57236652I57779047I58732803I59052392I58304007I56951040I55960768
2351I56112668I57125112I57896079I58033016I57990528I58023132I57916533I57457742
2343I56938342I57201989I58495170I59403486I58852855I57426991I56117611I55391534
2335I55064464I54709525I54422403I55029389I56553613I57604015I57953325I58623871
2327I59834753I60548749I60340151I59697404I59145742I58886626I58777556I58705141
2319I58884155I59243006I58913739I57478540I55814358I55316648I56553061I58318628
2311I59450574I60083436I60560829I61029642I61496739I61713093I61242701I59943891
2303I58199743I56480237I55051216I54565724I56209932I59419960I61485344I61684950
2295I61016943I60256753I59863445I60043968I60329512I60152969I59759386I59570763
2287I59486747I59424559I59824251I60750276I61267412I60772104I59931948I59695825
2279I60178297I60660904I60661730I60532961I60726046I60968415I60701336I60085015
2271I59880742I60500563I61412723I61966444I62266058I62445484I62315342I61913385
2263I61672526I61830330I62130768I62220344I61989713I61542038I61184357I61483903
2255I62775918I64279070I64888523I64580400I64023591I63757747I63859198I64021944
2247I63946371I63682106I63507073I63441385I63213019I62833644I62745647I63231551
2239I63984947I64570585I64944949I65280737I65641921I65914149I65904402I65555297
2231I65090535I64845969I64962040I65346494I65881133I66436775I66751216I66662327
2223I66436844I66536921I67106704I67858863I68363712I68418967I68229246I68233227
2215I68651864I69183276I69313555I68972825I68634154I68699912I69004606I69207643
2207I69383225I69749421I70146573I70249327I70154673I70313369I70915618I71674436
2199I72228568I72534498I72735202I72833083I72667591I72118126I71275155I70486891
2191I70184188I70477419I71003203I71360541I71544500I71778837I72156221I72628123
2183I73169282I73753548I74204102I74269516I73954389I73627387I73664384I74083845
2175I74618689I75026549I75262878I75483350I75905831I76545969I77137785I77464169
2167I77633985I77891455I78239873I78411130I78282498I78185647I78587467I79489262
2159I80420092I81023371I81368013I81686710I82125527I82734297I83392762I83764655
2151I83668078I83464217I83685444I84286389I84683885I84593074I84400126I84530199
2143I84872028I85055915I84950072I84712851I84632199I85033264I86088676I87566225
2135I88861054I89433719I89288820I88942599I88885078I89168974I89601064I90124515
2127I90835147I91777989I92854679I93786264I94178818I93873026I93247782I92954139
2119I93349232I94297153I95431776I96506064I97554887I98779085A000221765
2112A001589696A002490874A002848901A003011716A003406877A004091838A004728133
2105A005033582A005133453A005364085A005881220A006635233A007602442A008791703
2098A010062919A011195895A012148141A013055358A014024215A015131725A016504323
2091A018156013A019863988A021408598A022816684A024224289A025634777A026923428
2084A027989411A028826959A029511096A030195230A031076505A032219090A033378011
2077A034119531A034155567A033449397A032000127A029663202A026270522A021963623
2070A017428701A013734073A011769041A011778307A013469396A016494508A020716087
2063A026095215A032495916A039659346A047199337A054432506A060289164A063603869
2056A063451213A059072035A049750351A035303506A017003269I97872760I81507765
2049I69837829I61520625I52459979I38205396I16482346H88115883H55864659H22480733
2041G90265545G62363639G42999341G35087115G37750561G46912452G58258954G69320531
2033G79369254G88435460G96669334H04129359H10823565H16890194H22657276H28444813
2025H34353432H40219494H45664379H50277208H53985701H57222156H60503983H63900575
2017H67128862H70045797H72714803H75075752H76973722H78594043H80472177H82847403
2009H85266285H87138996H88470822H89699550H91039339H92361761H93540726H94552688
2001H95410348H96306583H97618984H99441725I01277233I02517699I03146787I03686505
1993I04536340I05647350I06743191I07578611I08083254I08465923I09061652I09993992
1985I11126418I12266121I13236144I13905112I14373444I14931969I15660036I16302783
1977I16683805I16988293I17503850I18252714I18979203I19400036I19413970I19184299
1969I19074132I19389259I20107922I20895020I21394858I21502348I21400212I21394583
1961I21716231I22400712I23245604I23909218I24241436I24498700I24986526I25570105
1953I25863267I25807875I25746236I25993272I26545963I27141760I27523674I27670221
1945I27715935I27710376I27657248I27698913I27986927I28405495I28634410I28465418
1937I27981436I27478784I27218912I27253506I27496218I27838184I28130522I28270548
1929I28404191I28785213I29339894I29680350I29666004I29651041I30031925I30779486
1921I31521212I31911706I31859677I31571594I31426145I31616828I31898184I31877592
1913I31526429I31186728I31129963I31340139I31672014I32005125I32242758I32305426
1905I32181874I31980895I31887613I31979248I32133139I32224774I32312222I32509425
1897I32797851I33068431I33242297I33330568I33461602I33799106I34334019I34837084
1889I35077187I34998114I34621279I33884769I32716101I31276441I29996575I29250044
1881I29068971I29291434I29864374I30808521I31975061I33023537I33659012I33869119
1873I33972697I34363329I35062704I35626240I35657471I35302807I35038268I35092837
1865I35324841I35592332I35958733I36500919I37135845I37685996I37987326I37966734
1857I37689634I37261525I36717620I36170283I35902105I36041857I36350875I36612188
1849I36949555I37483713I37976824I38047043I37532857I36571485I35481821I34570482
1841I33973109I33643705I33337432I32570858I30882995I28246250I25029354I21587322
1833I18087223I14655555I11520345I09047852I07667844I07648350I08906250I11084067
1825I13790277I16760751I19837548I22835273I25486501I27588745I29199182I30597452
1817I31976914I33207359I34054997I34586547I35108350I35714992I36218811I36548971
1809I36892515I37372722I37878738I38298747I38723493I39318535I40096503I40903781
1801I41570964I42016301I42257984I42400275I42563433I42775050I42943768I42922215
1793I42594664I41990630I41325987I40841455I40615835I40610824I40841044I41406502
1785I42331360I43372701I44084774I44224594I44070429I44143187I44617766I45200247
1777I45584151I45838395I46234380I46818371I47314022I47432289I47146609I46666402
1769I46267190I46136705I46264444I46465698I46565020I46542163I46483407I46433299
1761I46337134I46140892I45905182I45767764I45826039I46086186I46482652I46917625
1753I47333035I47730805I48074693I48241077I48138254I47834109I47521521I47372847
1745I47395773I47409363I47212435I46800319I46400352I46293411I46581494I47092520
1737I47540123I47773568I47797318I47611028I47222181I46814870I46687817I46950298
1729I47403254I47744671I47818253I47688866I47560578I47599154I47773500I47893963
1721I47799992I47470522I46997934I46540584I46247696I46159288I46191892I46248314
1713I46287851I46283389I46159974I45848347I45431221I45168878I45264631I45639681
1705I46055023I46407079I46756663I47118192I47390075I47520763I47609518I47770891
1697I47979901I48137842I48241214I48383849I48621824I48914163I49157836I49236841
1689I49126330I48996119I49076497I49354078I49563019I49546130I49416266I49269239
1681I48982597I48448851I47831913I47434966I47400646I47607734I47833629I47994521
1673I48173604I48404369I48563343I48564029I48503832I48534239I48681953I48854858
1665I48974772I49059474I49138410I49123996I48920203I48655115I48625599I48980126
1657I49597682I50227593I50639641I50716106I50510254I50191008I49922899I49807858
1649I49854122I49944864I49938412I49834765I49749720I49733658I49762144I49884598
1641I50188537I50589602I50851190I50854485I50697573I50521099I50379837I50291909
1633I50287651I50388555I50580061I50803965I50986617I51110513I51217523I51323640
1625I51381710I51353705I51265571I51165562I51059993I50922164I50755780I50608958
1617I50510872I50455891I50486779I50705878I51096785I51424885I51483709I51381847
1609I51406764I51631011I51863839I51989931I52095774I52204020I52162561I51956915
1601I51883127I52194342I52756025I53239526I53481414I53491573I53306450I53022898
1593I52816428I52760212I52706123I52483111I52171828I52051433I52269846I52680177
1585I53023035I53167591I53165395I53151529I53203421I53283113I53354842I53494456
1577I53803200I54287662I54835686I55236133I55325159I55188703I55013464I54735128
1569I54194586I53634754I53568519I54076594I54661683I54905768I54892726I54853120
1561I54782078I54599495I54325140I53880969I53122838I52303411I52059255I52625471
1553I53412911I53685001I53460342I53447026I54109061I55084301I55657241
1546I55549887I55011336I54394878I53934028I53772106I53984341I54570254
1539I55360852I55996117I56242807I56298546I56453948I56581413I56352154
1532I55818545I55414254I55493053I56105393I57076786I58129936I59047518
1525I59743667I60119404I60048430I59671595I59425108I59553946I59829468
1518I59896392I59686216I59421608I59378158I59626087I59921926I59945607
1511I59648189I59239642I58935703I58872074I59081495I59337180I59209715
1504I58552897I57789412I57442230I57552466I57837597I58170777I58495994
1497I58513772I57977692I57206588I56853846I57196772I57950304I58724154
1490I59367794I59844225I60044861I59911218I59620527I59454349I59519283
1483I59705984I59841686I59785469I59503564I59154597I58962748I58912846
1476I58756621I58388229I57978310I57685353I57552878I57726057I58339426
1469I59116021I59506996I59319608I58891156I58648581I58743511I59056098
1462I59376580I59615791I59875868I60246800I60593227I60685548I60507012
1455I60260460I60038340I59676263I59042302I58323021I57892784I57970965
1448I58458585I59029740I59391955I59471784I59328188I58998166I58597238
1441I58431953I58749414I59364567I59727606I59495121I58984644I58888822
1434I59489699I60343102I60833400I60844176I60717603I60698110I60689804
1427I60552592I60326286I60057353I59683607I59218089I58795609I58451996
1420I58067127I57495011I56563703I55089449I53122151I51016544I49034764
1413I47038843I44816685I42610863I41051835I40446980I40249777I39540037
1406I38116576I36725651I36038219I35929561I36029158I36386705I37303052
1399I39073421I41811410I44859791I46913712I47154365I45852535I44061848
1392I42736680I41882316I41091512I40664158I41280272I42874301I44434222
1385I44967144I44447744I43715353I43574091I44116486I44879216I45413374
1378I45611882I45688553I45968674I46598516I47412589I48149511I48777088
1371I49472620I50295685I51100011I51842355I52707976I53763320I54751533
1364I55423589I55837078I56118983I56210206I56112051I56165110I56777861
1357I58005076I59527176I60851726I61501475I61316283I60656376I60064835
1350I59703650I59315009I58713584I58079211I57767927I58064041I59136751
1343I60919268I62868925I64137396I64273304I63641059I62968042I62646325
1336I62658680I62966463I63561985I64137602I64146182I63394778I62308958
1329I61477039I61192662I61475254I62183484I63038467I63811836I64511692
1322I65190063I65649884I65603414I65084151I64432824I63880270I63505426
1315I63576949I64352995I65443688I66042025I65945654I65715641I65788194
1308I66117529I66622927I67287227I67869914I68106654I68093819I68003831
1301I67640107I66857196I66196672I66362232I67188111I67891261I68201721
1294I68472023I68894438I69332225I69632732I69661558I69455847I69411436
1287I69661424I69639390I69097750I68847145I69541578I70630418I71339540
1280I71670935I71769159I71507709I71212075I71406121I71456709I70146985
1273I67892634I66607895I66882865I67224490I66776819I66876210I68883662
1266I71822355I73413779I72851821I71283530I69933102I69192337I69356799
1259I70501031I71724063I72071313I71711639I71322243I71049123I70770032
1252I70593970I70506042I70235119I69815384I69706658I70184806I70984533
1245I71607992I71818168I71759893I71669082I71630986I71624328I71637644
1238I71699077I71812677I71845075I71606345I71142199I70746420I70646137
1231I70900105I71515259I72333794I72825944I72111468I69251024I64006705
1224I57685696I52648465I50455959I50866497I52711889I55080320I57562487
1217I60044312I62586539I65215734I67580458I68917639I68682958I67312693
1210I66039348I65768631I66370675I67119333I67601874I68037053I68696342
1203I69321586I69577957I69818679I70571387I71404817I71258613I69861716
1196I68040348I66725956I66259683I66520379I67249132I68209066I69244435
1189I70216926I70877180I70969912I70650255I70625064I71454306I72635811
1182I72988759I72196650I71101290I70532949I70879376I72353425I74565287
1175I76334695I76794996I76051688I74292648I71539489I68748372I67716366
1168I69314791I72512464I75300492I76453991I76535467I76978403I78134304
1161I78806566I77904634I75835474I73868383I72831572I72710491I73049711
1154I73378155I73283568I72637938I72010430I72239482I73349737I74492048
1147I75159162I75713089I76403198I76651332I75875766I74586771I73799880
1140I73648254I73478163I73122607I73222890I74175960I75597361I77051367
1133I78373790I78891131I77620463I74908625I72548912I71723102I72062459
1126I72990612I74495549I76210044I77250836I77256464I76566630I75716795
1119I75315868I75662776I76180254I76086560I75549382I75251824I75212496
1112I75012753I74785759I75076588I75904595I76573425I76537046I75980099
1105I75343873I74865931I74641615I74673052I74777248I74671062I74102172
1098I72777690I70328607I66404443I60843284I54186349I47989785I44150806
1091I43754134I46172810I49646966I53005738I56115895I59231268I62441091
1084I65370930I67424439I68421919I68741027I68890938I69201260I69742488
1077I70328126I70724867I70912117I70999085I71040337I71113714I71329930
1070I71642381I71968422I72435175I73125833I73821090I74293126I74573455
1063I74762628I74886043I74927364I74739905I74156123I73422771I73232088
1056I73927002I74877326I75377164I75420407I75230617I74926952I74662893
1049I74593086I74669826I74729337I74702224I74558217I74247414I73868863
1042I73677700I73800772I74122832I74465965I74754182I75020509I75317172
1035I75629897I75847898I75792643I75339411I74614159I74086178I74258053
1028I75048240I75927521I76656205I77142933I77144100I76681328I76218899
1021I76157809I76378968I76376291I75840279I74950084I74100387I73455375
1014I72836720I72019353I70917265I69525654I67931828I66364222I65079895
1007I64139662I63342955I62407594I61250320I60269657I60208018I61157519
1000I62375265I63453946I64514918I65608425I66519143I67132718I67579360
993I67903616I67902724I67429862I66688547I66179718I66262086I66685115
986I67082130I67442629I67678820I67569407I67186120I66887810I66852529
979I66947390I67094898I67216116I67045614I66484617I65821141I65420694
972I65286159I65102478I64744862I64291494I63785066I63265048I62780242
965I62143741I60992233I59348368I57890587I57596601I58358096I59017111
958I59180334I58988145I58617487I58367568I58443347I58606848I58464282
951I58019562I57759485I58225895I59160088I59824045I60003265I59899481
944I59772771I59794046I59966954I60013218I59605975I58909071I58513429
937I58670269I58793618I58699856I58896510I59255361I59249183I58895068
930I58422618I57758661I56696797I55240800I53574765I51909897I50311746
923I48747642I47203511I45759733I44656204I44082097I43978588I44541300
916I46419297I49472482I52240948I54075358I55582423I57395417I59440621
909I61153881I62177787I62441708I62230434I62684146I65163774I67624182
902I67941849I67430548I67722201I69241552I70759187I71472565I71575594
895I71294032I70828376I70686634I71595362I73257142I74264780I74293335
888I73900644I73563277I73414053I73377194I73568906I74189207I74892220
881I75068557I74723709I74365681I74298688I74127157I73447550I72332352
874I70947810I69388716I67738811I66132974I64796617I64006705I63920837
867I64443326I65345464I66461280I67718288I69068304I70434244I71710746
860I72823473I73777023I74640036I75497764I76386793I77258043I77997229
853I78469680I78625493I78674571I79069046I79799584I80173399I80061859
846I80023351I80498685I81211788I81696182I81889198I81691103I80922126
839I79876736I79900005I82141383I84345145I85182350I85441124I85669833
832I86038431I86524335I86902268I87005434I86941256I86846052I86851063
825I87764183I90348350I92820085I93787706I94114708I94868652I96177209
818I97245937I97741726I98122885I98870377I99932859A000974611A002174511
811A003998487A006190101A008252465A010108153A010861480A008368192A000945576
804I88877871I74475300I61058814I53026192I53457665I58273943I64011236
797I70164419I73281921I63289347I31213292H89117341H61897585H57013696
790H67458541H85192153I03905467I19630049I31472271I40106456I46616432
783I51822518I55851149I58657024I60643678I62482412I64734632I67603865
776I70501374I72486312I73486743I74118096I75037120I76424476I77641261
769I78050151I77756783I77473779I78332811I80361336I81794887I82143510
762I82088873I82128890I82405373I82862585I83361531I83823480I84281379
755I84681963I84840179I84775451I84979107I85983176I87395791I88427317
748I89024555I89499202I89921751I90115660I90037136I89825861I89550957
741I89149686I88652525I88291203I88168680I88002640I87642416I87275877
734I87048609I86483975I83625796I75000123I58456526I38369172I25424244
727I25635931I35106359I46717264I55717369I61297476I65001645I67851175
720I69599305I69949782I69132894I67551561I65567447I63452093I61348133
713I59399505I57864985I56910131I56339730I55714692I54636423I52925840
706I50801288I48814978I47543692I47348411I48124114I49462941I51243125
699I53583208I56133810I58150253I59350153I60021592I60610525I61460359
692I62754159I64577037I66912795I69544942I72116273I74372683I76284656
685I77987345I79671227I81443243I83214092I84798034I86113386I87177653
678I88017123I88624589I88962916I89042676I89015975I89111316I89455753
671I89997736I90601633I91191801I91779430I92346193I92796472I93076524
664I93215315I93214011I93057305I92855434I92763045I92728038I92514979
657I92005600I91312402I90608771I90013867I89590700I89262325I88742512
650I87735629I86223554I84441860I82609921I80817862I79129999I77622728
643I76269006I74843760I72968716I70296758I66720465I62374647I57361577
636I51442045I43848171I33131443I17328543H95180197H68028320H40220523
629H16642608G99660126G88813942G82826387G80977906G82909991G88033434
622G95367504H03775519H12345181H20611248H28494783H36102728H43554104
615H50880143H58004106H64810538H71252835H77368884H83155049H88477549
608H93185101H97283677I00938700I04343323I07611215I10754732I13739002
601I16537189I19089919I21290525I23153352I24922759I26854363I28967315
594I31142043I33353288I35687948I38191600I40695046I42712245I43668128
587I43504627I42988384I43135892I44315749I46084470I47814203I49231075
580I50375307I51330299I52120416I52735501I53130526I53249479I53112816
573I52825214I52450507I51975654I51466549I51128222I51127879I51484327
566I52170043I53174730I54442652I55904414I57575803I59489149I61511565
559I63360732I64854687I66034609I66967639I67585744I67856323I67921875
552I67908902I67794547I67568996I67286472I66891997I66257761I65420900
545I64576282I63857276I63249878I62670761I62059932I61424804I60807248
538I60177336I59359282I58085182I56191811I53792352I51173936I48492781
531I45677433I42631112I39353267I35822345I31930376I27600757I22882909
524I17909510I12700270I06618952H97928140H84891715H68404815H52917382
517H43295948H40692631H42265796H44458233H45538630H45491749H44851473
510H44017494H43154412H42371845H41882578H41898296H42436779H43363834
503H44564076H45972368H47496455H49009011H50420666H51769171H53240200
496H55020041H57073962H59140101H60981169H62591263H64147543H65796761
489H67485516H69035824H70398195H71687945H72935550H74005033H74802770
482H75328416H75490201H75122015H74232850H73061642H71837855H70592035
475H69200904H67573307H65800880H64119057H62668277H61342080H59953282
468H58449306H56799676H54793803H52189867H49090350H46004080H43416618
461H41381024H39695906H38106130H35676335H30601077H22269802H13398466
454H08254705H08566263H12621802H18102586H24140934H30842279H38351450
447H46629049H55417193H64278645H72839659H81037978H89121462H97283402
440I05283969I12679609I19396810I25707042I31709080I37208672I42053504
433I46336517I50292802I54087027I57702376I61008363I63897568I66429362
426I68895811I71564405I74373918I76960693I78330752I76257680I68805206
419I57897451I49608390I48810722I54623450I62519341I69303740I74501726
412I78496656I81388674I83334075I84773804I86123751I87506645I88801268
405I89924017I91053423I92448672I94057187I95490464I96424039I96906100
398I97288975I97965012I99079043A000355408A001304496A001711327A001844420
391A002121109A002677369A003352926A004009813A004688184A005420713A006090092
384A006596245A006992917A007378469A007838908A008480213A009267242A009879581
377A010019127A009802842A009636458A009779298A010201779A010744174A011244218
370A011569023A011706303A011825806A012083413A012317404A012110869A011241541
363A009940053A008604864A007359868A005999899A004341345A002472959A000619467
356I98945809I97575204I96580264I95857620I95241986I94780449I94622577
349I94681951I94757661I94925349I95423334I96242555I97198370I98272246
342I99545385A000956078A002360045A003654531A004706305A005295925A005066598
335A003368439I99187289I91033860I76459277I51691209I12344027H55940712
328G86206574G16040690F63591257F41450256F48680886F73835055G04356683
321G32412960G54687329G70326660G79854609G84716395G86743204G87527349
314G88059586G88796301G89797693G90652744G90600029G89063926G86019804
307G81793214G76771290G71429845G66379435G62172957G59212504G57849309
300G58284008G60388105G63988147G69294997G76734979G86428076G98064447
293H11186466H25383116H40240909H55274765H69987864H83993969H97097044
286I09252197I20433071I30565191I39626729I47801711I55492710I63099831
279I70667484I77801948I84091520I89514303I94295163I98609818A002649913
272A006679574A010775954A014746241A018426936A021814537A024949335A027941294
265A030960983A033998999A036912570A039797519A042911726A046185795A049207132
258A051679553A053627356A055278016A056987157A059130036A061801720A064658320
251A067270011A069591904A071737323A073360458A073741823A072385904A068995009
244A062940941A053076106A037840998A015793760I86897326I53368638I18950511
237H87497572H61938906H43730990H32749516H27650371H26625642H28136138
230H31208612H35315631H40091205H45099676H49798236H53733860H56776270
223H58930680H59774062H58200005H52520713H40472021H19848244G90711706
216G57754308G29516000G13818257G13114077G23250243G37794216G54589860
209G76240015H00517854H18983034H30623931H39076428H46418804H53257566
202H59946898H66563061H72534005H76878862H78508243H76238174H68897926
195H55845783H37308531H13683460G84892320G51341050G15444618F81909135
188F56196166F41943505F39511579F46724159F60558595F78206476F96932694
181G13553099G24536907G27052914G21023211G10621270G02627018G02295760
174G10518447G24476504G40412154G55818314G69763741G82256879G93761117
167H04619038H14505701H22885162H30060467H37155669H44904326H52871327
160H60055556H66033433H71171977H75935333H80550152H85216383H90040075
153H94844615H99528486I04374349I09645300I15119906I20328051I25070679
146I29440315I33460092I37035081I40275654I43508883I46898062I50333780
139I53646769I56847325I60286886I64373862I68997948I73631711I77997916
132I82062034I85418473I87243135I86612126I81352638I64823936I25419508
125H55874474G67589494F90781295F53273740F59549035F93355852G35889450
118G76279960H10487846H37909613H59379793H76040559H89012874H99341648
111I08032735I16336760I25264519I34305122I41714834I46567008I49432808
104I51714890I55007767I59853011I65071247I69456052I73276018I77575984
97I83111749I89922987I97103234A003437422A008503685A011466131A007831975
90I89135272I48140653H86067659H17178757G63869331G42201467G51465838
83G77554475H05811662H29884954H50564398H70151365H88239092I02366416
76I11888874I19019426I26059853I33229186I39698664I45735846I52530885
69I59748678I65290346I68159713I69784359I71902115I74438646I76279645
62I77018145I77381115I78539144I80792602I83160896I84953435I86669235
55I88898875I90919780I91330180I90218277I89797787I92023789I96163961
48I99957157A002633028A005169490A008357073A011542459A013475505A014306532
41A015517963A017554999A018930206A018438399A016822951A015664510A015723198
34A016920009A018441762A017911860A012870236A002947262I90277102I79726345
27I75092375I73967911I70390109I62135848I52806338I47656743I48995433
20I55017926I60821319I60391768I53123318I45881913I42653900I41452353
13I39259642I36319712I36054006I40885728I48002964I50269876I45144305
6I37798154I32650549I29826691I29933358I37548784I52176838
##END=


$$ === CHEMSPECTRA PEAK TABLE EDIT ===
##TITLE=X8429
##JCAMP-DX=5.00
##DATA TYPE=INFRAREDPEAKTABLE
##DATA CLASS=PEAKTABLE
##$CSTHRESHOLD=0.93
##MAXX=3997.453
##MAXY=0.9323979605560412
##MINX=373.96442
##MINY=0.5553283668116665
##$CSSOLVENTNAME=- - -
##$CSSOLVENTVALUE=0
##$CSSOLVENTX=0
##NPOINTS=23
##PEAKTABLE= (XY..XY)
378.2140156763094, 0.8074273459300395
492.953098936669, 0.6445004928829171
545.3647789444876, 0.5672789210715298
620.4409692259574, 0.6098478426607352
636.022820039093, 0.5553283685483931
674.2691811258792, 0.6192420717867517
701.1832870758403, 0.7178113455529693
798.9239876309616, 0.6580885041304804
832.9207530414383, 0.5570118418424971
961.8251552228553, 0.8289599406606815
1015.6533671227521, 0.7018586986266854
1090.7295574042219, 0.7310599083881101
1257.8803206724, 0.6781725282519127
1372.6194039327816, 0.8256409155678918
1403.7831055590304, 0.8036044226571178
1493.0246147615321, 0.7441992154933459
1505.7734017904818, 0.8279476157859645
1672.9241650586587, 0.8197163334856628
1920.8172461767176, 0.823199509629197
2340.110686239249, 0.8168382042126766
2359.942132728694, 0.8127268540796244
2961.9681868725565, 0.7881684892161045
3259.43988421423, 0.638322650916266
##END=


$$ === CHEMSPECTRA PEAK TABLE AUTO ===
##TITLE=X8429
##JCAMP-DX=5.00
##DATA TYPE=INFRAREDPEAKTABLE
##DATA CLASS=PEAKTABLE
##$CSTHRESHOLD=0.93
##MAXX=3997.453
##MAXY=0.9323979605560412
##MINX=373.96442
##MINY=0.5553283668116665
##NPOINTS=190
##PEAKTABLE= (XY..XY)
3996.036468107897, 0.8279101841188479
3986.1207448631744, 0.8273184292848738
3976.205021618452, 0.8276724792256813
3960.6231708053165, 0.8274528371568941
3946.4578518842845, 0.8269095413352022
3933.709064855356, 0.8255363689720001
3922.3768097185302, 0.827010868908452
3903.9618951211883, 0.8249793625626382
3894.046171876466, 0.8257329455756096
3881.297384847537, 0.8237751120379858
3871.381661602815, 0.8248464456703524
3855.799810789679, 0.8240069137976429
3841.6344918686473, 0.8275425425561382
3821.8030453792026, 0.8274925934324845
3807.6377264581706, 0.8289352053329355
3801.9715988897574, 0.8288029423181921
3797.722003213448, 0.8292784085481376
3782.1401524003127, 0.8301192516493848
3773.6409610476935, 0.829401373128986
3760.8921740187648, 0.830227553048056
3752.392982666145, 0.8278384199731254
3746.7268550977324, 0.8288686261842981
3736.81113185301, 0.8250894536580088
3722.645812931978, 0.830421745126126
3712.7300896872557, 0.831229149294572
3704.2308983346365, 0.8301212184921913
3697.1482388741206, 0.8318837875231065
3691.4821113057073, 0.8309701078474984
3677.3167923846754, 0.8287853588303378
3658.901877787334, 0.832504331204571
3650.4026864347147, 0.8295618883427189
3630.5712399452696, 0.8289098135225574
3620.655516700547, 0.8335101598536652
3610.739793455825, 0.8331290473715479
3602.2406021032057, 0.8333646048023478
3596.574474534793, 0.8340915429567425
3589.491815074277, 0.8335251799331463
3578.159559937451, 0.83508109934652
3569.6603685848318, 0.8346571913173674
3559.7446453401094, 0.8368918286727527
3546.9958583111807, 0.8360129582071857
3531.414007498045, 0.8378368006871586
3521.4982842533227, 0.8392182581043198
3512.9990929007035, 0.8407747141661944
3504.4999015480844, 0.8411263214011235
3493.167646411259, 0.8424466842520607
3476.1692637060205, 0.8424723139939747
3457.7543491086785, 0.8454622615368754
3435.0898388350274, 0.8494204870959857
3418.0914561297886, 0.8540042034021096
3411.0087966692727, 0.854816912401772
3402.5096053166535, 0.8550184360709308
3391.177350179828, 0.858711479986285
3375.595499366693, 0.8622449031020745
3259.43988421423, 0.638322650916266
3161.6991836591087, 0.7980902186359317
3151.7834604143864, 0.8001052130541664
3136.2016096012508, 0.8038840286831517
3124.869354464425, 0.805543481312481
3113.5370993275997, 0.8051628464301622
3097.955248514464, 0.807274817921664
3088.0395252697417, 0.8088162530356942
3079.5403339171226, 0.808559059465659
3068.208078780297, 0.8092169748971745
3037.0443771540267, 0.8067693697130951
3017.2129306645816, 0.8119528879756164
2997.381484175137, 0.8127030122976834
2961.9681868725565, 0.7881684892161045
2905.3069111884283, 0.8167918909260344
2895.391187943706, 0.8197960848367428
2876.976273346364, 0.8215903630208253
2862.810954425332, 0.8212699882076283
2845.8125717200937, 0.8226637833301297
2837.3133803674746, 0.8217264407554139
2824.564593338546, 0.8220689284392816
2816.0654019859267, 0.82282680203517
2803.3166149569975, 0.8216099732685518
2791.984359820172, 0.8207499376023111
2763.6537219781076, 0.8240733731121491
2748.0718711649724, 0.8226879229606724
2736.739616028147, 0.8236458891630506
2722.574297107115, 0.8237516271533487
2709.825510078186, 0.8247782574445757
2701.326318725567, 0.8247138248899416
2685.7444679124314, 0.825194892931342
2661.6634257466767, 0.8253409854995235
2653.1642343940575, 0.8261450516795596
2640.415447365129, 0.8265803448195452
2622.0005327677873, 0.8267264955680659
2613.501341415168, 0.8276817785279398
2592.25336303362, 0.8280438773278971
2575.2549803283814, 0.826733288773927
2568.1723208678654, 0.827938377269135
2556.8400657310394, 0.8282206648009466
2541.2582149179043, 0.8296466458080506
2527.0928959968724, 0.8331295241029831
2518.593704644253, 0.8330887544474567
2508.677981399531, 0.8326492896903219
2500.1787900469117, 0.8314076656788921
2488.846534910086, 0.8308967346246364
2476.097747881157, 0.8331549159133612
2457.6828332838154, 0.831503748337991
2447.7671100390926, 0.8324552165780198
2426.5191316575447, 0.8317989102236436
2413.770344628616, 0.8322671047795663
2405.2711532759968, 0.8326638330383679
2359.942132728694, 0.8127268540796244
2340.110686239249, 0.8168382042126766
2330.1949629945266, 0.8193650831480376
2299.0312613682563, 0.8302525870927667
2279.1998148788116, 0.8316904889908413
2266.451027849883, 0.8359267106304827
2253.7022408209536, 0.8346644030743248
2236.7038581157153, 0.836672722384103
2228.2046667630957, 0.8385919919089061
2212.6228159499606, 0.8390097015610374
2197.0409651368254, 0.8418012845403557
2191.3748375684127, 0.8413112749623641
2181.4591143236903, 0.8433648933104853
2174.3764548631743, 0.8393667925100167
2170.1268591868647, 0.8395134799070381
2158.794604050039, 0.841611027016262
2140.379689452697, 0.8420576444816517
2129.0474343158717, 0.8437228786736325
2117.7151791790457, 0.842873453538188
2103.5498602580137, 0.8253410445482259
2085.134945660672, 0.8386380064785833
2063.8869672791243, 0.8390644179990434
2051.1381802501955, 0.8428551545189993
2042.6389888975762, 0.8427751652363832
2028.473669976544, 0.8403293480122768
2010.0587553792022, 0.8446660627280655
2002.9760959186863, 0.8440581554689061
1984.5611813213445, 0.8450239291254449
1970.3958624003126, 0.8438086503872635
1957.6470753713836, 0.8469284764193683
1946.3148202345583, 0.846468149234672
1934.9825650977323, 0.846342979879481
1917.984182392494, 0.8195214258762582
1869.822098060985, 0.8451189984046077
1858.4898429241593, 0.8463008390783512
1848.574119679437, 0.845505951498079
1831.5757369741982, 0.845860658789882
1818.8269499452695, 0.8476595870592754
1791.9128439953088, 0.8338093743906988
1773.4979293979668, 0.8389949793301579
1760.749142369038, 0.8395792236902098
1733.8350364190774, 0.8315417157852453
1725.3358450664578, 0.8322111952104273
1718.2531856059418, 0.8316831582681159
1709.7539942533226, 0.8334314218825212
1701.2548029007035, 0.8323378555453528
1697.0052072243939, 0.8324997419046891
1672.9241650586396, 0.8197163334856628
1655.9257823534008, 0.8355655661617591
1648.8431228928848, 0.840081154159172
1637.5108677560593, 0.8429086196455332
1626.1786126192337, 0.8452450031252644
1602.097570453479, 0.837033450038457
1570.9338688272087, 0.8510162817507178
1561.0181455824859, 0.8508889666698867
1544.0197628772476, 0.85694086470131
1507.1899336825645, 0.8275729404807678
1493.0246147615321, 0.7441992154933459
1459.0278493510555, 0.8488023270716973
1451.945189890539, 0.8528099051888947
1439.1964028616103, 0.8551428308460848
1403.7831055590304, 0.8036044226571178
1368.3698082564501, 0.8226425640052639
1327.290383385457, 0.8588251461332382
1257.8803206724, 0.6781725282519127
1202.635576880375, 0.8188564767022557
1177.1380028225171, 0.8259245151966043
1103.4783444331506, 0.7300266021200633
1090.7295574042219, 0.7310599083881101
1015.6533671227521, 0.7018586986266854
963.2416871149335, 0.823912381166981
868.3340503440186, 0.8636937133795468
832.9207530414383, 0.5570118418424971
798.9239876309616, 0.6580885041304804
701.1832870758403, 0.7178113455529693
674.2691811258792, 0.6192420717867517
636.022820039093, 0.5553283668116665
620.4409692259574, 0.6098478426607352
545.3647789444876, 0.5672789210715298
492.953098936669, 0.6445004928829171
444.79101460515994, 0.8595040429580835
403.71158973416686, 0.8229103081890295
388.12973892103173, 0.8128349175467596
378.2140156763094, 0.8074273459300395
##END=

##END=

