##TITLE=X8792
##JCAMP-DX=5.0
##DATA TYPE=LINK
##BLOCKS=1


$$ === CHEMSPECTRA SPECTRUM ORIG ===
##TITLE=X8792
##JCAMP-DX=5.00
##DATA TYPE=INFRARED SPECTRUM
##DATA CLASS=XYDATA
##ORIGIN=ComPlat
##OWNER=
##XUNITS=1/CM
##YUNITS=TRANSMITTANCE
##XFACTOR=1
##YFACTOR=8.1399432e-010
##FIRSTX=3997.453
##LASTX=373.96442
##MAXX=3997.453
##MAXY=0.8740197450684454
##MINX=373.96442
##MINY=0.3947981608638312
##NPOINTS=2559
##XYDATA= (X++(Y..Y))
2559I96775726I96945315I96890982I96765036I96805675I96888200I96696936I96277724
2551I95987900I95930418I95821020I95449770I95034219I94981717I95407812I96006499
2543I96354976I96272012I95896515I95530830I95471591I95885312I96727984I97727064
2535I98479450I98667052I98223236I97295330I96174770I95303760I94983254I94939100
2527I94618594I94050882I93966525I94787744I95914821I96455807I96171401I95468955
2519I94855694I94538340I94503924I94704558I95037514I95305810I95309103I95071124
2511I94983840I95477010I96520611I97505998I97754157I97247514I96494543I95851921
2503I95441935I95440617I95983799I96904456I97888671I98701614I99166299I99137156
2495I98584381I97642270I96624224I95929832I95740912I95884360I96113627I96464521
2487I97214490I98469711I99765133A000249808I99849707I99377187I99104058I98606861
2479I97912543I97578344I97548615I97488864I97737754I98500319I98998614I98421749
2471I97202627I96423513I96287170I96416485I96761374I97160889I97087298I96575896
2463I96584756I97684960I99551609A001604761A003107776A002641040I99510530
2456I96857226I96952345I98647647A000644783A002166177A002564886A001646133
2449A000241827I99556588I99865889A000421960A000694063A000972611A001531610
2442A002138132A002431324A002368936A002154534A002066444A002309771A002578433
2435A001924022A000068284I98529682I98268194I98686750I99221145I99967014
2428A000935852A001754213A001938008A001306370A000609928A000940612A002071936
2421A002700059A002294833A001974327A002379993A002890664A002940164A002730301
2414A002747216A003222372A004022647A004731318A004980356A004839544A004773642
2407A005066175A005473379A005617046A005617046A005964059A006788498A007754261
2400A008392636A008375867A007839422A007379789A007350060A007614985A008040497
2393A008610553A009135575A009339287A009333063A009517736A009814590A009653056
2386A008698716A007537442A007265851A007854506A008499031A008587121A007928463
2379A007453966A008063050A009379487A010478593A010761973A010470904A010191918
2372A010044589A010067948A010370586A010748280A010845887A010729901A010974179
2365A011837574A012843830A013443542A013595118A013573297A013594825A013680423
2358A013595703A013086058A012565869A012750321A013639712A014792857A015787983
2351A016294993A016300118A016265044A016554209A017074689A017575622A017796469
2344A017450188A016362433A014630591A012828306A011954367A012544926A014269812
2337A016395970A018243214A019436780A019862216A019363774A017946360A016696045
2330A016585402A016730974A015998798A015234843A016301876A018890009A021321076
2323A022527309A022606758A022375807A022487109A022864730A022824529A022054130
2316A021071232A020278060A019491772A018566429A018107894A018580927A019662459
2309A020857196A021819078A022483594A023012644A023421751A023505814A023320408
2302A023391583A024065398A024872922A024909535A024299718A024318610A025221839
2295A026347891A027071134A027012188A026249404A025488011A025240804A025243367
2288A025235019A025495114A026214402A026906085A027115142A027264813A027922812
2281A028795067A029250087A029267734A029437908A030105500A031046440A031938244
2274A032705130A033450413A034124155A034276682A033433718A032187355A031881423
2267A032616381A033409258A033520343A032998542A032500685A032663464A033621832
2260A035048766A036486317A037561330A037928335A037234016A035683333A034541902
2253A034719839A035731441A036785807A037712834A038718430A039683315A040229134
2246A040299649A040225546A040306823A040538875A040757525A040971341A041473224
2239A042341892A043076410A043310510A043433455A044065386A045203519A046236138
2232A046722643A046819081A046979077A047555943A048582262A049716297A050489113
2225A050729437A050754333A051112256A052064400A053377249A054593807A055394448
2218A055722935A055753689A055820983A056217423A056971419A057943333A059042805
2211A060124629A060968912A061649831A062503413A063498686A064227493A064639749
2204A065216908A066220894A067294884A068035554A068528504A069118989A069876794
2197A070508578A070778705A070899817A071369263A072324775A073296982A073741823
2190A073488318A072510546A070701379A068191008A065416006A062544492A059214151
2183A054859394A048825663A040379172A029142592A015142799I98130753I77512308
2176I53201498I26207728H98537358H72677184H50911964H35024579H26183992H24406970
2168H28433533H36528472H47126384H58979663H71210197H83250126H94749729I05597996
2160I15786801I25110526I33225821I40119505I46259559I52107738I57641123I62519219
2152I66617543I70243127I73892948I77923466I82327943I86684531I90516316I93819930
2144I97013414A000357521A003695479A006705314A009106432A010765342A011876603
2137A012869020A013958020A014977823A015677487A015926232A015724935A015314072
2130A015053245A014893834A014304960A013046370A011622000A010584183A009754692
2123A008578480A006946078A005205888A003550200A001827878I99940653I98018060
2116I96074744I93791080I90881635I87562131I84379778I81561132I78755227I75579757
2108I72231182I69247415I66688205I63928359I60380979I56074769I51397456I46674304
2100I42130553I37863812I33640054I28960032I23509464I17454571I11200067I04881125
2092H98200965H90863245H83044437H75234710H67689471H60264320H52761625H45229127
2084H37876908H30838752H24083096H17554365H11412920H06030230H01573399G97744762
2076G94237509G91239536G89085846G87632405G86344084G84793696G82890434G80897765
2068G79261116G78170870G77385460G76614256G75822548G75083196G74406452G73760608
2060G73111909G72447906G71763619G71021851G70233292G69548713G69109874G68866550
2052G68647314G68321390G67869593G67382428G66949815G66544588G66144780G65891496
2044G65950735G66309244G66790770G67157993G67204345G66912177G66475611G66073093
2036G65721834G65428273G65365375G65773530G66650398G67629415G68316777G68714681
2028G69111707G69606853G70014935G70204442G70260166G70337418G70538567G70882943
2020G71296298G71662935G71914243G72009289G71898425G71617096G71349972G71242551
2012G71142013G70674033G69632409G68209137G66816326G65748121G64951215G64037441
2004G62700575G61213816G60207780G59800503G59332815G58200100G56549025G54898462
1996G53455200G52139861G50989352G50128080G49472425G48800513G48082763G47541409
1988G47452223G48001776G49188166G50746465G52348477G53915784G55535739G57187692
1980G58868423G60809615G63175658G65751709G68233447G70524947G72491035G73808498
1972G74344650G74392246G74403010G74706965G75425816G76431706G77461907G78370628
1964G79213812G80169837G81440655G83036298G84652445G86043132G87412437G89037370
1956G90669188G91840639G92681041G93872630G95765494G97962387G99849758H01244985
1948H02432473H03735364H05180311H06580078H07857339H09138189H10487285H11754661
1940H12784715H13601686H14326466H15086833H15985009H16986506H17948901H18898115
1932H20029293H21260130H22152083H22565071H23011597H23981973H25259820H26292877
1924H26919536H27341897H27694694H27994257H28275441H28559259H28865487H29286823
1916H29870719H30548561H31363333H32554997H34252350H36312239H38557168H40893920
1908H43141558H45047089H46508146H47545523H48088632H47955143H46917400H44657314
1900H40933901H36060638H31086911H27319197H25649597H26222069H28472123H31456111
1892H34374928H36953833H39269133H41235222H42492346H42858471H42595960H42104181
1884H41608009H41250233H41216476H41637519H42543604H43980276H45974849H48319656
1876H50576448H52423619H53887457H55148317H56220988H56910108H57041620H56704932
1868H56274369H56196531H56730634H57834938H59244664H60675405H62025745H63373815
1860H64777317H66161487H67373945H68240415H68694848H69008104H69631614H70616782
1852H71519206H72065170H72504886H73124588H73857935H74560748H75260851H75984972
1844H76647511H77224084H77829726H78566955H79379605H80044414H80288985H80008167
1836H79405819H78872010H78706229H78921730H79227297H79209941H78680380H77840344
1828H76977975H76064275H74864558H73391127H71995607H70997991H70456273H70341457
1820H70728011H71682058H73086291H74719207H76466572H78334612H80263210H82047334
1812H83474560H84462364H85032200H85232690H85135960H84854630H84519406H84234488
1804H84028873H83828603H83505973H82989372H82319511H81630391H81113204H80965143
1796H81318600H82226808H83702509H85661934H87791094H89619813H90886018H91779947
1788H92695331H93774300H94782168H95380781H95457448H95262962H95261717H95757230
1780H96626703H97470912H98022003H98366160H98793061H99490967I00389876I01255760
1772I01881980I02198311I02265605I02173268I01905924I01341507I00459440H99531973
1764H99009660H99183569H99976302I01032205I01979955I02691408I03384188I04395497
1756I05769270I07115436I07960085I08193233I08080394I07849807I07441653I06801155
1748I06173178I05782963I05478567I05081834I04793694I04835066I05077514I05416545
1740I06067734I07160469I08432019I09527391I10309140I10812414I11119300I11307048
1732I11408392I11418277I11368997I11413151I11773418I12509547I13362764I13967089
1724I14197088I14233847I14330724I14562188I14813203I15021234I15289750I15653092
1716I15946284I16084094I16231495I16553172I17019542I17528894I18000902I18320602
1708I18353040I18081522I17670072I17314418I17010901I16591762I16058172I15694318
1700I15723459I16030347I16387756I16781268I17292085I17767680I17898460I17640928
1692I17305192I17134651I17008631I16684538I16176577I15717383I15402297I15068025
1684I14593235I14141730I13944755I13979244I14025376I13947099I13807166I13801088
1676I14150664I14976860I16212749I17634997I18969740I20008948I20710882I21187795
1668I21572446I21886286I22022485I21873327I21489994I21037465I20557256I19915074
1660I19075621I18298634I17958724I18244008I19077820I20245611I21536273I22807164
1652I23989453I25079772I26104188I27077347I28019604I28982805I29931360I30613377
1644I30766563I30503539I30264752I30318498I30524848I30650647I30661046I30612205
1636I30504857I30382717I30365876I30442177I30383890I30030067I29514122I29065549
1628I28701328I28257366I27648647I26997531I26548736I26462331I26642464I26847201
1620I27030116I27430510I28219728I29191788I29940950I30297704I30510568I30973497
1612I31786000I32645733I33204659I33415254I33449010I33418769I33364948I33423162
1604I33792874I34510332I35393424I36247666I37024948I37757270I38477290I39241465
1596I40109620I41030862I41861159I42579422I43378672I44401550I45473563I46289947
1588I46793368I47160664I47528473I47941022I48404316I48796435I48908030I48685719
1580I48246077I47714317I47281339I47236891I47685247I48441441I49370809I50536551
1572I51894873I53137865I53940044I54200285I54076316I53899038I53944145I54201970
1564I54459868I54592990I54619498I54553595I54410294I54296576I54322422I54495016
1556I54815960I55406885I56390735I57614689I58549184I58682601I58143592
1549I57696188I57934389I58725437I59532448I59943826I59867892I59538892
1542I59292344I59155853I58899346I58516307I58235050I58049425I57723940
1535I57288033I57111341I57442464I58138393I58904326I59621490I60324596
1528I60971684I61428168I61650332I61698734I61613500I61437394I61236612
1521I60908710I60183491I59046162I57921794I57152274I56545239I55749431
1514I54813104I54017955I53436477I53026197I52877038I53040767I53408724
1507I53965818I54848911I56062834I57444953I58837178I60030817I60793528
1500I61196116I61644254I62416045I63377122I64157260I64499879I64567978
1493I64850551I65517192I66114268I66243363I66169259I66374436I66903266
1486I67474274I67937275I68392734I69023932I69873121I70779865I71582849
1479I72272554I72840194I73127602I73003119I72630185I72433210I72715785
1472I73333730I73869589I74097538I74123460I74135103I74189948I74184090
1465I73964269I73546448I73149935I72937802I72905071I73048079I73387696
1458I73811961I74114087I74161317I73934100I73503685I73034679I72720105
1451I72705899I73060015I73719771I74465493I75090541I75622886I76229041
1444I76839371I77103933I76920797I76739492I76982379I77423706I77560562
1437I77377354I77229660I77120701I76681059I75880638I75205138I74980411
1430I74992054I74967230I74953977I74981216I74803646I74325561I73911620
1423I73932122I74227513I74332224I74103763I73863438I73960022I74429101
1416I75066304I75635700I76036021I76381276I76750183I76835124I76333460
1409I75705703I75816639I76816964I78147680I79430288I80578820I81337503
1402I81407651I80876552I80125924I79379323I78612073I77911384I77553753
1395I77652534I78005844I78321004I78516221I78698917I78859719I78930747
1388I79041610I79400558I80016160I80676722I81156564I81398865I81476336
1381I81379022I81006526I80456608I80115087I80344427I81118414I82013296
1374I82586207I82739979I82690772I82582106I82269949I81691399I81249047
1367I81368184I81798307I81887055I81478607I81053098I81010481I81223712
1360I81279289I80888708I80115013I79343662I78940413I78916688I79055889
1353I79270877I79608078I79991044I80268127I80569740I81341823I82768391
1346I84297692I85091231I84925083I84335257I83941380I83993223I84455346
1339I85119713I85669121I85913473I85961069I86055383I86299807I86599663
1332I86902814I87407261I88293135I89288774I89847773I89824048I89598296
1325I89412597I88923602I87755152I86418285I86066879I87012725I88240926
1318I88974713I89738155I91057814I92251014I92507154I92196754I92203930
1311I92739644I93448461I94055495I94469728I94674685I94822892I95112277
1304I95332317I95004636I94272900I93913439I94012805I93693471I92776622
1297I92497635I93580924I94639976I93731182I91069677I89011617I89301589
1290I91324499I93326029I94325768I94288863I93597473I93047481I93252438
1283I93529447I92569396I90475164I88788062I88294527I88289987I88229283
1276I88496920I89294705I90314142I91511589I92760513I93177673I92320944
1269I91308902I91483690I92941671I95204174I98030874A000729065A001848015
1262A000567384I98024284I96242283I95695513I95376911I94931924I94973296
1255I95581209I96023048I95778330I94759772I93171524I92046204I92741987
1248I95152990I97641830I99096003I99832646A000337605A000428404I99996303
1241I99430714I98828220I97768436I96461665I96146505I97457157I99245163
1234I99972652I99520635I98720872I97849716I96603209I95215890I94619034
1227I95271321I96448631I97101211I96975337I96491612I96076209I96128199
1220I97069065I98837226A000729431A002060806A002655832A002616876A002047918
1213A001218866A000706951A001005562A001947893A002793348A002977948A002605526
1206A002215530A002288609A002906041A003727990A004419892A005072033A005917195
1199A006770851A007134046A006722595A005645163A004445814A004030995A004886921
1192A006338384A007309200A007641788A007929049A008425587A008890272A009041847
1185A008608795A007532975A006544804A006807243A008667741A011320093A013514790
1178A014298662A013617598A012382733A011644040A011808064A012639386A013587429
1171A014245648A014860737A015971778A017282723A017638303A016536122A014918657
1164A013990898A013867441A013779571A013092648A012011410A011662859A013112345
1157A015813246A017721267A017631786A016401315A015094910A013634586A012168770
1150A011863056A013494726A016488526A019705149A022356988A023939818A024002425
1143A022565020A020664834A019797046A020630492A022501461A023991295A023916825
1136A022135849A019823846A018795037A019810664A021587246A022423184A022227673
1129A021805092A021188905A020039567A018986593A019123011A020436592A021943561
1122A022888821A023082793A022752037A022452545A022678956A023370348A023988878
1115A024035010A023347282A022056986A020510989A019153326A018175261A017270568
1108A015914809A013745668A010389844A005401985I98893024I91858529I85686842
1101I81701577I80870694I83160656I87262201I91611102I95678598I99776336
1094A003789572A006871022A008513310A009223737A009911686A010788188A011337519
1087A011124144A010069778A008282871A006102234A004103854A002529665A000834728
1080I98235611I94796384I91741662I90557395I91831655I94828310I98116547
1073A000804633A002990689A005095392A007197532A009097279A010621894A011615190
1066A011943677A011723414A011379918A011253896A011060877A010043710A007936005
1059A005356365A003008409A001195361A000406216A001401416A004124430A007642373
1052A011015257A013668855A015494571A016874641A018306627A019821796A020969743
1045A021449512A021480339A021451709A021495571A021543826A021584978A021740581
1038A022139144A022789015A023619752A024500427A025235678A025733315A026102514
1031A026401565A026485701A026317649A026247427A026474351A026600224A026217551
1024A025511956A024839825A024039477A022620964A020370031A017475012A014041643
1017A009814150A004630780I99137449I94755598I92746820I93496862I96471038
1010A000627282A004976914A008872184A012072260A014685729A016875739A018610364
1003A019729167A020262610A020569496A020821023A020725757A019904173A018308384
996A016260943A013987090A011455560A008783730A006386347A004702687A004193553
989A005530275A008991688A013397630A017215283A020032830A021973876A023147524
982A023708939A023954243A024306162A024983272A025784718A026366637A026548746
975A026270566A025427308A024174430A023285114A023325827A023847627A024141332
968A023958051A023410767A022574613A021457347A020265832A019188254A018174309
961A017456925A017743308A019005192A020601129A022164700A023601006A024879732
954A025990041A026982531A027887298A028630750A029221382A030022390A031342341
947A032879259A034242120A035299634A036091561A036662496A036969455A037063182
940A037201065A037498797A037847055A038290505A039059586A040108020A041169561
933A041989753A042340207A041890533A040313269A037713932A034215100A028934927
926A021701772A016654380A016632779A019523258A023298001A027379776A031818669
919A036196200A039531081A041364046A041977305A042154582A042511920A042860324
912A042855344A042614508A042694541A043413465A044505394A045543943A046294791
905A047065629A049105675A052559986A055694304A058178898A060632371A063517139
898A066371445A068526527A069773620A069991391A068971441A066282477A061420417
891A055255101A049277020A042342403A031203068A012442411I85193818I50800234
884I07708558H54723903H01608181G60049907G27796027F95430184F61349564
877F34877082F19499196F10998482F06866914F07442718F13333258F23808993
870F37436438F53193044F70332135F87922511G05146250G21590437G37076110
863G51426651G64407740G76027505G86587705G96084827H04272761H11637867
856H19545570H29448138H42087193H56680327H71440855H85708432I00191437
849I13716587I23706585I30688066I36894461I43779065I50951956I57211805
842I62208599I65999598I68475917I69358423I68338181I66425474I65439501
835I64711938I63178243I60252396I55343472I48122839I38930992I27612547
828I12381404H91305596H62388428H18147999G57092646G05279079F75174350
821F56252380F41797566F34665682F39003671F52706171F72816948F97907384
814G24566736G49303715G73768077H00689648H26616824H48473429H69025386
807H89536483I07550830I21873254I32987474I40342182I40500933I25845045
800H97872771H72819826H54141255H37641271H21240506H03791161G83913386
793G64136808G50407653G44951081G47203038G57199262G73678084G92258607
786H09596357H25206073H39698304H53459824H65926948H76283363H84500002
779H90785700H94590977H94518485H89526231H80636656H69721901H58248146
772H48927936H46258669H51475942H60068517H67398475H70288442H65600218
765H56347082H52512146H57223730H68561579H84310056I01563598I15064364
758I16933283I00601275H65495287H20132028G79948185G57360796G56615513
751G73653700G95725000H13633246H28128186H41941402H55409510H67370281
744H77384812H85965085H93494508H99913475I05422989I10727766I16140330
737I21237369I25954443I30646108I35485761I40309817I44677608I48166847
730I50653272I52078521I52179864I50609996I46991002I41317098I34789685
723I29089127I24668028I20899289I16667037I10017412H98457032H81456775
716H64378461H56037560H59588088H71491234H86701654I01423079I13576947
709I22232275I26533139I25193783I17578101I04562523H87760120H69857074
702H54915169H45936699H43461037H46675831H53771687H62399119H70981515
695H78359948H82543066H80612346H69726880H47985092H15235771G74322536
688G31204572F93086403F65746280F51554930F49783400F58248124F73796551
681F92697652G12287214G31542358G50213021G68102375G84825402G99995695
674H13545302H25608957H36197422H45274966H53027724H59840202H66055311
667H71815693H77114466H81959611H86441486H90705152H94925981H99230799
660I03580358I07797819I11714252I15241641I18378962I21211301I23807269
653I26020272I27339492I26829846I23224765I15421628I03545649H90057478
646H79482338H75923536H80266212H89989745I01372701I11546640I19142112
639I23979787I26546246I27633782I28167738I29059398I30943548I33830951
632I36810472I37874357I34061317I22525907I02890506H79441553H60035859
625H51045892H53161579H62327212H73708191H84419747H93645644I01465257
618I08016102I13404794I17830654I21517307I24622189I27267585I29538508
611I31421779I32884300I34032540I35088076I36215300I37470961I38913784
604I40641525I42695630I45000896I47356101I49386774I50636869I51004019
597I51121105I51998633I54099235I56917954I59591248I61731905I63485859
590I64989680I66197891I67216962I68390098I69924452I71710773I73577568
583I75475631I77408988I79454523I81884420I85004606I88776786I92752604
576I96425492I99545678A002080430A003942979A004747720A003805682A000439094
569I94375634I85825969I75250391I63192595I50358981I37737206I26519518
562I17813519I12299099I10056880I10641068I13291150I17134432I21290750
555I24923217I27327043I27956190I26277072I21707546I13859155I02834636
548H89480026H75757755H64709950H59118131H59493189H63382675H66794296
541H66498760H61623081H53894780H46538827H42363178H42322757H45638820
534H50958023H57166615H63438326H69156019H73998381H77909835H80932924
527H83099210H84342348H84411033H82955175H79859008H75711404H72124776
520H71374294H75183306H83477563H94262051I04840998I13398424I19710776
513I24581769I28753611I32407752I35504287I38210969I40834473I43525195
506I46240007I48900048I51448860I53840019I56041598I57982277I59523735
499I60628698I61482354I62304597I63130280I63856305I64398975I64765246
492I65008864I65070886I64689751I63589108I61664391I58833151I54821379
485I49276424I42015444I33048104I22405818I10077163H96205367H81323652
478H66262757H51792420H38441692H26618581H16713524H09035381H03753450
471H00862825H00063428H00736878H02245091H04267416H06761309H09685765
464H12894772H16269342H19849526H23762811H28019154H32435201H36765355
457H40872905H44818335H48819197H53111054H57890662H63372644H69808379
450H77406999H85647436H91650412H90054476H77390890H57427295H39658983
443H31187449H31660335H36295983H41239761H45215873H48343894H51023119
436H53498705H55802435H57873381H59608445H60923637H61924841H62883501
429H63988758H65268070H66639938H67821861H68229285H67166425H64329034
422H60372693H56930537H55639436H56917650H59796633H62912352H65484962
415H67509189H69385213H71456159H73717490H75912553H77879154H79666280
408H81372860H83090423H84916578H86768582H88266324H88835281H87527484
401H82852661H74038947H63293488H55798115H56007391H63939624H75634077
394H86733141H95100842I00849655I05059354I08570854I11513762I13721127
387I15356165I16898647I18629389I20387228I21821630I22708676I22900892
380I21985654I19022682I12422630I00084309H80780763H56812499H34720769
373H21001939H15991087H13315010H06858479G97993214G94762605H03736682
366H23624855H47116791H67491251H82320243H92236358H98597111I02696021
359I05695459I08359307I10901456I13127639I14704464I15503127I15809940
352I16132349I16792178I17777419I18986289I20414833I21922534I23121371
345I23881227I24613256I25623320I26571070I26956525I26675928I25508576
338I22053460I13986347I00902084H87291774H80606048H84678817H96224625
331I08782327I18460974I24978868I29281928I32073115I33937860I35497330
324I37150748I38956767I40800789I42539002I44071159I45470926I46915214
317I48362284I49581918I50575141I51591356I52692585I53645900I54318910
310I54966950I55987851I57416176I58927831I60443806I62359515I64962953
303I67941815I70620308I72556667I73934393I75367551I77262318I79570513
296I82196724I85202165I88480152I91719035I94913837I98523824A002812899
289A007295434A011216480A014294489A016369609A016320694A011933572A001291359
282I84232083I62020045I35775365I06797420H79147994H59685038H53316084
275H58955132H71199506H84958097H97721488I08579348I15960342I15603446
268I00235372H62807201H02621101G28510409F53805423E88037390E35400299
261D99541813D85013410D92825041E17747499E51529656E87299795F20973579
254F50714381F76130228F97499448G15265490G29972636G42301511G52860321
247G61930761G69566873G75882883G81100525G85442029G89149478G92520313
240G95803644G99029932H01956144H04300660H06069993H07538665H08964793
233H10459750H12054663H13715184H15141751H15634409H14628445H12439459
226H09894456H07267220H04163144H00131894G94820819G87894770G79186939
219G68740676G56542947G42187280G25127199G05488283F84062607F61961651
212F41060338F22992170F06766193E89481751E72432397E60710043E54661594
205E52792895E55707575E65080288E81655731F04526646F31322746F59111152
198F85507334G09108449G29279343G45740225G58594927G68465058G76013372
191G81539362G85139097G86925565G87155125G86206936G84293716G81427987
184G77730716G73481988G69082343G65156537G62229153G60160989G58229902
177G55752191G52494489G48693239G44759232G40860519G36901249G32882154
170G28935992G25047457G21137028G17356500G13920130G10745611G07652079
163G04831163G02727266G01438434G00517924F99477252F98371703F97701036
156F97603574F97426076F96569345F95485470F95171336F96059700F97794983
149F99517013G00049578F98426841F94797962F90592730F87535003F86539366
142F87503957F90031973F93878331F98549127G03283921G07909464G13030520
135G19080873G25770699G32428746G38168332G41540778G40749070G34851757
128G24718238G12745968G02011419F95357693F93983774F96580622G00707650
121G05054572G09901987G15939306G23101432G30110519G35226962G37821320
114G38709538G38792501G38302261G37346968G35952985G33638860G30027775
107G25678802G21424216G17479738G13626571G09580237G05287501G01219930
100F97924958F95348540F93177129F91685684F91738919F93820190F97234667
93G00348482G01506460G00151505F97399203F94766329F92537656F90004441
86F86711808F82897819F78993248F75329587F72230783F69877042F68040635
79F66184384F64053540F62055013F60735207F60063149F59579865F59225823
72F59473469F60322292F60811361F60491735F60472696F61739780F63622318
65F64988475F65971153F67371578F69508060F72545430F76417343F79880587
58F82011505F84101416F88286146F95054615G02910255G10236625G16663793
51G22899551G29234530G34714314G38976442G43423024G48601415G51425699
44G46464566G30248255G03330126F70442265F40231579F20619610F12158950
37F07448100E98645113E85437320E73380146E68457603E72835902E82279350
30E92514945F02654615F13588336F26260416F39533599F50622337F58304068
23F63632863F67453152F70052928F73228179F80573368F93695561G07036624
16G14579593G18441693G22579266G26681178G27703544G24728341G19949979
9G15384554G11326797G08075391G06713336G08169193G12096610G14574760
2G07539239F91405963
##END=


$$ === CHEMSPECTRA PEAK TABLE EDIT ===
##TITLE=X8792
##JCAMP-DX=5.00
##DATA TYPE=INFRAREDPEAKTABLE
##DATA CLASS=PEAKTABLE
##$CSTHRESHOLD=0.93
##MAXX=3997.453
##MAXY=0.8740197450684454
##MINX=373.96442
##MINY=0.3947981608638312
##$CSSOLVENTNAME=- - -
##$CSSOLVENTVALUE=0
##$CSSOLVENTX=0
##NPOINTS=46
##PEAKTABLE= (XY..XY)
381.04707946051576, 0.5752606413722515
419.29344054730245, 0.462721260002815
473.1216524472534, 0.5374985950573814
509.9514816419073, 0.5630282180013149
548.197842728694, 0.5648988502081637
575.1119486786547, 0.5588391443804012
587.8607357075839, 0.5658655189308115
662.9369259890536, 0.4499702766663564
740.8461800547302, 0.3947981608638312
763.5106903284081, 0.6945944455406429
844.2530081782902, 0.7201235320623195
893.8316244018761, 0.6469322462184036
934.9110492728946, 0.6967851541520191
968.9078146833713, 0.6975365897525498
997.2384525254352, 0.6807401800008166
1038.3178773964032, 0.651247086031729
1110.5610038936907, 0.7099046139952724
1131.8089822752386, 0.6856459398047402
1144.5577693041673, 0.699317278843016
1165.8057476857152, 0.7407811311969216
1256.4637887803196, 0.6944686793482313
1286.2109585144867, 0.7129967830583155
1341.455702306489, 0.528919996830288
1365.5367444722656, 0.6885876680655497
1385.3681909617103, 0.6968097115466592
1437.779870969507, 0.6158807300058862
1454.7782536747668, 0.693940045389005
1464.6939769194892, 0.6888497498167601
1493.0246147615321, 0.6063859486118599
1532.687507740422, 0.5166142602469262
1610.5967618060981, 0.49398622099192846
1684.2564201954842, 0.8316594391419351
1732.4185045269928, 0.8284372719300106
1774.9144612900886, 0.8174078483226189
1806.078162916359, 0.8087008026058239
1869.8220980610026, 0.8149673370643495
1896.7362040109633, 0.8073453335661996
1930.73296942144, 0.7984231735704581
2511.5110451837495, 0.7756364965904242
2918.055698217366, 0.7171006225199877
2950.6359317357396, 0.7087676552188975
3058.2923555355746, 0.672074082268289
3188.6132896090694, 0.6084218639933734
3253.7737566458172, 0.62300306797467
3269.3556074589524, 0.6234313274803027
3445.00556207975, 0.6710625909484104
##END=


$$ === CHEMSPECTRA PEAK TABLE AUTO ===
##TITLE=X8792
##JCAMP-DX=5.00
##DATA TYPE=INFRAREDPEAKTABLE
##DATA CLASS=PEAKTABLE
##$CSTHRESHOLD=0.93
##MAXX=3997.453
##MAXY=0.8740197450684454
##MINX=373.96442
##MINY=0.3947981608638312
##NPOINTS=105
##PEAKTABLE= (XY..XY)
3993.2034043236904, 0.8113610776785956
3979.0380854026585, 0.8099094661418474
3969.1223621579356, 0.8103082207953631
3949.290915668491, 0.809083105620138
3937.9586605316654, 0.8095205453537117
3929.459469179046, 0.8099111942517888
3916.7106821501175, 0.8102830081352954
3901.128831336982, 0.8105274465596198
3879.880852955434, 0.8119502695592525
3869.9651297107116, 0.8109720974688744
3862.8824702501956, 0.8112071187929107
3851.5502151133696, 0.8114361198149563
3817.553449702893, 0.812584639752658
3445.00556207975, 0.6710625909484104
3269.3556074589524, 0.6234313274803027
3253.7737566458172, 0.62300306797467
3188.6132896090694, 0.6084218639933734
3058.2923555355746, 0.672074082268289
3038.46090904613, 0.6847454333544163
3017.2129306645816, 0.696939113037704
2970.4673782251757, 0.7152618793546193
2952.052463627834, 0.7084530024585243
2918.0556982173575, 0.7171006225199877
2896.807719835809, 0.7287379525514475
2871.310145777951, 0.7317887568651312
2842.9795079358873, 0.736496927687818
2823.1480614464426, 0.741849186982097
2782.0686365754495, 0.7453699737082737
2755.1545306254884, 0.7439458393637917
2748.0718711649724, 0.7438288952418202
2721.1577652150118, 0.7472131873304477
2698.4932549413606, 0.7572302242242086
2687.1609998045346, 0.7573125385858244
2671.5791489913995, 0.75413507512796
2647.4981068256448, 0.7597537661590954
2606.418681954652, 0.7710454489684592
2592.25336303362, 0.7764683987854641
2580.921107896794, 0.7767919924594483
2566.7557889757622, 0.7795592573176522
2545.507810594214, 0.7790831951815831
2511.511045183737, 0.7756364965904242
2481.76387544957, 0.7864562889846088
2460.515897068022, 0.7915551095193673
2442.10098247068, 0.7919392016931968
2427.935663549648, 0.7917770768164937
2413.770344628616, 0.7950603986076854
2399.605025707584, 0.7936285166652656
2395.3554300312744, 0.7936069995394106
2389.6893024628616, 0.7927585268619984
2382.6066430023457, 0.7927193069876721
2368.4413240813133, 0.794218900233607
2350.0264094839717, 0.7957232024366829
2324.528835426114, 0.7978081137643058
2310.363516505082, 0.7987311507634131
2301.8643251524627, 0.7985369593944679
2291.9486019077403, 0.7968326237852121
2273.533687310399, 0.8009226945329616
2243.7865175762313, 0.8026528386461272
2232.4542624394057, 0.8076425220784373
2215.455879734167, 0.8090398939176665
2209.789752165754, 0.8078874375034332
2202.707092705238, 0.8050498386520154
2192.791369460516, 0.8083350090243079
2181.4591143236903, 0.8044130232196726
2170.1268591868647, 0.8069198155934366
2153.1284764816264, 0.8098689349226716
2143.2127532369036, 0.8075199752335613
2124.797838639562, 0.8108575969578516
2112.049051610633, 0.8096142442398869
2103.5498602580137, 0.8108003764131329
1930.7329694214227, 0.7984231735704581
1898.1527359030492, 0.8063080931639964
1807.494694808444, 0.8080902726780624
1610.5967618060981, 0.49398622099192846
1532.687507740422, 0.5166142602469262
1493.0246147615321, 0.6063859486118599
1464.6939769194682, 0.6888497498167601
1454.7782536747459, 0.6939400445750107
1437.779870969507, 0.6158807300058862
1385.3681909616885, 0.6968097115466592
1364.1202125801406, 0.6865724932593098
1341.455702306489, 0.528919996830288
1286.210958514464, 0.7129967830583155
1257.8803206724, 0.6927465221473335
1165.8057476856916, 0.7407811311969216
1144.5577693041437, 0.699317278843016
1131.808982275215, 0.6856459398047402
1109.1444720015634, 0.70929372591001
1038.3178773964032, 0.651247086031729
1000.0715163096165, 0.6765818623412897
967.4912827912431, 0.6964856408720035
936.3275811649723, 0.6966148046767068
893.8316244018761, 0.6469322462184036
845.669540070367, 0.7168083212296473
763.5106903283813, 0.6945944455406429
740.8461800547302, 0.3947981608638312
662.9369259890536, 0.4499702766663564
587.8607357075839, 0.5658655189308115
575.1119486786547, 0.5588391443804012
548.197842728694, 0.5648988502081637
509.9514816419073, 0.5630282180013149
475.95471623143067, 0.5366060755193254
468.8720567709147, 0.5376210230590868
419.29344054730245, 0.462721260002815
381.04707946051576, 0.5752606413722515
##END=

##END=

