##TITLE=JB 205.1
##JCAMP-DX=4.24
##DATA TYPE=INFRARED SPECTRUM
##DATE=25/1/2018
##SAMPLING PROCEDURE=Diamant-ATR
##ORIGIN=Rieke
##XUNITS=1/CM
##YUNITS=TRANSMITTANCE
##RESOLUTION=4
##FIRSTX=3997.453
##LASTX=373.96442
##DELTAX=-1.4165319
##MAXY=0.89950645
##MINY=0.45466539
##XFACTOR=1
##YFACTOR=8.3773066e-010
##NPOINTS=2559
##FIRSTY=0.82781947
##XYDATA=(X++(Y..Y))
3997+988168994+988057999+987971552+988023919+988044837+987865040+987739958
3988+988065186+988662847+988880210+988437799+987702747+987142297+986973671
3978+987250019+987844264+988432605+988747800+988773129+988653313+988541038
3968+988463199+988261347+987824912+987362720+987218570+987450804+987812603
3958+988097772+988270738+988349003+988359818+988344663+988270738+988052450
3948+987743445+987497052+987303168+987069226+986929985+987127569+987580511
3938+987931850+988019294+988094428+988538547+989349374+989968380+989836326
3928+988983876+987926799+987290716+987406833+988023349+988650395+989111377
3918+989501778+989816119+989891467+989680436+989362537+989203517+989339129
3908+989682143+990058883+990322423+990309332+989967313+989553291+989346315
3898+989280643+989105258+988714431+988203573+987777526+987600718+987657851
3888+987925376+988464907+989091597+989342473+989072316+988597531+988356830
3878+988626276+989220023+989667273+989704342+989555283+989546318+989615689
3869+989602313+989629990+989773002+989791786+989484204+989105258+989058868
3859+989408287+989926971+990303213+990081082+989025143+988130075+988273584
3849+989085977+989871403+990207872+990130887+989976136+989953225+989941272
3839+989829140+989843512+990153228+990443236+990368600+990000611+989692033
3829+989679440+989969448+990464155+991001409+991276689+990860532+989825440
3819+989135426+989268263+989598755+989398183+988824002+988432249+988411189
3809+988662776+988956554+988998533+988792838+988734139+989064703+989387440
3799+989154209+988553204+988250034+988665123+989529669+990194353+990265148
3789+989871474+989497651+989568944+990130176+990795145+991115036+990982199
3779+990615277+990304351+990203745+990302075+990458747+990429077+989972649
3769+989115860+988360032+988323745+989065770+989932094+990267994+990076813
3759+989834191+989901713+990194851+990495461+990824886+991343428+991871433
3750+991799216+991104221+990378419+990002461+990047357+990354654+990704357
3740+991023964+991381635+991772250+991806544+991068219+989931596+989141402
3730+989003229+989484417+990422034+991436350+992071792+992237571+992187980
3720+992142586+992177094+992340099+992651238+992981802+993039647+992610327
3710+991886588+991237628+990832072+990692475+990694183+990546760+990095953
3700+989632125+989523977+989748171+990075461+990464653+991063025+991826253
3690+992338676+992287234+991938314+991619775+991394656+991319593+991426389
3680+991606256+991753751+991863037+991820632+991444817+990950821+990779705
3670+991201910+991935041+992219570+991859266+991323435+991093691+991251431
3660+991564135+991850799+992082820+992224338+992161583+991827889+991310414
3650+990860176+990811225+991255629+991965209+992604493+992846474+992617371
3640+992232804+992054858+992080330+992071436+991900889+991607252+991277329
3631+991035134+991108348+991633293+992400150+993186856+993873882+994206794
3621+993786794+992482613+990913539+989997552+990152944+991223398+992528291
3611+993326595+993539477+993470105+993076289+992250948+991393944+991040328
3601+991198353+991393873+991348551+991230797+991316248+991685731+992149061
3591+992431242+992459133+992414237+992482470+992618225+992736405+992856435
3581+992926091+992771980+992376741+992043687+992010958+992079405+991978229
3571+991863606+992047245+992410893+992472865+992161868+991953113+992154966
3561+992666109+993112505+993123319+992692932+992123874+991632440+991297109
3551+991358085+992094346+993288103+994163392+994098574+993331789+992567779
3541+992153259+992016081+991935681+991700246+991319023+991066085+991083659
3531+991147623+990981345+990579204+990140777+989892534+989997908+990415488
3521+990864587+991086220+991065017+990963628+990934528+990946339+990771808
3512+990278026+989733443+989588652+989871403+990093035+989832128+989258516
3502+989017744+989485698+990305063+990794647+990640393+990078877+989533013
3492+989307467+989527534+990026297+990360702+990213777+989753009+989470685
3482+989708682+990295956+990686783+990552523+990089976+989743261+989830136
3472+990398127+991174944+991692135+991742438+991632867+991743220+991983139
3462+991942583+991431298+990663731+989993141+989650553+989665565+989888479
3452+990092110+990146113+990092039+990056109+990136722+990334234+990491618
3442+990396918+990080798+989900859+990136508+990627515+990952458+990853132
3432+990416911+989983251+989909682+990282793+990838546+991249723+991395581
3422+991266016+990859322+990406096+990388664+990967613+991617071+991663248
3412+991020406+990115163+989300565+988735420+988634600+989158336+990033554
3403+990645516+990650639+990330748+990227865+990500797+990763768+990618550
3393+990195919+989968523+990124982+990423314+990618835+990689772+990600051
3383+990213137+989620670+989267338+989516506+990243091+991017560+991560293
3373+991858341+991983779+991987621+991917752+991777444+991489855+991027877
3363+990575860+990402325+990549179+990785824+990907562+990935666+990978855
3353+991035348+991020620+990908487+990760779+990646014+990610937+990691266
3343+990875260+991103865+991361073+991678758+992048454+992454579+992889449
3333+993190485+993086179+992557249+991870650+991189957+990472550+989718999
3323+989040440+988578605+988456796+988613611+988745879+988614749+988215099
3313+987539315+986523718+985296236+984155913+983327085+982932486+983030460
3303+983488382+983966654+984205291+984306182+984612626+985220603+985740142
3293+985799267+985655473+985915598+986713191+987587697+988118975+988275363
3284+988199588+988020930+987861483+987755825+987599152+987307437+986934966
3274+986603406+986473700+986707712+987223978+987604204+987473145+986864385
3264+986090770+985400756+984820597+984229055+983620295+983297985+983604499
3254+984425785+985197907+985463439+985252834+984901353+984668976+984622587
3244+984780184+985166885+985648073+985877035+985592434+984924263+984327527
3234+984232969+984753787+985621036+986393727+986805259+986926214+987000851
3224+987181288+987384279+987356957+986995586+986625036+986687506+987106936
3214+987336537+987103876+986713760+986524572+986521584+986520943+986507923
3204+986631155+986952113+987288938+987379156+987184062+986874986+986508563
3194+985978423+985395633+985199756+985646579+986412297+987016575+987426044
3184+987859491+988210972+988156756+987730851+987378658+987471794+987959385
3174+988442281+988544809+988295072+988060561+988036227+988054727+987995387
3165+988003000+988115844+988061628+987649598+987081891+986683165+986543711
3155+986580994+986763707+987102738+987514697+987854937+988103678+988378744
3145+988693726+988828982+988579245+988039500+987559450+987490577+987937187
3135+988580811+988846770+988461136+987733057+987144645+986896402+986968976
3125+987309998+987746931+987923455+987575530+986849728+986181628+985867216
3115+985888063+986122787+986492697+986874986+987098042+987096334+986968193
3105+986909352+987092136+987481114+987772403+987689798+987290147+986813370
3095+986350112+985858749+985365607+984890965+984293019+983458784+982565494
3085+981918811+981600414+981430009+981158073+980640883+980000817+979629057
3075+979847417+980575994+981406245+981945705+982065238+981882880+981546767
3065+981050139+980288121+979254096+978140952+977274201+976912261+977059043
3055+977490711+977906441+977949558+977208174+975329882+972165907+967930553
3046+963359940+959502322+957106768+956280075+956738709+958139014+960104537
3036+962198699+964053582+965500420+966542343+967216561+967547552+967671424
3026+967865735+968315617+968904598+969345871+969457150+969290161+969118973
3016+969290659+969931935+970786163+971484431+971944274+972377507+972998007
3006+973866039+974873311+975721919+976084073+975957710+975743620+975852551
2996+976344625+977019199+977703521+978341097+978885681+979265836+979477436
2986+979609847+979736067+979851330+979909531+979847203+979640014+979432042
2976+979458297+979721837+979933082+979907183+979779397+979702911+979595617
2966+979340330+978991481+978662838+978405773+978283608+978382507+978645122
2956+978791193+978551062+978021349+977665385+977794380+978140312+978194955
2946+977912774+977758378+978055359+978605136+978997244+979032961+978771556
2936+978370696+977970761+977585981+977094547+976444022+975790721+975276590
2927+974833538+974400092+974138046+974200658+974470104+974709381+974838377
2917+974948161+975177620+975610569+976214705+976865586+977426534+977799645
2907+978007475+978246041+978690373+979236024+979623009+979798679+979946814
2897+980178905+980378410+980379976+980197404+980023229+980032407+980257953
2887+980665501+981209515+981748975+982084733+982183774+982215009+982289574
2877+982329062+982262821+982178722+982191244+982301598+982441693+982546355
2867+982552545+982435645+982253145+982080891+981937594+981833573+981782345
2857+981688213+981375508+980847147+980388229+980299576+980627009+981208803
2847+981855843+982401778+982726507+982856142+982954187+983131138+983358533
2837+983587779+983821934+984071671+984382953+984840519+985416551+985932034
2827+986242817+986329834+986229655+986060531+986025169+986202760+986436132
2817+986511480+986332751+985941639+985518438+985308474+985430425+985807734
2808+986291271+986721729+986917534+986789748+986496966+986336736+986435848
2798+986649796+986813299+986952042+987150693+987352688+987446678+987446606
2788+987465675+987582503+987810682+988116912+988419300+988629335+988736985
2778+988812902+988913722+989043144+989223937+989504482+989821028+989967242
2768+989828926+989566809+989464709+989651193+990015482+990325625+990415915
2758+990302217+990104206+989884139+989645715+989458234+989449056+989661012
2748+989959771+990104206+989974713+989757136+989781398+990125764+990544483
2738+990818909+990960711+991034850+991003899+990828159+990602826+990532032
2728+990742138+991097818+991299599+991251858+991230228+991539233+992086520
2718+992442911+992319750+991863678+991441330+991247446+991243177+991363919
2708+991576373+991778013+991842902+991777728+991702380+991677478+991654425
2698+991597220+991586548+991750264+992072290+992313844+992207831+991748343
2689+991230228+990992302+991156588+991573527+991946852+992032446+991792741
2679+991373738+990943279+990616131+990511612+990717662+991141077+991515753
2669+991631586+991492060+991264380+991130974+991156232+991236276+991213081
2659+991064804+990941430+990974372+991112474+991204756+991220125+991288571
2649+991492558+991726358+991820418+991742367+991618210+991592382+991686585
2639+991799287+991868089+991984704+992258205+992618580+992882263+992968141
2629+992944946+992935768+993055442+993342462+993683057+993939127+994209142
2619+994754080+995545056+996102873+996019414+995526273+995271128+995554804
2609+996064381+996387260+996483598+996539237+996663750+996912704+997367780
2599+998003364+998617177+999001672+999134438+999172432+999268770+999392571
2589+999401820+999277308+999146889+999086269+999049983+999003095+999030203
2580+999291822+999823598+1000391234+1000700666+1000700879+1000481595+1000079881
2570+999669985+999655542+1000201192+1000916678+1001295908+1001268871+1001104514
2560+1000937952+1000664877+1000293260+1000123283+1000387676+1000915610
2551+1001307932+1001285022+1000861394+1000430936+1000536167+1001227461
2543+1001868097+1001885885+1001462541+1001193950+1001326716+1001613593
2534+1001768274+1001781650+1001772543+1001769127+1001792678+1001937611
2526+1002148358+1002152982+1001857140+1001542585+1001450232+1001461190
2517+1001440841+1001585845+1002109225+1002830687+1003395477+1003684418
2509+1003747599+1003602666+1003322904+1003057016+1002852530+1002743244
2500+1002917917+1003453820+1004082787+1004572656+1005085719+1005837421
2492+1006626902+1006969775+1006607834+1005791458+1005074762+1004837761
2483+1004995999+1005152387+1004986750+1004572585+1004383041+1004837050
2475+1005764278+1006479124+1006478341+1005941015+1005455131+1005372526
2466+1005563848+1005732972+1005739376+1005591881+1005349971+1005108701
2458+1004921505+1004755512+1004640960+1004724490+1005040539+1005438126
2449+1005866450+1006491859+1007336981+1007986510+1007914435+1007110581
2441+1006195163+1005790746+1005902808+1006071576+1006015936+1005889929
2432+1005927639+1006100890+1006242336+1006312703+1006358382+1006334831
2424+1006168696+1005927141+1005769899+1005794090+1006000568+1006356959
2415+1006840068+1007414321+1007983166+1008439167+1008782253+1009087487
2407+1009314599+1009292257+1008921850+1008339913+1007859080+1007713151
2398+1007838233+1007982953+1008029414+1008058514+1008132724+1008214333
2390+1008261150+1008266557+1008254817+1008264351+1008282637+1008264280
2381+1008289183+1008553506+1009078807+1009557363+1009646087+1009363834
2373+1009056537+1008956144+1008916016+1008763398+1008798974+1009514175
2364+1010667234+1011203065+1010591316+1009723427+1009686216+1010172883
2356+1010106428+1009349889+1008674817+1008470331+1008508112+1008604164
2347+1008807369+1009075748+1009071977+1008547102+1007886687+1007766941
2339+1008278368+1008806800+1008846644+1008558415+1008356420+1008297934
2330+1008124470+1007744671+1007371773+1007166078+1007018726+1006807481
2322+1006659845+1006744869+1006974257+1007173122+1007358610+1007622791
2313+1007894798+1008025999+1008044711+1008141333+1008402098+1008746109
2305+1009134162+1009616062+1010119449+1010390317+1010211090+1009633422
2296+1009039817+1008886702+1009222032+1009628371+1009766686+1009644024
2288+1009262730+1008594061+1008071819+1008501495+1010136809+1012183585
2279+1013470051+1013487696+1012620162+1011537755+1010781003+1010843401
2271+1011909871+1013336573+1014097381+1013952164+1013650274+1013968315
2262+1014955808+1015962938+1016159952+1015270149+1013950741+1013327324
2254+1014058818+1015776382+1017404368+1018126044+1018001745+1017536067
2245+1016896570+1015927292+1014721083+1013774644+1013531169+1013987881
2237+1014824251+1015751195+1016544163+1016909590+1016666968+1016008118
2228+1015322160+1014868364+1014731471+1014933395+1015469156+1016210256
2220+1016785647+1016863770+1016640074+1016568425+1016618017+1016507236
2211+1016597881+1017618601+1019379923+1020565355+1020144715+1018601256
2203+1017468190+1017830629+1019473983+1021251811+1022007639+1021505319
2194+1020824911+1021311364+1022745608+1023439891+1022425646+1020462330
2186+1018779842+1018137286+1019008092+1021238578+1023547186+1024504938
2177+1023923855+1022796481+1022201096+1022463285+1023118791+1023517374
2169+1023426444+1023111533+1022933374+1022818395+1022220520+1021110294
2160+1020913421+1023261803+1027524264+1031408279+1033749403+1034659555
2152+1034042043+1031780038+1028742995+1026287391+1024923514+1024239619
2143+1023872200+1023943848+1024746065+1026246693+1027741770+1028284361
2135+1027823451+1027329811+1027323621+1027141619+1026177962+1024983636
2126+1024487577+1024716894+1025019353+1025190896+1025560592+1026068035
2118+1026059497+1025221206+1024140364+1023577140+1023526196+1023462304
2109+1023376781+1023892193+1025129565+1026182658+1026198738+1025365570
2101+1024352534+1023482937+1022901996+1022864571+1023365611+1024002404
2092+1024529200+1025131770+1025947933+1026708101+1027097506+1027206721
2084+1027304268+1027287975+1026702125+1025377523+1023825240+1022810142
2075+1022607008+1022964324+1023723852+1024955603+1026396535+1027380114
2067+1027588371+1027401886+1027329598+1027506619+1027812494+1028099727
2058+1028199550+1027996417+1027607937+1027421168+1027891613+1029372745
2050+1031921627+1034795665+1036411200+1035768074+1033689850+1031907326
2041+1031350505+1031978049+1033658188+1036235957+1039036640+1041226499
2033+1042689203+1043792884+1044176454+1042881451+1040161452+1037811791
2024+1036810850+1036174270+1035129288+1034459196+1034580507+1034431804
2016+1033564910+1033235201+1033952536+1034106221+1032420247+1030154827
2007+1029300385+1029769336+1030058632+1029711704+1029472711+1029785985
1999+1030377527+1030949289+1031479856+1032052188+1032920788+1034386196
1990+1036088321+1037001817+1036687263+1035900413+1035468319+1035084179
1982+1033795295+1031389993+1029087860+1028800484+1031080561+1034009456
1973+1035235587+1034596232+1033542356+1032914527+1032702713+1033066646
1965+1034080820+1035194320+1035976046+1036528598+1036746815+1036294301
1956+1035523033+1035338256+1036047979+1037063291+1037682440+1037719082
1948+1037426086+1037064003+1036647561+1036091665+1035512645+1035298483
1939+1035819018+1037024016+1038342855+1039255000+1039888236+1040538477
1931+1040897429+1040528018+1039802144+1039575816+1040166860+1041244784
1922+1042384111+1043226315+1043407819+1042946909+1042523850+1042688705
1914+1043123503+1043205539+1042830863+1042468140+1042552381+1043037910
1905+1043604692+1044126934+1044714563+1045337838+1045668045+1045343316
1897+1044289725+1042956372+1042210932+1042575007+1043651366+1044583219
1888+1044975968+1045088812+1045138617+1044942883+1044279551+1043353888
1880+1042796782+1043182131+1044515485+1046193205+1047496461+1048167621
1871+1048438276+1048515118+1048231727+1047389096+1046142261+1044760454
1863+1043477404+1042628583+1042553520+1043324004+1044732706+1046491252
1854+1048254424+1049564867+1050099347+1050002867+1049802153+1050005215
1846+1050797258+1051836192+1052459041+1052564770+1052626884+1052855418
1837+1053056844+1053108855+1053098253+1052966270+1052456124+1051520286
1829+1050609920+1050220302+1050315928+1050515717+1050613691+1050757912
1820+1051165958+1051972587+1053219422+1054700625+1056033339+1057011582
1812+1057660827+1058024760+1058135398+1058069086+1057872783+1057587542
1803+1057384195+1057537239+1058155035+1058964368+1059546874+1059725176
1795+1059550645+1059093434+1058372684+1057396646+1056212850+1055006500
1786+1054133986+1053902961+1054256506+1054799097+1055092449+1054994760
1778+1054845203+1055108600+1055962260+1057267936+1058546148+1059256937
1769+1059491306+1059693657+1059998179+1060347171+1060798476+1061343344
1761+1061772664+1062046236+1062363637+1062785984+1063193318+1063526514
1752+1063870454+1064356125+1064944963+1065450627+1065924345+1066557652
1744+1067329631+1068121674+1068935988+1069748451+1070463225+1071080168
1735+1071537805+1071615003+1071432361+1071421688+1071700028+1072197509
1727+1072790546+1073304748+1073629975+1073741823+1073636236+1073326093
1718+1072711996+1071463240+1069633899+1067845185+1066475545+1065659453
1710+1065470194+1065745545+1066157646+1066546126+1066901094+1067109919
1701+1066880460+1065670339+1062791107+1057299811+1048612167+1038648587
1693+1030286811+1024608319+1022157126+1023405739+1027870125+1035109437
1684+1044479625+1052250855+1055620454+1055916154+1054413250+1050346807
1676+1041468196+1026802304+1007089378+979416887+937288896+883375882+832766511
1666+792188525+757539764+725870984+698593945+676062051+655808313+636792089
1656+620142390+608190947+605467107+611758699+620128231+629858509+644488185
1646+664667998+685483609+704684254+723580447+742158315+759381485+775664832
1636+791761553+804726102+811988965+816270851+820960783+827673157+836133050
1626+845076194+854181917+863818917+873002335+880269183+885808576+890313304
1616+893105662+893261765+891595216+889204002+886583757+884140817+882303436
1606+881210214+880528667+879566789+877656621+874411464+869352405+861500917
1596+849951045+835227238+820008652+807950555+801147109+798049730+794142165
1587+786427854+777385385+772901717+776182307+785000512+795381316+806124274
1577+818338901+830869790+840618781+847899574+854974529+862401962+867970669
1567+869841349+868710417+866581392+865484257+867213774+874050163+884789137
1557+892614513+897046241+900559563+903843853+906999290+910114527+912895003
1547+914998343+916485381+917440429+917635594+917010113+916373604+916570263
1537+917357539+918519492+920145771+921967854+923448204+924692548+926288730
1527+928536363+931086312+933550668+936206631+939327490+942365173+944985063
1517+947678665+950688315+953623116+956146882+958207176+959892154+961651981
1507+964171976+966784965+968230237+969013814+969920124+971147891+972503158
1497+973791402+975008070+976140139+977137166+978026472+978845196+979531155
1487+979982317+980118783+979864208+979321831+978946229+979239368+980209500
1477+981368251+982095405+981771530+979635888+974832044+967071344+956839244
1468+945531852+936692160+935204553+941323606+949806765+957071264+963068793
1458+968842769+974118835+977794593+980154643+981931404+983561454+985363117
1448+987481399+989606724+991257621+992331490+992977177+993075293+991533256
1438+984727391+966632490+936637872+903041208+875488107+862603673+867862948
1428+884257005+902374176+918555921+932081205+942502564+950683904+958200417
1418+965008986+970014611+973394954+975846574+977549552+978486884+978854232
1408+979008201+979271741+979838025+980760629+982085231+983966938+986432290
1398+989081352+991434998+993464200+995331535+997028394+998596330+1000253558
1388+1002158247+1004213134+1006207045+1008093449+1009974872+1011948861
1380+1013959492+1015739526+1017025351+1017757486+1017925472+1017321976
1371+1015537033+1012016880+1006333835+998665559+989512308+978939897+966733523
1361+952800122+936662419+917444271+895371082+873249369+855980805+847694092
1351+849285365+858686645+872694469+888727510+905441529+922020648+937563607
1341+951113508+961509254+967485509+968610179+965135420+956366024+940571194
1332+917949295+894005355+878289430+877700592+891067140+910916532+929666227
1322+943569603+952312815+956950807+958554887+957742210+954599936+948741505
1312+939425534+925722091+906722374+882133956+853328044+823829485+798248737
1302+780224275+770862412+768608589+770127787+771236590+768035404+758666782
1292+744391576+728288807+712498601+697081293+681825283+668644081+661445182
1282+663469759+674848657+692577775+712499598+731357441+747784654+762187006
1272+775893580+790133424+805349022+821108064+836479765+850327358+860896497
1262+864728856+856490240+831971977+793109421+749469133+713348845+692686208
1252+687821104+693508419+702746053+709513427+710422227+705636172+698470927
1242+693437624+693817495+700442426+712140859+726764558+741947782+755751476
1232+767225288+776434605+783915259+790070812+794893439+798096547+799595182
1222+799921975+800090387+800949880+802600563+804365229+805283137+804714291
1213+802763640+800409068+799124880+800025640+803181291+807728567+812612881
1203+817243829+821614582+825993516+830569893+835316104+840080388+844735883
1193+849238975+853597276+857827294+861908821+865756691+869271080+872442099
1183+875365943+878161929+880908324+883634726+886327332+888951917+891512113
1173+894072450+896643246+898893654+900007936+899215324+896751110+893959108
1163+891980209+890620744+889094787+887650510+887680465+890151295+894553781
1153+899575130+904253820+908239650+911425397+913769438+915318661+915969827
1143+914915026+910540076+901818636+890533016+881409577+878772824+882976232
1133+890672897+898094211+903307879+905994864+906407036+904988516+902658776
1123+900981056+901525426+904835757+910221324+916517327+922744458+928214266
1113+932535569+935540026+936694010+934227733+925271497+908189418+885754929
1103+865215808+853662592+852945256+859315043+867291115+873195295+876037529
1094+876833129+877563770+879948011+884441284+890221592+896022817+900859034
1084+904238594+906273203+907700190+909405801+911740450+914392856+916818506
1074+918581606+919380622+919106054+918136064+917468249+918168580+920541508
1064+924046576+927999251+931990986+935480687+937031048+934056759+924131103
1054+907855226+890619819+880114645+880829419+890966889+904777627+917235517
1044+926417797+932867983+938016122+942919504+947574216+951027559+951807080
1034+947850563+936360885+914809155+883393456+847592205+817771123+803748927
1024+807880757+823900208+842878082+859389608+872361771+882481454+890284275
1014+895980910+899969444+903069455+906143639+909558276+913158045+916760447
1004+920586474+925170393+930809325+937160612+943453059+949004547+953482452
994+956930529+959751703+962462808+965151215+967120651+967067786+963474563
984+954859136+939938029+917827344+888598444+854756098+822637080+800763823
975+794686108+803172112+820057034+839223669+857304198+873097534+886307979
965+896967762+905123061+910689207+913741690+914834698+914550880+912261127
955+905324558+890226501+865726737+835672211+808238428+791254750+787648222
945+795088817+809065691+825646019+842272381+857508541+870648974+881437254
935+889947521+896475261+901394012+905145047+908267541+911228809+914213202
925+917123028+919750532+921988417+923915518+925666024+927277646+928701858
915+929887646+930862901+931809198+932966170+934343921+935634442+936499699
905+936791912+936321183+934692486+931958471+929406316+928882295+931005130
895+934649938+938372157+941633394+944489147+946870684+948571457+949554965
885+950003068+950187347+950345656+950517911+950370061+949304374+946949803
875+943437477+939081025+934257901+930065735+928548316+931300403+937807082
866+945745445+952942209+958685092+963344571+967359431+970845431+973891582
856+976768395+979581315+981819200+982201846+978445688+967531899+948378924
846+925584202+908535777+904335571+912082682+925136241+937554001+947226292
836+954592181+960618596+966010496+971004381+975319494+978618796+981194573
826+983922327+987352902+990676609+991415005+987088081+978726447+972007384
816+972550402+980237960+990109115+997929368+1002460066+1003322690+999276383
806+988331216+968606266+940705098+910516241+887978797+881097157+890644010
796+910377285+931680629+947794426+955038150+952155289+938907419+914667780
786+879977681+841886961+815338927+812746714+829474252+843494314+834039386
776+801127613+765409395+749482581+760870159+791613774+829221882+864897340
766+894321049+915645738+927622866+927072236+907344653+862060370+793318246
756+715344891+646523862+596703865+564340696+545772931+542734572+558515243
747+590427997+629747871+668151224+702175287+732092778+758675391+781710957
737+800122120+812284594+816920879+814526819+807540446+799104317+792605038
727+791991510+800302343+816898964+837205069+855195735+865023275+861477580
717+843021094+816671426+797101085+796365891+814089815+839807954+863008944
707+878509498+884499414+878819997+857695879+818850541+768147963+721834637
697+697356218+700382375+722440622+750504795+776476086+798491715+817244185
687+833011196+845272142+853903933+860028109+864964505+867925560+865862562
677+857195765+844975802+834561486+828788863+827577959+832220078+846341528
667+866685983+882604614+892042252+898773197+904903421+910580916+915630299
657+920209877+924634917+929140214+933729967+937932164+940226756+938101715
647+929696822+915411370+897856214+880934934+867924066+858424101+847852117
637+832445552+815059022+804050247+805751091+819409497+839254477+859178577
628+875462066+887224819+895601822+902326292+908619877+915003822+921538463
618+927988009+934072341+939796867+945317263+950526164+955217163+959670165
608+964543095+969989068+975163746+978524451+977936467+969594114+946770718
598+902246319+836341235+763698377+708319385+687328888+698749693+726908424
588+757618527+784753550+806958722+824476026+838491748+850271292+860329217
578+868849018+876342478+883421418+890191068+896280737+901477329+905983266
568+909952376+913150432+915303079+916482322+917104316+917772629+918971865
558+920740230+922684905+924121711+924217408+922569357+919673120+916331554
548+912961529+910137224+909256741+911707650+917474795+924855696+931387562
538+935460551+937412057+938636835+939699818+940103809+939826537+940026540
528+941795261+944702811+947018890+947680586+947522063+948078671+950043837
518+953000339+956051825+958516181+960053664+960556767+960402300+960530086
509+961684923+963633441+965390280+966104912+965791211+965583879+966836691
499+969568358+972354241+973615164+972838418+970970086+969726880+970224148
489+972292625+975037882+977438843+978817874+979620163+981203965+984249760
479+987935621+990741498+991619561+990277101+986590813+979516426+965428061
469+938039316+893891729+841294850+800291528+788271710+805247917+833748667
459+853025371+854973320+849963995+853228861+868954533+890703634+909699011
449+922435524+930949491+938073682+944801425+950326375+953287145+953768049
439+953793165+955422503+959033229+963372178+967237551+970631483+973979737
429+977144637+979417528+979686546+976982557+972119730+967661321+964733493
419+960577614+951624864+940249382+931647900+928899442+932652611+939923230
409+944340087+939796867+925562786+908568506+898276000+899383380+911349978
399+932404511+958958735+982465599+996471858+1001857496+1001137172+996004615
390+987781083+976544841+960222077+935502245+901123570+860583009+820650995
380+789224197+772527894+769295971+765721388+748628281
##END=
