##TITLE=X7434
##JCAMP-DX=4.24
##DATA TYPE=INFRARED SPECTRUM
##DATE=29/10/2018
##SAMPLING PROCEDURE=Diamant-ATR
##ORIGIN=ComPlat
##XUNITS=1/CM
##YUNITS=TRANSMITTANCE
##RESOLUTION=4
##FIRSTX=3997.453
##LASTX=373.96442
##DELTAX=-1.4165319
##MAXY=0.89234614
##MINY=0.38515285
##XFACTOR=1
##YFACTOR=8.3106211e-010
##NPOINTS=2559
##FIRSTY=0.89046347
##XYDATA=(X++(Y..Y))
3997+1071476442+1072214021+1072876078+1072932236+1072611714+1072274697
3989+1072007823+1071962280+1072349144+1072938045+1073243147+1073280657
3980+1073461537+1073741823+1073599744+1072866109+1072007321+1071535325
3972+1071496524+1071591052+1071560069+1071392098+1071210285+1071030983
3963+1070807285+1070737859+1071210429+1072216388+1073092532+1073081200
3955+1072119923+1070980061+1070520687+1070863012+1071404362+1071549095
3946+1071212509+1070721291+1070615359+1071227427+1072066850+1072332863
3938+1072014708+1071582231+1071025101+1070104777+1069286296+1069356942
3929+1070118332+1070669293+1070665420+1070454489+1070398403+1070407225
3921+1070098537+1069209196+1067913125+1066910465+1066850506+1067683690
3912+1069003357+1070564509+1072045692+1072789654+1072310199+1070926772
3904+1069611551+1069013254+1068964843+1069257608+1069973384+1070974538
3895+1071864811+1072355527+1072412545+1072256193+1072152054+1071988602
3887+1071294127+1069820116+1068059580+1066628960+1065658431+1065531915
3878+1066609739+1068149733+1068999484+1068726370+1067821896+1067040926
3870+1066960383+1067860697+1069202813+1069985218+1069672945+1068670715
3861+1067907316+1067835164+1068304292+1068938234+1069218663+1068446945
3853+1066723990+1065989925+1066962821+1068644967+1070196652+1071123072
3844+1071132468+1070272891+1069056502+1068098739+1067707860+1067942889
3836+1068689864+1069534236+1069889614+1069542484+1069031830+1069044596
3827+1069574543+1070031119+1069878569+1068878777+1067147073+1065634763
3819+1065309938+1065797426+1066492690+1067401539+1068427509+1069060016
3810+1068934361+1068118606+1067275453+1067373137+1068198575+1068147294
3802+1066288070+1064220137+1064392554+1066655568+1069298704+1070986587
3793+1071419209+1071067775+1070456497+1069911560+1069590178+1069476501
3785+1069461941+1069422064+1069072639+1068077725+1066725855+1065970848
3776+1066159402+1066768888+1067390566+1067877050+1068012315+1067804540
3768+1067715821+1068007367+1068523184+1069160928+1069810434+1070044101
3759+1069428304+1068294968+1067621221+1067726077+1067799591+1066511266
3751+1063533193+1061102997+1061066132+1062220697+1062636679+1061840217
3742+1061461315+1062383074+1063569197+1063788520+1062610716+1060783551
3734+1059791219+1060504700+1062562807+1064980738+1066883211+1067818023
3725+1067766743+1067039204+1066099300+1065456034+1065463206+1065999823
3717+1066621071+1067051684+1067290300+1067336990+1067110782+1066829564
3708+1066997176+1067670780+1068305870+1068200296+1067137032+1065827764
3700+1065196619+1065238432+1065488595+1065918348+1066857463+1068431740
3691+1070154695+1070877141+1069712678+1067482297+1065589865+1064407902
3683+1063691409+1063216974+1063108891+1063603121+1064257145+1064100219
3674+1063430416+1063488869+1063821224+1063314013+1062639979+1063350806
3666+1065087029+1066432731+1066526255+1065519579+1064336970+1063779698
3657+1063924359+1064304768+1064319972+1063555641+1061942563+1059830880
3649+1057869238+1056589735+1056476487+1057778009+1059982929+1062108741
3640+1063505078+1064201776+1064337329+1063679575+1062109817+1060126443
3632+1058246132+1056359510+1054685756+1054679158+1056507542+1058552811
3623+1060035859+1061154707+1062021456+1062309273+1061942348+1061236254
3615+1060209496+1059029828+1058547361+1059305093+1060773223+1062064561
3606+1062553340+1061935319+1060390950+1058596705+1057281986+1056707285
3598+1056638290+1056655503+1056425135+1056051898+1055932555+1056006427
3589+1055722986+1054881770+1054263749+1054671699+1055616265+1056039491
3581+1055519083+1054633184+1054174026+1054101158+1053933474+1053777050
3572+1054036035+1054519220+1054649895+1054207018+1053431068+1052582823
3564+1051817560+1051387735+1051473155+1051933102+1052430344+1052701808
3555+1052533694+1051772806+1050697851+1050019154+1050044328+1050273477
3547+1049991183+1048996054+1047947348+1047938312+1049454351+1051717365
3538+1053182052+1052970691+1051767068+1050868403+1050662994+1050622400
3530+1050286028+1049699278+1049078676+1048523842+1048237388+1048629559
3521+1049686799+1050514029+1050163744+1048861935+1047828578+1047743517
3513+1047988731+1047657380+1046785037+1046222314+1046474987+1047127003
3504+1047448744+1047188253+1046671574+1046233072+1045863135+1045489755
3496+1045262471+1045402470+1045850727+1046218226+1046208830+1046013390
3488+1046079804+1046516729+1046970364+1047055139+1046644822+1045810994
3479+1044694584+1043544250+1042833781+1043043852+1044072188+1045153455
3471+1045612183+1045338280+1044503304+1043396791+1042542522+1042319326
3462+1042452440+1042405606+1042164839+1042181335+1042702316+1043465428
3454+1043949330+1043889013+1043573799+1043464639+1043545182+1043399158
3445+1042921855+1042495114+1042470801+1042834857+1043237786+1043243380
3437+1042739253+1042095054+1041756029+1041831479+1042186929+1042684530
3428+1043217489+1043666821+1043853798+1043555725+1042752952+1041807525
3420+1041153572+1040931452+1041071595+1041423243+1041681654+1041555353
3411+1041112619+1040737375+1040768143+1041281953+1042081356+1042787162
3403+1043034385+1042682163+1041883047+1040962507+1040192223+1039664643
3394+1039357677+1039158364+1038830743+1038221185+1037523770+1037083833
3386+1036976610+1037034848+1037281281+1037991750+1039140075+1040092961
3377+1040237981+1039763116+1039360259+1039316222+1039317370+1039012269
3369+1038429965+1037911350+1037687007+1037502182+1036986006+1036457565
3360+1036676099+1037594487+1038168399+1037731976+1036810863+1036197720
3352+1035953796+1035700621+1035261186+1034660164+1033935853+1033219718
3343+1032749874+1032702825+1033061430+1033503160+1033445496+1032583911
3335+1031418085+1030862104+1031320760+1032372980+1033252782+1033500721
3326+1033277023+1033133223+1033388908+1033719972+1033498354+1032606001
3318+1031676425+1031329653+1031489018+1031760410+1032035819+1032276945
3309+1032217775+1031789098+1031423178+1031526815+1031959795+1032199271
3301+1031836793+1030863825+1029601248+1028444674+1027716491+1027598007
3292+1027964645+1028364347+1028409029+1028141007+1027857566+1027670589
3284+1027465467+1027277271+1027401707+1027905547+1028274337+1027931725
3275+1026980991+1026062603+1025603660+1025552164+1025683557+1025767471
3267+1025538609+1024910835+1024232139+1023966484+1024043225+1023870736
3258+1023142983+1022266480+1021717312+1021303051+1020485144+1019252761
3250+1018222560+1017915164+1018244005+1018684587+1018782917+1018605909
3241+1018632805+1018985959+1019067004+1018385295+1017368004+1016762894
3233+1016642546+1016542567+1016175211+1015559773+1014841056+1014337288
3224+1014407431+1014982634+1015555757+1015841852+1016078890+1016430180
3216+1016591552+1016366204+1016154986+1016421645+1017015997+1017405944
3207+1017341396+1017011479+1016687658+1016478878+1016441440+1016697556
3199+1017290760+1018101423+1018993633+1019805874+1020237133+1020154152
3190+1019890505+1019794399+1019766643+1019700588+1019901693+1020554212
3182+1021277088+1021652763+1021739043+1021745426+1021658572+1021509249
3173+1021590652+1022037690+1022530700+1022773332+1022943885+1023343228
3165+1023944824+1024568439+1025123846+1025497441+1025497585+1024970220
3156+1023899927+1022636130+1021914186+1022161839+1022954715+1023596475
3148+1023866361+1023835449+1023521957+1023013957+1022425629+1021739617
3139+1021154230+1021243881+1022249123+1023558463+1024316052+1024306442
3131+1024002560+1023921515+1024142989+1024390857+1024420622+1024180356
3122+1023686126+1023021631+1022467012+1022372412+1022837881+1023585430
3114+1024147293+1024183512+1023696813+1023015104+1022619921+1022886939
3105+1023738411+1024583357+1024889964+1024729667+1024453255+1024124772
3097+1023721772+1023514067+1023693585+1023953072+1023930552+1023792202
3088+1023985562+1024624883+1025401120+1025961118+1026178289+1026142716
3080+1026043956+1026044314+1026173699+1026388360+1026741228+1027318941
3071+1027939686+1028194870+1027926418+1027415549+1027084628+1027219392
3063+1027805209+1028391457+1028435207+1027924338+1027211287+1026278914
3054+1024906890+1023455256+1022610741+1022365096+1021991358+1021049947
3046+1019802001+1018556494+1017194009+1015570459+1013960609+1012738984
3037+1011906375+1011295885+1010995159+1011194615+1011840965+1012729158
3029+1013759718+1014948566+1016328264+1017846168+1019316235+1020621558
3020+1021863694+1022999612+1023576680+1023324078+1022750740+1022641940
3012+1023180565+1023943246+1024479433+1024610395+1024380458+1023876330
3003+1022991078+1021440540+1019074965+1016011329+1012439836+1008445762
2995+1003922459+998572715+992150167+984723596+976612089+968219292+959977683
2985+952177947+944858671+938104843+932281596+927746674+924617126+922939499
2975+922613958+922951262+922748219+921051084+917637162+912718533+906504406
2965+899213388+891269135+883186961+875374173+868265613+862395747+858000036
2955+854780335+852339309+850586088+849559544+849235078+849675446+851036783
2945+853223486+855723036+857942372+859630542+860857761+861672153+861948853
2935+861478363+859985418+857214403+853302809+848997108+845285902+842844231
2925+841825075+842084562+843603470+846619914+851196362+856769805+862434333
2915+867675062+872603804+877451071+882034404+885872054+888747279+890939648
2905+892844918+894570813+896015705+897158150+898139652+899165263+900419593
2895+902042855+904094005+906495011+909045842+911530546+913787105+915711381
2885+917251518+918364916+918958121+918916881+918163954+916621808+914204163
2876+910908652+906845512+902238940+897529521+893316914+890003904+887647437
2866+886336806+886547308+888902125+893610755+900220638+907889627+915874187
2856+923802447+931548535+938904533+945450011+950830595+955127260+958780874
2846+962139785+965210594+967777562+969600782+970614416+971056361+971244916
2836+971168103+970520748+969172751+967387614+965630736+964437728+964399214
2826+965915755+968821892+972408661+975920267+978944672+981362819+983231368
2816+984852909+986665658+988832136+991104259+993180224+994982646+996543941
2806+997878025+999021975+999975865+1000566990+1000624510+1000342647+1000223159
2796+1000559890+1001197275+1001860551+1002449883+1002964123+1003453045
2788+1004094088+1005027537+1006083414+1006877223+1007162745+1006970891
2779+1006496671+1005986304+1005671018+1005656029+1005811592+1005877288
2771+1005788211+1005777166+1006057595+1006596148+1007280439+1008052014
2762+1008811253+1009422675+1009830337+1010011863+1009935265+1009657274
2754+1009322982+1009047000+1008921990+1009035238+1009337183+1009627223
2745+1009781280+1009833708+1009786946+1009556291+1009196610+1008987185
2737+1009144756+1009591721+1010120234+1010629740+1011042136+1011186654
2728+1011005845+1010725631+1010594238+1010574945+1010509751+1010453880
2720+1010592015+1010877895+1011024134+1010879544+1010602056+1010410130
2711+1010345438+1010353829+1010448931+1010682957+1011002546+1011219574
2703+1011181920+1010938356+1010643510+1010318327+1009896321+1009497767
2694+1009370964+1009500062+1009596957+1009546896+1009490236+1009405175
2686+1009070094+1008536203+1008166624+1008054381+1007847896+1007301812
2677+1006610564+1006063333+1005703508+1005446818+1005273612+1005216092
2669+1005315712+1005588970+1005968230+1006352368+1006716855+1007029415
2660+1007135993+1006948155+1006651804+1006537265+1006740953+1007256125
2652+1007976348+1008663723+1009122379+1009425544+1009767796+1010158031
2643+1010448214+1010559884+1010535570+1010449935+1010348522+1010222006
2635+1010075193+1010054250+1010362220+1010967618+1011563333+1011915411
2626+1012085247+1012172962+1012035186+1011517216+1010862690+1010523449
2618+1010527968+1010470161+1010239147+1010244957+1010708490+1011287924
2609+1011665966+1011961385+1012319344+1012610101+1012712232+1012649261
2601+1012341434+1011621212+1010642219+1009986044+1010109260+1010787598
2592+1011375711+1011583271+1011645238+1011713373+1011546694+1010983827
2584+1010365233+1010226309+1010678725+1011273149+1011546765+1011579972
2575+1011781006+1012259386+1012801525+1013300273+1013720200+1013876982
2567+1013839400+1014194133+1015189979+1015993040+1015581218+1014081315
2558+1012474190+1011384317+1010877178+1010964103+1011541673+1012142982
2550+1012311814+1012009007+1011421325+1010762782+1010427917+1010833069
2541+1011871948+1012885654+1013334986+1013245909+1012955725+1012688779
2533+1012495778+1012468524+1012761863+1013274454+1013575682+1013464156
2524+1013267927+1013192118+1012879844+1012155533+1011609665+1011826477
2516+1012520307+1012946688+1012842478+1012668698+1013079587+1014206038
2507+1015459220+1016145232+1016109587+1015563502+1014606744+1013301923
2499+1011968844+1011064441+1010863551+1011315035+1011991507+1012201005
2490+1011526755+1010367528+1009654047+1009959363+1011101736+1012505532
2482+1013555098+1013718694+1012906309+1011779787+1011222299+1011372985
2473+1011514276+1011029370+1010202641+1009864189+1010322917+1010954851
2465+1011072617+1010924155+1011248334+1011950268+1012058136+1011169010
2456+1010063502+1009568842+1009694641+1010202354+1011116511+1012262541
2448+1013052979+1013123194+1012689066+1012130216+1011618917+1011185793
2439+1010829053+1010527896+1010312733+1010289782+1010464566+1010627158
2431+1010605140+1010549986+1010706553+1010986696+1011056552+1010746287
2422+1010131279+1009425400+1008974203+1009025914+1009377204+1009546465
2414+1009320903+1008877882+1008499625+1008366224+1008474522+1008655618
2405+1008795187+1008914603+1008931170+1008599317+1007859443+1006997858
2397+1006365637+1006095822+1006108015+1006272041+1006579868+1007110603
2388+1007683798+1007712128+1006804211+1005469052+1004736350+1004989095
2380+1005576132+1005698344+1005290610+1004834177+1004610192+1004398113
2371+1003856333+1003082247+1002475846+1001926749+1000864704+999564617+999257651
2361+1000313958+1001627673+1002339648+1002802822+1003432605+1003852460
2353+1003553311+1002668489+1001775490+1001288217+1001245758+1001460634
2344+1001789188+1002277896+1002879348+1003170608+1002757423+1001942241
2336+1001561044+1002035909+1002989655+1003876773+1004424578+1004364978
2327+1003525770+1002370774+1001726791+1001801453+1001976380+1001729373
2319+1001217357+1000786385+1000526898+1000404542+1000378938+1000351540
2310+1000260741+1000214768+1000373487+1000726426+1001077070+1001225891
2302+1001136814+1000954140+1000858321+1000896620+1000925882+1000701324
2293+1000120455+999508316+999460693+1000146848+1001046732+1001670920+1002085970
2283+1002378592+1002306441+1001904157+1001647396+1001656505+1001548564
2275+1001202295+1000878546+1000673352+1000502226+1000361438+1000234635
2266+1000167360+1000535074+1001581413+1002638796+1002599134+1001368186
2258+1000045865+999376134+998943512+998359416+998044919+998146763+998048362
2248+997749716+998330298+1000188590+1002061800+1002716542+1002650630+1003056643
2238+1003744017+1003402697+1001785459+1000196623+999582117+999462127+999028861
2228+998256497+997831693+998531260+1000352186+1002136031+1002651419+1001881996
2218+1000708065+999824534+999442834+999561461+1000239010+1001634845+1003599356
2208+1005345835+1005961847+1005223694+1003712101+1002269576+1001355133
2200+1000902071+1000757481+1000764725+1000354409+998965889+997052013+995723955
2190+995414550+995609201+995704303+995819200+996932024+999788745+1003322513
2180+1005257977+1004789710+1003232431+1001747160+1000110988+998228310+997227228
2170+998062061+1000048160+1001710726+1002545200+1003185526+1004494076
2162+1006959415+1009719170+1010069670+1006582593+1002145786+1000640576
2153+1002574964+1005534246+1007304896+1007639689+1007430049+1007075101
2145+1006119992+1004240901+1001685408+998623924+995242420+992802039+993089497
2135+996121935+999797352+1002364104+1003696753+1003995902+1003036561+1000964827
2125+998611229+996840006+996107089+996296360+996700293+996741892+996764484
2115+997392545+998313873+998581393+997991200+997333447+997249390+997445547
2105+997202986+996370950+995531957+995189489+995208209+995241200+995284161
2095+995454570+995576568+995448976+995302163+995553259+996242211+997070589
2085+997799634+998227234+998094407+997519132+997147617+997332514+997632452
2075+997646939+997673404+997919479+997954623+997670320+997851344+999037037
2065+1000568855+1001269283+1000507390+998375195+995506783+993009313+992087769
2055+993172192+995064193+995385933+992879498+989296673+988140458+991174115
2045+996857004+1002398172+1006302594+1008439738+1008460609+1005646777
2037+1000788250+996537558+994544717+993798316+993218452+993715837+995912222
2027+998248177+999269772+999846552+1001235717+1002353490+1000866139+996426247
2017+991402546+988733806+989695299+992897500+995060033+994237106+992271734
2007+992119255+993550520+993998275+992614560+991030458+990928757+992314695
1997+993701565+993629055+992146007+990716893+990764588+992392225+994392095
1987+995203690+993907978+990851155+987503360+985672895+986700228+990687272
1977+995683289+998414785+997480475+994879009+993014549+991755629+989773618
1968+987422315+986495034+987568626+989335044+990521812+991285211+992453331
1958+993766616+993663839+991228981+987812765+986019021+987146906+990057131
1948+992499807+993256033+992808351+992205033+991918364+991913272+992216078
1938+992878207+993655950+994115610+993960191+993172335+992183230+991831295
1928+992486251+993307457+993194569+992258465+991468817+991075427+990654998
1918+990392427+990856462+991644748+991745014+991024720+990292663+990011373
1908+989798720+989480422+989553650+990228401+990967845+991237731+991026441
1898+990511699+989826835+989222442+988958365+988936203+988706767+987957856
1888+987069232+986892870+987688615+988659934+988765937+987970192+987240646
1878+987256066+987688615+987884199+987726054+987559661+987592294+987605060
1868+987235482+986601253+986255342+986449347+986906282+987108249+986712922
1858+985879667+985181032+985084855+985561728+986193232+986509808+986288047
1849+985724606+985249383+985053871+984980429+984919753+984980787+985221698
1839+985606697+986044410+986316305+986206715+985701727+984983082+984457654
1829+984629139+985479177+986406028+986902266+986949602+986730566+986294430
1819+985737803+985290479+985029486+984835122+984623760+984324038+983872625
1809+983499676+983588753+984067850+984398914+984234315+983806570+983602524
1799+983777810+984081764+984215524+983984654+983328980+982572897+982347979
1789+982766543+983318795+983520332+983303304+982986584+982803767+982628552
1779+982309393+982017417+981987796+982111372+982012397+981586374+981301282
1769+981507911+981976034+982267150+982139056+981657377+981048394+980461644
1759+979837599+979123258+978492112+978129347+977845834+977097066+975490730
1749+973553258+972329840+971918448+971673377+971233225+970612121+969744440
1740+968542682+967235207+965911308+964007760+961028683+957964186+955875024
1730+954346648+952704882+950499890+947290588+942906424+937794793+932323481
1720+925891968+917509714+908031204+900499346+896095818+894132024+894214575
1710+896044681+899264095+904026588+910295868+916600291+921736953+926374149
1700+931212666+935047375+937043085+937652929+936861415+934193177+929165030
1690+921829329+913744789+906907263+902275303+900935195+903273158+906896362
1680+909981586+912164703+913447721+914138753+914767675+915565070+916610978
1670+918386074+921159813+924111637+926566146+928868392+931686311+935046443
1660+938226267+940756227+942676414+944238929+945958656+948256455+950058734
1650+950563721+950381407+950231223+950554541+950907122+950560207+949417117
1640+947816232+945921075+943005901+937655296+930135559+922355905+913760783
1630+901557877+882694668+856149705+823049007+783151521+738106041+698775510
1621+675546425+668383644+674995464+693207446+714855799+733902184+752615281
1611+774496583+799581593+824623356+845961515+861950216+872989376+880058418
1601+883780883+884713185+883551161+880714809+876181608+869646028+860608100
1591+848642304+833709982+815945683+795433391+772456693+747647092+722258989
1581+698348985+677192208+657589842+637770304+619872962+606967836+597255802
1571+587791636+578462126+572223794+571335421+575777894+584163053+594782717
1561+610174555+641910258+691895525+731681054+756396629+776941410+795922242
1551+812509169+826712590+838293961+846960732+853549530+859082808+863914440
1541+869038335+875848536+882297692+886218252+888474739+890701247+893863572
1531+897388876+900423752+903061653+905560557+907580222+908696990+909290626
1521+910308132+911952983+913454821+914515647+915439414+916302290+916901376
1511+917126150+916911274+916427730+917028681+919840720+922696365+924195407
1502+924744718+924898847+925103395+925659592+926305010+926426003+925772409
1492+924368254+922404962+920296435+917915297+914173825+907675037+897059318
1482+881904446+864007893+846421820+831349284+820356312+815519516+818615068
1472+827579554+836564193+842331497+844774890+843619105+838104187+829152181
1462+818926266+808081972+795804619+782814575+774550231+773931565+777818630
1452+783928260+791569563+800457594+810241493+820117696+829363471+837860049
1442+845299171+850812941+853650728+853211580+848975233+841783262+833290127
1432+824358848+816059074+810097118+806973164+805482442+804557528+804205880
1422+805191542+808729541+816170169+826931626+837832364+847080291+854999729
1412+862118976+868632753+874388367+879072397+882637220+885178368+886475658
1402+886082770+883568159+878581036+871131729+861329255+849038204+835140386
1392+821789585+810343336+801544240+797670801+801860673+813916336+829875918
1383+845974926+860089772+871319782+879670909+885562793+889416939+891484154
1373+891575742+888757320+881240954+867089101+845767437+818247713+786398548
1363+755395332+734205348+728507613+737519650+757923284+784974813+812061988
1353+833264881+846349884+852364770+853419213+851416259+847978024+844675485
1343+843087365+844723538+850428588+859072409+867669396+873869035+877172793
1333+877962800+876656330+873732765+869963752+866241932+863236820+861380607
1323+860957238+861941107+863879440+866083500+867995296+869496131+870932990
1313+872831303+875516969+878909877+882599781+886108949+889130700+891512556
1303+893093933+893785396+893799381+893615345+893714966+894362176+895532521
1293+897048058+898794107+900690268+902483438+903812285+904517948+904692589
1283+904370275+903321498+901166280+897566171+892271938+885136770+876245942
1273+866101072+855631018+845851136+837342438+830194144+824703970+821996859
1264+823527099+829741943+839273527+849587157+858572226+865477744+870478637
1254+873857057+875726968+876177161+875427820+873837908+871796512+869700249
1244+868089896+867613812+868626657+870847068+873472202+875553045+876286034
1234+875153917+871991163+867003537+860606020+853026827+844070733+833470864
1224+821451420+808749408+796227989+784956166+776793952+774284145+779142314
1214+790585335+805427504+820060032+832351227+841852544+848839393+853605329
1204+856378495+857386247+856856587+855054668+852288745+848794568+844627647
1194+839718341+834062993+827894050+821637321+815634055+809945643+804520735
1184+799449627+794893332+790920631+787663133+785479371+784681044+785207906
1174+786808792+789399858+792982611+797320802+801986759+806734477+811603619
1164+816626244+821640836+826461566+831029623+835303480+839153825+842426815
1154+844935043+846316749+846110192+844213171+841338519+838928477+838406922
1145+840270378+843729843+847125906+848640439+846863622+841276911+832699719
1135+823298094+815856533+812655695+814581979+820867253+829546575+838424135
1125+846000459+851830448+856254489+859901433+863309473+866696141+869914121
1115+872673158+874797392+876202049+876790735+876589701+875838782+874690456
1105+872870821+869748159+864642050+857027929+846648172+833620761+818440930
1095+801841093+784643390+767606701+751144354+735054454+718535160+700467194
1085+679774883+655809438+628671270+599290456+569265444+540554074+515023174
1075+494006971+478208044+467964557+463446525+464475113+470282438+479634611
1065+491116218+503196696+514331748+523549480+531144918+538509415+546953349
1055+556621812+566426366+574830710+580932737+585330564+590029440+597113938
1045+607334187+619975093+633771425+647667091+661003835+673470531+685012241
1035+695718113+705729582+715152581+723992486+732199526+739743504+746543664
1026+752391152+757059834+760408777+762320501+762807128+762390286+762215286
1016+763575906+767272266+773284426+780921139+789322543+797859571+806059510
1006+813410272+819534317+824464637+828531435+832010982+834956565+837285133
996+838953795+840051700+840702641+840871544+840314343+838784891+836340566
986+833438016+830684788+828495360+826966912+825972787+825350822+825090260
976+825349316+826305860+828106847+830904183+834671044+838962329+843104937
966+846661082+849579626+851972312+853889344+855280732+856066293+856130985
956+855100569+852063900+845676782+834886350+819965576+803034029+787299149
946+775365053+768160244+765428174+766868835+772474050+781926597+794099810
936+807308030+819926201+830780607+839309387+845622920+850246058+853610708
926+855903271+857393204+858555085+859738554+860933355+861901230+862389077
916+862314631+861936732+861685709+861643393+861370997+860423633+858819736
907+856852571+854704167+852429677+850112872+847903721+845994506+844592790
897+843845959+843769719+844170066+844662001+845017379+845473740+846317323
887+847207022+847324501+846040838+842993626+837719762+829589608+817871536
877+801731432+780708558+755663712+729292313+705748373+689663494+684915274
867+693308645+713411982+740354998+767567685+789924713+805891683+816898568
857+824999102+831349857+836391704+840483533+843914811+846730364+848980110
847+850936660+852783047+854312283+855234831+855598887+855661428+855603620
837+855636684+856046211+856821300+857649750+858550782+859908461+861546929
827+862514661+862229713+861171756+860054198+858943454+857503583+855542012
817+853003589+849766316+845716802+840990242+836083518+831640973+827909829
807+824360928+820106507+814856670+809294416+804401821+800601036+797622533
798+795082962+793242959+793238082+796338941+802881694+811961148+822055168
788+831844733+840624608+848164283+854342406+859100452+862673092+865508010
778+867833278+869483006+870211333+870107481+869607800+868985836+867865983
768+865472723+861428445+856164120+850486180+844724040+838274094+830048838
758+819317648+805950494+790242222+773139334+756499047+742483607+732471994
748+726509895+723514609+721847023+719945770+716832503+712314148+706859046
738+701353451+696924605+694740053+695765449+700678915+709766043+722433916
728+736773966+749992801+759760849+765594137+769112341+772825698+778455585
718+786215659+795212060+803890809+810415201+813696367+814259306+813612956
708+812922282+812482919+811885052+810225499+806648770+801253339+795327961
698+790445551+787465685+786423076+786983289+788842657+791889152+795962477
688+800390750+804112284+806487111+807606103+807744955+807104701+806099745
679+805235865+804549638+803552644+801842958+799542720+797032125+794656222
669+793094640+793048451+793669125+793752967+793289936+792907519+792933554
659+793038554+792783514+792058486+790896390+789291775+787301731+785149597
649+783131367+781351251+779653040+778036447+776930796+776695622+777171850
639+778292061+780888076+786104563+793843909+802394421+809926135+815847138
629+820516895+824332455+827485743+830058807+831838923+832427753+832014496
619+831678483+832423306+834089386+835611235+836037186+834712786+830917379
609+824288705+815496422+805563846+794418108+780840382+764144367+745581884
599+727875607+713542084+703872868+698971308+697870534+698896288+700711835
589+702747206+704417661+704957577+704437313+704041341+705031019+708044236
579+713083428+719306879+725113702+729386626+732683571+736467287+741300640
569+746514904+751678819+757543879+764773002+772493486+779175091+784527847
560+789431272+794162136+797969017+800621548+803173814+806406927+809326834
550+810353377+809713482+809272685+810092098+811716149+813713867+816267136
540+819146521+821472004+822693988+823032941+823040687+823208873+823733512
530+824384453+824769810+824768662+824664739+824816644+825018825+824253920
520+821536984+817440206+814154736+812985396+812695572+811217975+807905179
510+803594171+799410323+796379535+795483955+796778304+798578933+798715705
500+797136694+796011606+797042238+799930444+803261815+806206036+809023597
490+812420091+816932923+822474808+827984849+832075818+834602407+836822890
480+839498516+841667504+841784337+839759437+837077500+834975356+833502995
470+832534115+832357108+832656256+832015429+828824918+822342698+813361860
460+804330889+798285020+796807495+798347704+800013354+800678710+800770154
450+800632665+800184193+800045557+802019392+807407866+815085819+822295075
441+827495712+831212010+834303617+837165072+839913135+841907482+842039091
431+840630059+839594550+839464161+838283776+834829189+831031775+829304660
421+829876492+832652670+838030601+843818131+846434945+844457955+839489192
411+834653114+831126303+827568652+823411700+820181743+819355301+820931586
401+823588923+824408766+821158440+818472774+822899755+832440734+840789782
391+844211593+841504338+832791594+821865753+816968210+822892225+833376049
381+840015840+841385281+839683341+836729725+834178822+833158088
##END=
