##TITLE=X8202
##JCAMP-DX=4.24
##DATA TYPE=INFRARED SPECTRUM
##DATE=31/10/2018
##SAMPLING PROCEDURE=Diamant-ATR
##ORIGIN=ComPlat
##XUNITS=1/CM
##YUNITS=TRANSMITTANCE
##RESOLUTION=4
##FIRSTX=3997.453
##LASTX=373.96442
##DELTAX=-1.4165319
##MAXY=0.95061773
##MINY=0.27097866
##XFACTOR=1
##YFACTOR=8.8533175e-010
##NPOINTS=2559
##FIRSTY=0.94399905
##XYDATA=(X++(Y..Y))
3997+1066265893+1066512435+1066664253+1066553100+1066440937+1066328841
3989+1065940917+1065407840+1065304833+1065826667+1066483553+1066830544
3980+1066961962+1067047330+1066963847+1066637861+1066255121+1065949534
3972+1065642870+1065282280+1064975683+1064891191+1065140696+1065677543
3963+1066248052+1066550810+1066542597+1066454806+1066387144+1066078191
3955+1065298034+1064361548+1063995436+1064642291+1065897559+1066725114
3946+1066558687+1065969731+1065877631+1066366947+1066674217+1066402225
3938+1065963740+1065813404+1066048905+1066735078+1067847348+1068728561
3929+1068573781+1067591515+1066695962+1066320224+1066130099+1065830100
3921+1065610218+1065588472+1065384613+1064518078+1063161621+1062168447
3912+1062308887+1063610272+1065293523+1066544617+1067411960+1068642856
3904+1070513472+1072076952+1072292391+1071246166+1069582978+1067867007
3895+1066635168+1066284878+1066687076+1067067527+1066902110+1066693404
3887+1067041001+1067649751+1067661802+1066980880+1066088425+1065044220
3878+1063943058+1063475555+1064026877+1064895298+1065062397+1064738498
3870+1064978578+1065898569+1066776483+1067306866+1067222845+1065940715
3861+1063719069+1061930791+1061679401+1063137653+1065969799+1069397700
3853+1071290600+1070135175+1067642547+1065520541+1064360471+1064323509
3844+1065153286+1066247244+1067310098+1068543889+1069792761+1070279990
3836+1069778825+1068799117+1067509715+1065897829+1064495995+1064064040
3827+1064776133+1066140534+1067755720+1069877860+1072450738+1073741823
3819+1072460904+1070073101+1068232849+1067024507+1065784387+1064389285
3810+1063174008+1062563374+1063010342+1064512220+1066219102+1067301346
3802+1067419770+1066794256+1066442081+1066959808+1067629755+1067333863
3793+1066031468+1064614958+1063643328+1063164314+1063253855+1063916330
3785+1064649024+1064935760+1064961074+1064977164+1064515115+1063095844
3776+1061276463+1060100032+1060221823+1061720941+1063907174+1065414505
3768+1065475569+1064711030+1064048959+1063994898+1064806900+1066358464
3759+1067656483+1067441448+1066018003+1064983493+1065427633+1067435254
3751+1069895364+1070793408+1069787510+1068450443+1067970149+1067945037
3742+1066968829+1065040651+1063309264+1062960993+1064797475+1067709535
3734+1068286642+1065363136+1061800720+1060126087+1060571440+1062127110
3725+1063532041+1064073398+1064062088+1064009642+1063779055+1063153744
3717+1062552400+1062614406+1063570820+1065093771+1066163357+1065709050
3708+1064047276+1062255296+1060997605+1060544038+1060773346+1060896752
3700+1060170454+1059057174+1058550421+1059093596+1060729720+1063533051
3691+1067227356+1070263630+1070249020+1067077828+1063206661+1060405821
3683+1059159911+1059378447+1060693028+1062784939+1065690536+1069151763
3674+1071516003+1071685392+1070540604+1068866509+1066992326+1065290022
3666+1063796492+1062258932+1060628935+1059149476+1058093017+1057761780
3657+1058626161+1060700434+1062962946+1064780374+1066971186+1070366771
3649+1073051409+1071465644+1066936109+1063218577+1061552898+1061198165
3640+1061120472+1060900320+1060549559+1060057618+1059499295+1059158699
3632+1059320750+1060179543+1061563334+1062299596+1061487324+1059955015
3623+1059059665+1059830263+1062468379+1065647920+1067266269+1066878883
3615+1065507211+1063912492+1062695195+1062551323+1063553248+1064613275
3606+1064225417+1062164475+1059721399+1058285431+1058150917+1058537629
3598+1058790905+1058844832+1058590210+1058003812+1057677288+1058260656
3589+1059730151+1061273905+1061756825+1061031604+1059949158+1059035630
3581+1058431526+1058337541+1058671067+1058709038+1057920464+1056837009
3572+1056452249+1057284650+1059514645+1062996204+1066079875+1066239097
3564+1063626430+1060617355+1058715770+1057894006+1057608617+1057653993
3555+1057901277+1057896362+1057377424+1056885213+1057194772+1058345283
3547+1059520637+1059645524+1058473402+1057056622+1056636920+1057411557
3538+1058469834+1058682647+1057686915+1056072605+1054710021+1054118036
3530+1054299678+1054831139+1055201222+1055273865+1055335669+1055646238
3521+1055998144+1055848616+1054996622+1053979684+1053527464+1053718868
3513+1054068552+1054271873+1054385988+1054485494+1054633608+1054980801
3504+1055521687+1055920653+1055822090+1055225055+1054430355+1053776902
3496+1053453003+1053449973+1053692409+1054113256+1054560763+1054847094
3488+1054993997+1055254072+1055731134+1056094822+1055843095+1054885873
3479+1053705672+1052878522+1052683752+1053052623+1053555942+1053672145
3471+1053351074+1052976075+1052674999+1052235572+1051762347+1051677248
3462+1051950250+1052053189+1051798837+1051593496+1051754604+1052042686
3454+1052073858+1052022893+1052580408+1053996178+1055393299+1055536701
3445+1054295975+1052704353+1051686337+1051350724+1051252834+1050984343
3437+1050611903+1050558043+1050962193+1051407209+1051482343+1051305886
3428+1051260643+1051460665+1051640826+1051468609+1050933446+1050390203
3420+1050129387+1050094850+1050161030+1050340921+1050569085+1050616885
3411+1050349876+1049881498+1049509327+1049572949+1050175370+1050950411
3403+1051305078+1051005416+1050399628+1049959999+1049739174+1049452640
3394+1049007961+1048610139+1048383525+1048281595+1048334243+1048538237
3386+1048584354+1048167143+1047578255+1047543448+1048324212+1049320684
3377+1049772163+1049580422+1049165298+1048844497+1048680224+1048630270
3369+1048589942+1048501545+1048388641+1048142704+1047693582+1047540889
3360+1048352690+1049778963+1050537307+1050027121+1049053876+1048584556
3352+1048583412+1048501814+1048211712+1047944097+1047784874+1047692101
3343+1047704421+1047830318+1047948406+1047883235+1047436536+1046578484
3335+1045757258+1045630822+1046349849+1047399777+1048150245+1048352690
3326+1048240056+1048273382+1048626634+1048899299+1048526253+1047494637
3318+1046469350+1046099738+1046339077+1046658802+1046754403+1046650656
3309+1046292893+1045610153+1044954815+1044931521+1045686163+1046612483
3301+1046898612+1046282727+1045156183+1044036036+1043240326+1042980318
3292+1043277422+1043762698+1043999950+1044023177+1044203944+1044642362
3284+1045032104+1045168369+1045308539+1045820610+1046574781+1047003302
3275+1046808465+1046263876+1045751535+1045409324+1045291910+1045376133
3267+1045337354+1044876247+1044361147+1044528246+1045391281+1046046619
3258+1045771867+1044825350+1043930538+1043360029+1042828905+1042166565
3250+1041774466+1042170335+1043173136+1043924748+1043877756+1043489629
3241+1043583951+1044186978+1044506231+1044152440+1043756167+1043946763
3233+1044373130+1044320886+1043704058+1042914071+1042267215+1042065713
3224+1042580679+1043524840+1044114334+1044019003+1043715638+1043592501
3216+1043387767+1042923025+1042710279+1043263082+1044260362+1044889241
3207+1044779367+1044277664+1043905426+1043770575+1043592164+1043212790
3199+1042876302+1042969075+1043604418+1044380334+1044564332+1043836553
3190+1042787972+1042224666+1042193360+1042250990+1042319190+1042604175
3182+1043020578+1043277758+1043269612+1043037611+1042600540+1042036359
3173+1041522874+1041192714+1041094151+1041277274+1041684790+1042019595
3165+1042014546+1041771841+1041524221+1041224087+1040711006+1040040924
3156+1039355559+1038768758+1038522484+1038777443+1039220102+1039392386
3148+1039293957+1039151566+1038859242+1038126211+1036929785+1035579724
3139+1034611259+1034569652+1035445681+1036381022+1036380483+1035355735
3131+1034184084+1033729643+1034033142+1034400869+1034093869+1032884786
3122+1031143434+1029553966+1028599640+1028215485+1028154960+1028544097
3114+1029528854+1030583293+1030993973+1030949674+1031399335+1032816519
3105+1034602036+1035728040+1035788902+1035348531+1035133631+1035130063
3097+1034912604+1034488661+1034105920+1033555272+1032436000+1030893390
3088+1029488998+1028440417+1027344372+1025608944+1022985034+1019701005
3080+1016249203+1013094101+1010466891+1008378818+1006897945+1006269065
3071+1006567246+1007448391+1008517304+1009740997+1011344939+1013505993
3063+1016154141+1018923271+1021433874+1023605834+1025409596+1026559838
3054+1026988965+1027294147+1028130993+1029449748+1030741169+1031734948
3046+1032528504+1033192055+1033557763+1033510636+1033322867+1033369927
3037+1033587992+1033644140+1033561062+1033647237+1033892703+1033869813
3029+1033165866+1031685599+1029698580+1027678436+1025940989+1024486104
3020+1023140486+1021533986+1019069971+1015423601+1010958900+1006224227
3012+1001316126+996147074+990901205+985696270+980069613+973153554+964197222
3002+952811278+938921329+922596719+903901541+882975964+860193439+836069942
2992+811086440+785795063+761085639+738272145+718894901+704336014+695507195
2982+692789905+696062556+704707781+717801549+734255153+752448494+769936608
2972+784184792+793739707+798488114+799161361+797165858+794795896+795027964
2962+800485771+812128087+828792485+848048343+867484092+885457416+901265108
2952+914915583+926589609+936285300+944033626+950202920+955309898+959626215
2942+963161230+965924032+968025773+969648095+971089717+972622699+974067755
2932+974814184+974544279+973647246+972728601+972001293+971149097+969505097
2922+966401296+961411530+954071730+943532125+928966707+910432704+889373286
2912+868659985+852141008+843459428+844613776+855172569+872458104+892548249
2902+911815687+928196379+941278567+951469229+959314704+965308281+969759046
2893+972658112+973782366+972867290+969492440+962776201+951218445+932977236
2883+906943537+874527799+840855782+813697829+800092124+802809481+819317955
2873+843924035+870953668+896435305+918060317+934845159+947059330+955835097
2863+962422141+967726784+972244402+976083657+979161134+981587178+983793675
2853+986146672+988522222+990428048+991565969+992137420+992556651+993010352
2843+993356535+993362998+993053372+992812283+992979786+993392419+993637817
2833+993715443+994049979+994884333+996052416+997310377+998546121+999673068
2823+1000590635+1001278087+1001766864+1002037173+1002116952+1002261364
2815+1002778215+1003619773+1004416897+1005001679+1005632578+1006590540
2806+1007749130+1008669593+1008987230+1008615800+1007715333+1006683987
2798+1006111929+1006391731+1007263787+1007995269+1008094842+1007698771
2789+1007313203+1007344778+1007806087+1008368450+1008723048+1008827738
2781+1008739408+1008415981+1007861091+1007295631+1006985938+1006959681
2772+1007035960+1007119106+1007314011+1007740378+1008407700+1009270869
2764+1010186417+1010829838+1010921871+1010543709+1010053518+1009748605
2755+1009674211+1009641559+1009419993+1009033617+1008771724+1008799058
2747+1008941517+1009016651+1009119389+1009352332+1009503476+1009334625
2738+1009051660+1009087409+1009469409+1009795463+1009806841+1009578206
2730+1009181260+1008614050+1008045359+1007712573+1007599467+1007533691
2721+1007512215+1007632928+1007811136+1007835777+1007629898+1007267018
2713+1006807124+1006302256+1005912379+1005822164+1006000776+1006175417
2704+1006106745+1005787559+1005334801+1004817748+1004271610+1003796231
2696+1003541609+1003548476+1003659360+1003705679+1003755096+1003963600
2687+1004235928+1004329240+1004256732+1004269456+1004464697+1004712856
2679+1004911060+1005029282+1004967814+1004638058+1004173990+1003830163
2670+1003695446+1003701303+1003816024+1003998542+1004070310+1003887591
2662+1003534338+1003201283+1002994260+1002912999+1002900409+1002944642
2653+1003149443+1003520469+1003762434+1003625900+1003332297+1003271503
2645+1003438064+1003521681+1003357274+1002974466+1002387396+1001609257
2636+1000788099+1000178878+999991446+1000234017+1000659912+1000988659
2628+1001267248+1001822609+1002685172+1003323949+1003253864+1002738292
2619+1002487911+1002739840+1003074040+1003168967+1003233936+1003489163
2611+1003740150+1003792730+1003826056+1004015171+1004223069+1004347620
2602+1004529935+1004786913+1004850064+1004611936+1004394141+1004482673
2594+1004655697+1004541784+1004254106+1004188599+1004326009+1004258684
2585+1003868672+1003502292+1003447018+1003534271+1003369527+1002891792
2577+1002500703+1002482525+1002668139+1002952990+1003567664+1004390034
2568+1004785634+1004705046+1005062473+1006343526+1007629966+1007713919
2560+1006604275+1005250915+1004258415+1003584226+1003174151+1003147289
2551+1003398746+1003559854+1003384810+1002896504+1002272809+1001794535
2543+1001704387+1001946217+1002181449+1002118299+1001758449+1001421556
2534+1001527727+1002176400+1002995606+1003561268+1003785930+1003778121
2526+1003626640+1003401372+1003012505+1002190067+1001077325+1000565119
2517+1001355174+1002895225+1003902065+1003796904+1003095785+1002578059
2509+1002569980+1002906267+1003218788+1003272176+1003096930+1002720518
2500+1001969983+1000837986+999820778+999497620+999918332+1000651766+1001209214
2490+1001275462+1000854885+1000343958+1000239941+1000746425+1001701896
2482+1002626667+1002826016+1001971733+1000698557+1000068465+1000326386
2473+1000726362+1000696874+1000580604+1000928538+1001503558+1001456632
2465+1000452822+999247711+998877425+999438913+1000068937+1000094520+999679868
2455+999248855+998940374+998848947+999120063+999510479+999465843+998904692
2445+998385753+998309744+998454222+998425071+998137191+997710151+997267895
2435+997011792+997190876+997818274+998585304+999133394+999284403+999134134
2425+999097981+999584940+1000424276+1001023533+1001234528+1001486928+1001980687
2415+1002387597+1002424222+1002151019+1001736232+1001331610+1001059148
2407+1000897703+1000759351+1000635541+1000428720+999824010+998652157+997175593
2397+995820280+994846631+994356575+994280566+994266293+993855209+992748392
2387+990674389+987299135+982717356+977742267+973173078+968967173+964546031
2377+959674285+954569798+949314302+943622138+937242185+930348007+923344224
2367+916448632+909994219+905122136+903135251+903856972+905704697+907751298
2357+910642622+915224468+921448564+928590161+935363693+940058106+941301053
2347+938715652+933366171+927755874+924151784+922768733+922544408+922709218
2337+923102058+923673240+924164373+924492312+925196056+926854935+929119467
2327+931091944+932572144+934194197+936548607+939771168+943837038+948530172
2317+953069468+956512518+958695991+960310638+961980087+963682121+965245467
2308+966984866+969358801+972109887+974355703+975702667+976743708+978190582
2298+979996700+981562671+982409885+982549718+982539889+983130864+984570198
2288+986413951+988157524+989620085+990556840+990556571+989652535+988505862
2278+987712508+987332326+987115743+986769627+986069181+985090483+984237681
2268+983827540+983834945+984198027+984999527+986037673+986633967+986372546
2258+985609354+984704309+983446954+981990183+981345482+982023711+983325635
2248+984687612+986323062+987990896+988709856+988293857+987826758+988061721
2238+988318497+987543793+985924635+984678389+984378794+984391788+984101416
2228+983809564+984156690+985254216+986570211+987480508+987896170+988121371
2218+988143857+987720924+987167179+987264261+988324624+989829868+991044472
2208+991723711+992063835+992077704+991504030+990460094+989525696+989086268
2198+989142147+989379803+989071120+987676153+985615615+983602675+981746198
2189+980092638+979135955+979217215+980292390+982264935+984753388+987051717
2179+988804851+989995487+990263170+989076640+986600911+983865376+982043706
2169+981673690+982551064+984170963+986000847+987735399+989500382+990918642
2159+990333120+987219019+984282385+984363982+987285468+990764604+992890043
2149+993299780+992580888+991039086+988556894+985586463+983028733+980868689
2139+978437933+976348580+976484710+979483350+983577429+986485382+987368614
2129+986714622+985402263+984162614+983337888+982985712+983213741+984042979
2119+984985726+985394925+985261891+984990708+984432990+982932122+980503655
2109+978308939+977519423+977981000+978478327+978308535+977986252+978143657
2099+978409589+977964506+976830893+975957289+975985431+976555199+977013074
2089+977100057+976666487+975641469+974640419+974483822+974840373+974644660
2079+973939233+973770854+974359271+974963577+975423808+976248333+977334549
2070+978009883+978250770+978731199+979696702+980610499+980868150+980171879
2060+978376667+975803452+973664144+973307324+974570267+975350559+973684813
2050+970322014+968442243+970203523+974364994+978190851+980565391+981968370
2040+982248777+980391223+976956925+974623520+974698722+975230519+974808125
2030+975282023+977957841+980574817+980826005+979704377+979081826+978698816
2020+977309841+974897060+972547296+971331278+971894381+973967442+975909421
2010+975993442+974551146+973393970+972951446+971927774+969956845+968526803
2000+968959161+970676748+971781613+971108029+969392463+968218725+968259860
1990+969055436+970037837+970680451+970057294+967651178+964584339+963056541
1980+964461539+968419016+973184591+976634642+977777478+977598327+977455666
1970+976968909+974994614+972307351+971095305+971616936+971939691+971137989
1960+970539338+971473939+973154564+973543094+971620639+968357952+965930293
1951+966100086+968694778+971620841+973124537+973576555+974005345+974010597
1941+972863520+971352485+970677758+970907200+971344810+971373019+970631371
1931+969289524+968237980+968272450+969253909+970530451+971656793+972355016
1921+972459706+972264600+972406722+973039035+973453822+973023079+972125372
1911+971791038+972383562+973027792+972845207+972033339+971187876+970457606
1901+969813175+969445784+969511829+969852425+970130947+970181508+970205071
1891+970385569+970407315+970041203+970039251+971155157+972648485+972983829
1881+971946895+970915144+971003407+971956185+972877658+973396663+973959699
1871+975146431+976643731+977031656+975574077+973533669+972387669+972318998
1861+972615698+972641483+972320075+971958003+971848870+971958811+971985337
1851+971807263+971701025+972069695+973163182+974817550+976019362+975570845
1841+973883017+972392247+971829682+971873645+971699072+970962204+970211602
1832+970125090+970630361+971177374+971762964+972574562+973082796+972668682
1822+971638750+970777196+970531932+970810993+971227396+971661909+972350169
1812+973148370+973267669+972374002+971265098+970842366+971238707+972051719
1802+972776536+973023079+972781383+972421331+972310246+972596712+973042670
1792+972787510+971232041+969220381+967908156+967456004+967270929+967053268
1782+967033475+967065185+966635384+965928139+965776658+966653225+968087240
1772+968670608+967478154+965317773+963209974+961393555+959989903+959238224
1762+958918162+958346980+957360943+956278498+955128727+954001578+953493412
1752+954117511+955501638+956336599+955806013+954389368+952794582+951389113
1742+950336155+949493385+948409862+947105515+946394365+946919228+947907823
1732+947600351+946001862+944169554+942586954+941517839+941217907+941638956
1723+942433117+943600123+945844726+949671594+953394848+954230078+952679322
1713+951001727+950403009+950985434+952406927+954324602+956288327+957862108
1703+959372065+961654034+964379268+965701053+965037097+963110872+960813486
1693+959208264+958878171+959539232+960426638+961398806+963133156+965399371
1683+966137788+964980746+963458603+962582306+962852008+964255862+965929553
1673+967103021+968116392+969290870+969746725+968924355+967955014+968001805
1663+968917353+969414949+968970001+968502431+969007366+971102845+974988959
1653+978439952+978178733+976654705+976462628+977289509+977159774+975389877
1643+973551173+972724292+973128846+974816271+977596913+980006260+979757361
1633+977515854+975601949+974978187+975546339+976560114+977392516+978045834
1623+978204384+977227772+975662946+974677111+974452920+973852115+971923062
1613+969329447+967080333+965491067+964023390+961830357+958703531+955055074
1604+951296407+947566083+943839596+940371502+937838143+936726748+936929732
1594+938027931+939565761+941287386+943371555+945947329+948516707+950329153
1584+950799753+949491769+946445127+941852779+933960782+917851611+891598703
1574+860331657+822712396+766534896+684942881+597917094+531993376+492532854
1564+475027470+472925527+475055948+459609184+409482385+357864211+329177214
1554+321790993+337886767+378377625+434474639+490627499+537944167+579451291
1544+619876777+658589592+695391801+729461437+752588192+765311607+775537749
1534+787691867+800620892+810739180+818262709+825933207+834764652+843194977
1524+850165838+856735646+863229108+868337971+872071863+875311659+877857406
1514+879469158+880883110+882945129+885923235+889369112+891025299+888044231
1504+883189114+880314419+880605935+884059083+889623599+895180239+898627193
1494+899930666+900907681+903082536+906324083+908676339+908859058+907901163
1485+907160794+907180318+907849323+908851316+910105170+911680365+913511191
1475+915349558+916523228+916132409+914575055+913240748+912943510+913637290
1465+914459257+914643322+914735220+915747581+918026453+920390423+919916054
1455+915725162+909019021+900099449+889402034+879313302+874117186+876444127
1445+884314109+893675937+901545919+906867326+910386452+913312314+915536518
1435+915916364+914506788+911854399+907178972+898702260+885155263+865175328
1425+836812533+801820954+767903539+742947976+731498680+733834105+743577058
1415+753645256+760603528+761658505+753391644+733624389+702235889+660098472
1405+611935432+570348394+548068616+548866749+569411167+601055096+633617131
1395+662228220+685882195+703824347+716765288+726250320+731983620+731680187
1385+724310091+712007792+698454533+687539593+682313652+683720468+690900237
1375+702446413+716365110+729983741+741956958+753041152+764088453+774973502
1366+785773990+797257689+809306107+820311869+829329870+836958358+843887949
1356+850286214+856064890+861081788+865268708+868676816+871430326+873723875
1346+875813295+877999596+880590921+883623291+886472402+888142929+888378228
1336+887974617+887845084+888291043+888995797+889523555+889826247+890171487
1326+890712778+891396931+892188062+893122057+894129301+894991057+895569510
1316+895936968+896176374+896277092+896313111+896454021+896735640+897072533
1306+897489272+898085432+898785137+899341912+899596399+899603805+899487602
1296+899249004+898745819+897816335+896405211+894653895+892964585+891907588
1286+891873926+892742818+893997951+895244938+896538446+898120575+899969781
1276+901791115+903349075+904650527+905874893+907185233+908513481+909558696
1266+910125165+910383557+910660665+911025363+911258374+911263288+911336740
1256+911876347+912926207+914140070+915106583+915635283+915842913+916034855
1247+916410796+916882674+917228925+917306618+916996588+916076462+914317471
1237+911765328+908914803+906560191+905396821+905704427+907254779+909365205
1227+911157521+911949663+911326910+908740634+903092972+892484156+873845329
1217+842716231+794282075+726483735+644043901+559665016+489293124+444205440
1207+426710324+432022104+452916812+483113968+518033375+553941041+587279801
1197+615207746+636865747+653928976+669598181+686769803+706777475+729175172
1187+752156641+773398576+791176860+805021029+815443085+823306267+829476840
1177+834682449+839368042+843689342+847694552+851435782+854907041+858026192
1167+860755533+863145490+865229053+867012820+868601143+870150148+871637417
1157+872828457+873525537+873631910+872688691+869062317+859123920+837083313
1147+797246311+739674046+675186127+622279459+595415984+595456783+612003497
1137+633384188+652578175+665343668+666699721+651595437+619098841+575708512
1128+534382660+509171096+508600216+532096921+571604537+616613417+658790085
1118+693835591+720751311+740087285+752557694+758404503+757302196+748424163
1108+730205239+700499048+659180164+612452754+573255539+554431602+560328433
1098+585033851+617548153+647855822+670012093+682644957+688209540+691418233
1088+696888158+706807098+720245164+734620053+747634445+757940097+764799738
1078+767970392+767997524+766199485+764127367+763083431+764026918+767424120
1068+772807331+778767582+783855036+787470706+789752877+790997979+791617769
1058+792310809+793719106+796005855+799012169+802558226+806372840+810024596
1048+813122270+815466043+817075977+818251264+819470917+821083140+823126578
1038+825381415+827485444+829149979+830382491+831396804+832340965+833257388
1028+834192662+835164493+836135651+837146059+838309833+839579643+840719652
1018+841625033+842458243+843365173+844277220+845102082+845910449+846815225
1009+847801262+848734852+849476366+850003855+850472030+851032440+851418884
999+850734798+847913424+842738044+836618436+832201266+831710200+835265211
989+840876047+846190519+850076834+852581782+854054576+854782692+855108880
979+855443551+856127839+857271213+858681665+860084575+861403331+862657117
969+863730743+864513190+865110831+865698643+866296082+866821416+867254044
959+867670110+868159291+868711421+869183434+869397930+869280045+868938641
949+868671430+868811600+869423513+870124969+870299272+869536215+867824822
939+865351315+862316791+859035119+855933675+853247758+850871871+848568291
929+846087041+843143810+839819992+837215606+837180799+840805356+847192849
919+854082247+859698132+863728050+866678149+868850783+870062626+869945616
909+868272195+864937066+859528743+850916305+837234995+816087315+785225698
899+744542965+698558415+656436819+628062781+618798439+627081390+646450286
890+669847282+692574938+712491654+728976766+742149708+752342928+759806067
880+764800209+767654168+768666260+768410628+768028830+768439376+769122249
870+768120997+763215858+752848941+736299937+713597933+685574723+654228638
860+623014644+596165981+577005656+566529336+563327914+564612435+567495444
850+570005307+571568316+572755586+574465767+577186019+581023052+586543135
840+595432209+609874826+630866852+656916777+684329823+708953004+728066537
830+740952541+748041894+749999290+747710320+742625761+736532005+730837350
820+726190469+722711804+720318548+718686262+716975206+713675019+706740850
810+693897665+672760487+640905293+596924931+542663995+484196043+429092169
800+382185810+344844533+318286914+306075839+312351708+337967388+378838059
790+427858175+478191156+525224354+566471235+600477989+626082628+642717134
781+651395348+655327915+659187300+666889778+679329756+694285926+708666672
771+720611074+729723868+736425026+741692035+746800495+752560791+758747993
761+764500480+769291638+773358047+777166400+780785167+783968209+786563641
751+788646194+790414880+792022996+793484345+794885371+796480292+798202591
741+799471458+799968583+800166181+800716560+801773153+803071172+804261876
731+805098519+805521857+805671385+805842120+806255291+806713166+806810248
721+806566331+806399231+806556771+807033228+807712466+808336431+808844260
711+809637951+810953744+812408023+813637640+814768358+815882850+816584575
701+816398355+815420801+814348993+813755593+813590177+813591388+813752227
691+814159070+814802424+815615302+816524386+817541864+818493363+818408669
681+815320487+805641694+782776630+738576789+670371876+589165497+516969478
671+470157003+451629632+458688048+483796404+514842355+549204753+590566859
662+637535964+681990224+716451555+739234282+752872437+761021681+766392706
652+770361898+773522319+776148721+778681945+781657290+784975116+788022027
642+790510346+792473937+793875838+794836022+795781596+797064064+798589775
632+799817709+800259695+800074418+799884158+800071455+800513778+800717974
622+800153726+798982008+798377298+799510574+802214197+805068964+806717610
612+806698220+805278949+803165561+801453294+801185611+802513792+804547198
602+806191266+806918708+806881410+806624836+806587942+806741443+806732960
592+806285991+805560568+805168335+805448001+805874166+805810006+805577669
582+805908098+806694315+807100081+806420708+804461695+801868821+799987771
572+799413896+798907682+796443936+791455853+785732989+781890166+781275021
562+783383292+786793083+790218561+792733810+793841839+794023615+794733554
552+796907063+799401979+799785797+797171514+793379790+790710637+789770852
543+790039545+791143332+792707351+794098413+795079737+795912072+796594945
533+796845797+796838324+797293573+798822651+801365839+804134969+806258456
523+807415160+807485447+806370147+804744392+804082994+805101616+806976136
513+808517736+809394303+810066270+810812294+811307736+811395864+811332041
503+810771428+808976149+806565725+805134201+805131306+805797484+806472952
493+806771267+806375129+805888103+806579257+808277993+809023007+807788745
483+806374793+807030400+809283150+810541313+809308935+807046760+806314672
473+807588252+808899063+808875230+808331247+808417557+809337077+810538485
463+810970373+809796433+807586030+805953879+805607965+805697237+805525829
453+805130229+804156311+801924903+798649290+795815932+795074284+796469452
443+797970927+797447747+794819258+791086914+785962365+777905018+766251594
433+752125403+737368581+724649004+717862949+719511931+727969186+738726183
424+748278876+756391967+764377276+772863682+781334536+788421666+792242677
414+791274279+786338979+780815665+776817793+773147590+768591799+764576826
404+763280827+765041972+768690833+773498688+780035843+787484911+791319386
394+788230801+780069842+771254825+764383672+759481158+756816449+758642428
384+766747507+779227140+792501405+804255615+812434482+813491277+804844436
374+792581320
##END=
