##TITLE=X8863
##JCAMP-DX=4.24
##DATA TYPE=INFRARED SPECTRUM
##DATE=2/11/2018
##SAMPLING PROCEDURE=ATR platinum Diamond 1 Refl
##ORIGIN=ComPlat
##XUNITS=1/CM
##YUNITS=TRANSMITTANCE
##RESOLUTION=4
##FIRSTX=3997.453
##LASTX=373.96442
##DELTAX=-1.4165319
##MAXY=1.0067786
##MINY=0.45208102
##XFACTOR=1
##YFACTOR=9.3763564e-010
##NPOINTS=2559
##FIRSTY=0.87317264
##XYDATA=(X++(Y..Y))
3997+931249418+931260097+931304087+931291246+931258699+931373441+931639287
3988+931763882+931484433+930981156+930760635+931036398+931445656+931605150
3978+931656260+931868263+931995846+931606549+930886883+930468090+930588808
3968+930984589+931401920+931743223+931924522+931940795+931851099+931606549
3958+931192269+930843783+930751926+930721222+930480868+930173765+930214132
3948+930656827+931034618+931038623+930988212+931325891+931876463+932097239
3938+931825036+931307393+930846453+930676851+930899152+931298366+931502741
3928+931421627+931256347+931193032+931237912+931293980+931333075+931468540
3918+931914859+932773677+933756837+934386997+934525832+934408992+934189933
3908+933723273+932860449+931717795+930645893+930033023+930021899+930405347
3898+930846263+931120500+931150695+931022349+931066339+931607121+932429578
3888+933100550+933486732+933433398+932765032+931856566+931399123+931656006
3878+932220372+932583225+932502174+931849828+930825031+930083243+930142680
3869+930738640+931193413+931264929+931154001+931236831+931770875+932585704
3859+933236588+933394239+932992037+932169835+931513230+931705590+932370586
3849+932841633+932922938+932786264+932554301+931954844+930734762+929400447
3839+928985595+929826487+931002388+931688426+932023308+932441148+933005005
3829+933439818+933510189+933109894+932232959+931102255+930256024+930150753
3819+930510173+931026608+931898013+932936859+933455265+933320181+932969979
3809+932824088+933031832+933346371+933378665+933176642+933186114+933636119
3799+934178809+934571729+934900445+935085876+934981432+934804774+934974058
3789+935557622+936173543+936496665+936533408+936339967+935898289+935392533
3779+935228398+935606952+936309772+937001658+937397312+937308887+936790036
3769+936103172+935479877+935116135+935186442+935532067+935780559+935922572
3759+936272139+936770012+936868226+936311297+935357252+934516361+934281727
3750+934394499+934057265+933321707+932952116+933449099+934204999+934408293
3740+933963119+933093621+932270020+932122031+932787917+933838142+934859125
3730+935455149+935332778+934669753+934149567+934356357+935208819+936243406
3720+937062811+937413967+937178126+936432778+935492591+934821619+934832553
3710+935625450+936919081+938228478+939014382+938907268+937988822+936939741
3700+936579114+937044758+937909869+938750126+939229309+938976050+937772179
3690+936058610+935005843+935208946+936083974+937031281+937842740+938387527
3680+938339151+937270428+935313581+933899995+934521700+936027525+936687817
3670+936590747+937000958+938516891+940339480+941489508+941563630+940855725
3660+939956476+939278258+939136562+939598900+939904350+939103506+937128605
3650+934916973+934169845+935464875+937228727+938362100+938934095+939346785
3640+939836712+940197022+939956985+938980627+937737025+936871786+936645798
3631+937022890+937990602+939224415+940098998+940486388+940542011+940294409
3621+939790752+939367636+939392237+939664249+939708430+939398657+938984886
3611+938703148+938625022+938879616+939523761+940217618+940530950+940437376
3601+940284238+940317485+940479523+940798258+941450858+942217247+942463641
3591+941886942+940750772+939619179+939049027+939070387+939338966+939718664
3581+940188885+940558857+940645120+940658978+941013312+941683013+942078603
3571+941628598+940279916+938619872+937718209+938117041+939137643+939989278
3561+940500500+940849050+941204210+941544114+941713144+941653072+941488428
3551+941339676+941186030+941030540+940986423+941106123+941285134+941383094
3541+941324737+941197408+941321114+941920634+942649009+942833232+942279354
3531+941445964+940946946+941136128+941940658+942878175+943354625+943140461
3521+942617160+942394605+942648055+942976135+942942126+942572408+942193155
3512+941989352+941925910+941960873+942136515+942435607+942631527+942458238
3502+942028320+941795784+941928580+942124119+942138930+942142871+942374835
3492+942721732+942872962+942730822+942548252+942674500+943153048+943636745
3482+943783971+943654227+943526834+943516282+943656833+944018541+944406058
3472+944363848+943840802+943414063+943602799+944329839+945150325+945644003
3462+945607641+945230613+945015940+945259473+945723464+945958733+945821233
3452+945518835+945280260+945188467+945247586+945373771+945410196+945342685
3442+945307849+945253879+944914102+944246563+943533827+942925026+942158128
3432+940859793+939025062+937148057+935842857+935297625+935182056+935052057
3422+934718955+934327179+934229028+934682530+935591441+936604478+937442128
3412+938082777+938710013+939539972+940652367+941879123+942796870+942925026
3403+942197668+941244005+940915861+941490080+942528927+943450043+943983515
3393+944152100+944148858+944227811+944477510+944730133+944834260+944860450
3383+944908000+944922239+944884098+944946650+945200354+945508855+945676550
3373+945608976+945318910+944946141+944686843+944574516+944490097+944460855
3363+944656203+944999412+945215801+945405047+946058791+947216829+948099041
3353+947974954+947033432+946065529+945654492+945879081+946434739+946834270
3343+946717367+946081104+945207792+944473251+944218911+944517495+945015686
3333+945263351+945207156+945105000+945044546+944894015+944689576+944683664
3323+944951926+945281532+945517882+945746158+946057011+946327307+946330676
3313+946002977+945528498+945131572+944835912+944525314+944169963+943894136
3303+943867374+944132393+944471089+944551759+944303521+943985422+943849447
3293+943952747+944289218+944807942+945301365+945533774+945495887+945379110
3284+945319165+945282740+945175499+944974620+944785311+944816460+945195078
3274+945739484+946065402+945966870+945552018+945080908+944865345+945141680
3264+945817228+946506317+946931277+947079011+946992812+946695181+946295141
3254+945974753+945877365+946014102+946203601+946197626+945947927+945599504
3244+945228833+944826568+944496263+944372875+944362768+944267732+944159219
3234+944347066+944929232+945595944+945959878+945968142+945917350+946076972
3224+946342818+946319297+945757982+944840744+944037548+943758416+944087196
3214+944750603+945381272+945824666+946101319+946219112+946231763+946272383
3204+946322094+946184213+945841830+945550429+945479994+945551192+945627538
3194+945606370+945386739+944990830+944615391+944401990+944290490+944201747
3184+944170662+944199395+944167356+944007162+943862098+943967114+944371477
3174+944818749+944960381+944693708+944238872+943874049+943686075+943575337
3165+943362762+942895212+942219218+941645698+941470056+941646715+941931886
3155+942285012+942850713+943575846+944154134+944425765+944587294+944865663
3145+945124580+944978498+944300216+943461612+942981793+943036462+943354308
3135+943480047+943144021+942509856+942045674+942067924+942490340+942986370
3125+943225262+943030042+942571073+942287745+942357354+942438086+942249032
3115+942138167+942624407+943572795+944324181+944542923+944468483+944397413
3105+944378596+944422586+944591299+944824915+944983011+945070037+945176007
3095+945253561+945207792+945133606+945177914+945204995+944874880+944083827
3085+943108486+942286665+941749252+941498027+941535977+941814601+942172749
3075+942479406+942812318+943331232+943936791+944254891+944077660+943617166
3065+943127747+942397148+940819872+937932818+933761033+928764693+923663400
3055+919283045+916380989+915471760+916681544+919605595+923353120+926971154
3046+929871494+931816772+932774059+932938385+932545846+931456526+929311196
3036+926282638+923270607+921173781+920253237+920256606+920857651+921872659
3026+923220960+924811077+926449507+927874916+928905117+929492305+929648748
3016+929448506+929091692+928777852+928517727+928259255+928090034+928072489
3006+928014069+927704360+927291543+927144444+927394842+927804990+928057995
2996+928027228+927728834+927096958+925875541+923704021+920247261+915367761
2986+909460286+903690056+899629834+898360614+899839867+903125880+907110009
2976+910997005+914281429+916580850+917685617+917719563+916969829+915352250
2966+912256753+907277323+901037572+894940724+890053659+886476118+883775830
2956+881718734+880429235+880083165+880760875+882552189+885505609+889377983
2946+893645440+897848565+901777452+905346031+908479224+911092168+913025113
2936+914086717+914272148+913812162+912974894+911996756+911169086+910697467
2927+910481332+910264562+909997508+909870497+910044231+910523161+911271496
2917+912310215+913649234+915197841+916806711+918370574+919847094+921213448
2907+922471989+923644902+924704789+925550894+926070126+926182453+925904084
2897+925462596+925249131+925495271+926066630+926693548+927306100+928013878
2887+928860809+929736029+930481122+931033601+931518379+932120060+932721996
2877+932836039+932175619+931191888+930697320+930984780+931623077+932085542
2867+932240396+932174602+931919690+931542916+931257491+931227677+931340639
2857+931277833+930816385+930061820+929377690+929069507+929210439+929762664
2847+930643032+931640749+932542540+933395574+934383628+935460107+936410211
2837+937239215+938186903+939349137+940520143+941457470+942161942+942838317
2827+943629816+944448777+945083323+945433335+945601729+945788114+946151665
2817+946720100+947365263+947904265+948265656+948525780+948793406+949134137
2808+949575624+950083732+950543781+950857749+951051952+951222699+951416775
2798+951636025+951903651+952210563+952451235+952542520+952590388+952793555
2788+953173126+953517861+953633366+953584291+953647542+954002512+954487862
2778+954789815+954867242+954988341+955307458+955667259+955916005+956150511
2768+956492831+956869668+957176453+957454631+957715201+957814432+957722003
2758+957673500+957828735+958041183+958160630+958244096+958289802+958139080
2748+957784873+957434289+957204105+957062473+957027638+957136214+957300730
2738+957437722+957624234+957958671+958364941+958657613+958740062+958656913
2728+958497482+958338941+958282364+958417576+958706561+959008641+959252747
2718+959467546+959659398+959794864+959861929+959840633+959700464+959521898
2708+959510011+959764859+960112709+960278624+960203867+960088998+960119575
2698+960262605+960369973+960383831+960386438+960489547+960675931+960776370
2689+960694430+960577399+960584138+960624695+960580196+960608548+960927919
2679+961445499+961875162+962086657+962137321+962122065+962140436+962283466
2669+962552491+962867539+963173179+963469221+963728265+963857755+963809697
2659+963716949+963801814+964096584+964403623+964596237+964748104+964872953
2649+964819238+964577039+964414684+964520844+964735708+964816695+964796035
2639+964896919+965216926+965667058+966149357+966613094+966945369+967006586
2629+966861649+966840162+967208672+967836544+968322022+968433967+968302379
2619+968196091+968257944+968455898+968642855+968650292+968421189+968067872
2609+967775709+967681118+967801200+968039076+968329713+968778003+969468172
2599+970150205+970391005+970080088+969533076+969101887+968955233+969170160
2589+969707573+970262404+970423171+970078308+969527673+969133290+968972206
2580+968926182+969003864+969363220+970021033+970755065+971330937+971662895
2570+971806688+971964467+972393177+973126065+973916038+974506531+974738558
2560+974492292+973878087+973363750+973347921+973783878+974414992+975023602
2550+975305277+975042991+974552682+974391408+974581416+974688784+974606716
2540+974647464+974922845+975205855+975385628+975630623+976082155+976613974
2530+976937858+976922983+976748549+976625035+976501011+976276867+976083744
2520+976014199+975843771+975355941+974674862+974089391+973832826+974026775
2510+974470615+974635767+974240558+973647331+973421216+973703844+974164021
2500+974424654+974517084+974845037+975596423+976436171+977000982+977348006
2490+977697382+978112106+978543931+978879513+978983893+978935390+979013580
2480+979325323+979695867+979976461+980217896+980493595+980667139+980444838
2470+979771705+979116053+979085540+979752443+980555130+980863250+980528813
2461+979924779+979533511+979539042+979816521+980151848+980355841+980344717
2451+980257881+980316873+980469121+980365249+979797005+979019047+978556963
2441+978781425+979675334+980853396+981705858+981742792+981028656+980151784
2431+979631281+979525692+979634523+979779842+979848369+979823831+979827201
2421+980010788+980380760+980702229+980620416+980040729+979305553+978789308
2411+978538528+978506426+978773225+979270526+979709661+980027189+980492451
2401+981203853+981876223+982288151+982613370+983114676+983707204+984042213
2391+983992819+983837584+983861359+983953852+983799951+983371940+983009660
2381+983045894+983519993+984236861+984960786+985584017+986200510+986939946
2371+987716506+988335542+988808305+989218199+989347498+988930040+988305537
2361+988276804+989092713+989975116+990004167+989183681+988213616+987529804
2351+987068864+986726545+986572072+986711097+987135230+987651602+987995447
2342+988020112+987690379+987068610+986450591+986226828+986433809+986680139
2332+986655792+986450401+986219263+985911843+985619680+985799707+986766530
2322+988071158+988797880+988575642+987920118+987494523+987351365+987064160
2312+986485491+986068350+986293258+987063334+987848730+988207641+988051070
2302+987609710+987275591+987356260+987858964+988489061+988899463+988996597
2292+988993164+989119794+989400896+989814922+990428554+991155467+991643550
2282+991692753+991593140+991833431+992654744+993907818+995104569+995697288
2272+995597802+995239654+995000189+994987094+995425911+996515867+997738682
2262+998096957+997320079+996297189+996107181+996971784+998293386+999388300
2252+999889860+999660503+998794882+997707469+996870646+996447530+996262544
2242+996019583+995685654+995806817+996998674+998987497+1000808052+1002053879
2232+1003145996+1004262078+1004865730+1004615777+1004127948+1004275237
2224+1004946590+1005171116+1004504277+1003574006+1003192147+1003647111
2215+1004751052+1005986263+1006851565+1007409193+1008079402+1008862701
2207+1009335464+1009318936+1009100322+1009029569+1009068283+1008736834
2198+1007733586+1006632379+1006482102+1007637470+1009375830+1010690630
2190+1011092323+1010711099+1009952783+1009087163+1008115064+1007113978
2181+1006542302+1006766828+1007482679+1008150409+1008677714+1009065804
2173+1008804726+1007404616+1005404415+1004370909+1005764407+1009667104
2164+1014587034+1018765875+1021391596+1022191677+1020966891+1018500601
2156+1016493725+1015784485+1015834958+1015795991+1015232578+1014082613
2147+1012381186+1010145588+1007671098+1005864592+1005639112+1006804206
2139+1008149201+1008747450+1008619358+1008140365+1007533789+1006980229
2130+1006584766+1006169469+1005533333+1004890395+1004710940+1005110281
2122+1005624618+1005751248+1005647376+1006011055+1007091221+1008157783
2113+1008370549+1007849918+1007330558+1007110101+1007027207+1007127392
2105+1007561823+1008053911+1008148629+1007863267+1007583627+1007465515
2096+1007332910+1007055431+1006780114+1006808783+1007280847+1007938533
2088+1008305772+1008121676+1007473207+1006603201+1005839227+1005584315
2079+1006089499+1007262412+1008747323+1010092762+1011019282+1011724899
2071+1012577233+1013312728+1013100280+1011639462+1009785978+1008948582
2062+1010004147+1012525869+1014925030+1015840107+1015494546+1015173522
2054+1015480306+1015776348+1015269257+1014171737+1013767247+1015229526
2045+1018236344+1021141261+1022593243+1022668000+1022325744+1022146161
2037+1022032436+1021966706+1022353651+1023288498+1024034990+1023873842
2028+1023357089+1024047004+1026500072+1029060826+1029774961+1029036351
2020+1028775464+1029484259+1029749978+1028605035+1026891975+1026038815
2011+1026509734+1027782006+1029373522+1031215754+1032739823+1032826404
2003+1031443649+1029952446+1029222672+1028787669+1028225782+1027952880
1994+1028171939+1028323233+1027964513+1027285913+1026671518+1026618565
1986+1027726192+1029830965+1031680953+1032297764+1032150538+1032339910
1977+1033158998+1033999063+1034254675+1033724318+1032558079+1031314731
1969+1030663212+1030690801+1030857542+1030886148+1031006103+1031113726
1960+1030642297+1029559716+1028702804+1028794217+1029660791+1030501365
1952+1030593222+1029708912+1028093368+1026240837+1024609336+1023398600
1943+1022693936+1022714914+1023437377+1024137336+1023901749+1022506598
1935+1020663158+1019381669+1019061408+1019282501+1019454646+1019305513
1926+1018609813+1017101700+1015091264+1013651996+1013666553+1015161317
1918+1017629387+1020400745+1022929587+1024950893+1026367467+1027281845
1909+1028044737+1028947673+1030027076+1031206092+1032275133+1032874971
1901+1032841343+1032417019+1032030646+1032029311+1032478491+1033051947
1892+1033351167+1033339597+1033336610+1033665071+1034343353+1035161424
1884+1035928639+1036508962+1036830812+1037066018+1037537001+1038195386
1875+1038576419+1038505158+1038373697+1038575338+1039085353+1039618571
1867+1040048616+1040476436+1040863508+1040963439+1040607452+1039807562
1858+1038632487+1037322582+1036399305+1036289839+1036928899+1037834822
1850+1038453095+1038549212+1038427286+1038622316+1039326217+1040223494
1841+1041002470+1041637779+1042121286+1042402452+1042573071+1042783676
1833+1042888819+1042525840+1041668674+1040729250+1039783914+1038552771
1824+1037263527+1036607684+1036868572+1037741948+1038737948+1039486792
1816+1039928979+1040148228+1040138947+1039962480+1039826632+1039791860
1807+1039727338+1039575725+1039341664+1038953066+1038315849+1037514116
1799+1036915740+1036838440+1037167283+1037559759+1037873981+1038217635
1790+1038680418+1039209440+1039688243+1040031325+1040274858+1040452724
1782+1040403204+1039930250+1038930308+1037281580+1034902189+1031793343
1773+1028063935+1024581493+1022994364+1023875431+1026357995+1029218731
1765+1031465199+1032761500+1033512823+1034306610+1035127732+1035515695
1756+1035144833+1033986922+1032151491+1029589212+1026233972+1022613648
1748+1019452675+1016509999+1013109307+1009072924+1004216054+997613133+988652688
1738+977646654+962097082+933109259+883442347+826699559+779456155+739076751
1728+701205593+666250158+633733423+602840625+575673167+554745332+540362507
1718+532816475+533986210+543228965+555995100+569417142+583191356+597255381
1708+611351827+625942713+640877064+654059577+665023846+676597934+690183094
1698+702647467+713133824+723633086+733210786+740487985+746540525+752571643
1689+758298709+762984387+766795926+770293752+773113804+774861890+776235491
1679+777988663+780596776+784488857+789489329+794626665+800000033+807317471
1669+816933122+826183378+833581041+840113400+847008740+854251992+860728602
1659+865674277+869059649+871346102+873966802+879166753+885151656+888631237
1649+890708421+893617406+898222796+902913305+906533946+909340521+911527870
1639+913128667+914680579+917552249+922236656+926834290+930177007+932640119
1629+934736945+936594116+938118312+939319705+940172420+940301148+939044514
1619+935230432+926671744+912017225+893647029+873432758+850340904+824947277
1609+801967115+787447871+783922075+789788930+801962156+817371812+833288368
1599+847953186+860858410+872130609+881860875+889937709+896328119+901281105
1589+905017378+907452138+908591233+909012505+909681760+911349050+914066820
1579+917373112+921145302+925812608+930738449+934036287+935051867+933959813
1570+931083630+927605638+924825316+923194706+922743047+923202016+924545167
1560+928284238+935456992+942160353+947022562+951378316+955225772+957909277
1550+959295274+959642616+959201383+958321205+957609994+957723528+959397239
1540+963231091+967599305+970641785+972486560+973709375+974429867+974335530
1530+973250660+971191403+968177529+964340054+959994725+955981163+954224813
1520+956067617+960575238+966475403+972584075+977466245+980560534+982209452
1510+982888688+983241433+984682544+987895453+990835969+992310199+992397925
1500+991340834+989674243+988228428+987394084+986416518+983508042+975360900
1490+956524425+924342255+887214791+858489445+846049482+851244602+869580026
1480+892364777+912231707+926989526+937474930+944564790+948595261+949807015
1470+948739182+945909022+941188509+933842020+923516302+911348415+898576876
1460+884551691+866658899+843064595+820436669+807257525+801396391+798867931
1451+798069630+798344884+799168168+800208794+801197102+800998195+797370243
1441+787942121+769717180+738845614+700414857+675140231+675554193+697829756
1431+735119957+778063357+815849269+844602205+866680068+883993999+896519589
1421+904513212+908438985+907848491+902923031+895094752+885815508+877044881
1411+871561157+871380620+876359415+884883013+894694139+902919153+907314384
1401+907272238+902917946+893680594+876526793+847735525+811343492+780624746
1391+765349221+766632426+781337610+802925037+823228496+838505611+849567840
1381+857897998+864734853+871596183+879880634+890135219+901490057+911875911
1371+919894961+925687758+929804492+932715321+935287644+938751270+943886508
1361+950209281+956471917+961938350+966532424+970393611+973635889+976313165
1351+978511575+980379044+982024275+983443201+984544599+985166559+985008781
1341+983605747+980586215+976124873+970916530+965689371+961259496+958798672
1332+959367616+962998937+968377517+973508687+976687396+976963477+974128740
1322+968604078+961351798+953690388+946743239+940735706+934961408+928379210
1312+920011165+908926560+894230149+875354261+852473584+826649658+799533372
1302+772749934+747285110+723429601+701382060+681623134+664509890+649916334
1292+637589906+627360495+618457453+608971737+596853752+581959705+567262149
1282+558121931+559827109+574709141+600885558+633540936+667445447+698650369
1272+724628450+743793959+755457743+760220530+760211503+758686481+758854621
1262+762519697+769394440+777329960+783155241+783639764+776284948+760028361
1252+735558965+704700113+669410940+631724831+594760676+563359643+543001769
1242+537354863+546345503+566374344+592288855+619390902+644429686+665774788
1232+683199711+697333790+709036287+719276378+729460655+741295440+755826253
1222+772660683+790412288+807903133+824792042+841121543+856533169+870120872
1213+880917700+888190449+891076740+888063756+877108768+856436417+825290614
1203+784235598+735419749+683091390+633647605+594225869+570070505+562427466
1193+568423303+582627752+599193031+613739927+624468801+632342023+640385547
1183+652043864+669052664+690327777+712916100+733989762+752086293+767201370
1173+780321966+792669500+804913224+816933504+828255222+838579732+847883260
1163+856195745+863517823+869940272+875627735+880673913+885176893+889458398
1153+894038106+899340277+905410998+911798929+917588102+921469568+921773873
1143+916392368+902322240+875582855+833916813+782230883+734560803+706885999
1133+705999274+726082593+755559263+785209730+810289326+828425905+838154265
1123+839371231+833798638+823745313+809865320+790468165+763543795+729372485
1113+691180366+654057161+623631977+604774906+600162015+609330139+628935864
1103+654211761+680821083+706023685+728702593+748725141+766299388+781626531
1094+794894100+806446511+816780874+826303270+835146684+843227396+850428947
1084+856742502+862233219+866917689+870846704+874347771+877983542+882125386
1074+886641843+891100007+895248907+899192161+903087166+906884784+910487308
1064+913951060+917377943+920751555+923983789+927004910+929797563+932405994
1054+934858744+937071393+938909366+940217427+940488422+938572132+933389916
1044+925646756+918592558+915920749+918232312+922151092+923594364+921790719
1034+919917655+922122994+930035185+941793369+954056100+964660569+973353451
1024+980690215+986965374+991898717+994515983+992828415+983454262+961983675
1014+924843497+871599235+805896702+735575429+672817480+631651218+620911029
1004+638133676+671572861+708544136+741832598+770049011+794453502+816147980
994+835257866+851474722+864560611+874131636+879288488+879159061+874287253
984+866747197+857710596+845878227+830695385+816649413+811225762+817857162
975+832911404+849760900+863810622+873737508+880480790+886114283+892453647
965+899801153+907127300+913435197+918643222+923227316+927458729+931237340
955+934462772+937237817+939691584+941849309+943757272+945576747+947441991
945+949299607+950931108+952079483+952453015+951373866+947376705+939041526
935+927404823+917064611+913116271+916625921+924231009+932047210+938579951
925+943956434+948106097+950483390+950652929+948147989+941745438+929913132
915+913252309+896567330+887034255+888931728+900191340+914636462+927296374
905+937128796+945433780+953145410+959993263+965295815+968832863+971072783
895+972779550+974219326+974285374+969962613+956777493+930896292+892734050
885+850099977+817052378+806393113+820757121+851157576+884662810+912950547
875+934277277+950197902+962389245+971732885+978523653+982414463+981705031
866+973013802+953554350+925537926+896260545+869794444+840564741+802295703
856+763254174+743648259+754916707+788426453+826535678+857986041+880455871
846+894887389+902232162+903491466+898967508+887149315+867062881+841784314
836+815060758+784172982+744535048+704555239+685666891+700216903+736481925
826+772149461+796850057+816068773+838152866+864247342+889868165+911113908
816+927216849+939082528+947815650+954645259+960780502+966754090+972326684
806+977165817+981313192+984817120+987348378+988773152+989541003+989057178
796+983387133+965520595+929284942+876020592+820225048+785714087+789262959
786+826051155+874344720+914051182+937612938+945569245+939092954+919660391
776+891698192+860377764+825320237+778689385+712911078+631899201+553589646
766+499685123+482150003+498475308+537230395+586261743+636833052+683476745
756+723129046+755010153+780099920+800076189+816519859+830343721+841618271
747+850178485+856179407+860008809+862332959+864300676+867058685+870998189
737+875650302+880116603+883733620+886594039+889264513+891473666+889730919
727+876034959+843535134+798089146+760474743+750343928+768461309+799532800
717+829929060+855701113+877090015+893839453+905806144+913806441+919138425
707+923117151+926612561+929811739+932723204+935608478+938503414+940614162
697+940950570+939948657+939804991+942434844+947528445+953188382+957950279
687+961636015+964681293+967302691+969420750+971072338+972515102+973894997
677+975159259+976300451+977399116+978604831+980320878+983105776+986665836
667+989049423+989502798+989428104+989638772+990079623+990743539+991940036
657+993675028+995345242+996364890+996756094+996929511+997174379+997569842
647+998236301+999326701+1000612958+1001415009+1001315715+1000718102+1000330139
637+1000386652+1000728145+1001314888+1002309427+1003798024+1005637141
629+1007605876+1009686747+1011987058+1014217125+1015658300+1016027446
620+1015927070+1015962414+1015677498+1013723193+1008810320+1000229255+988351498
611+975673660+966535730+963960610+966175230+966848299+959704977+944219610
601+927505707+919462946+924477593+938575565+954699992+968356031+978311396
591+984990600+989616205+993464296+996949217+999796540+1001952359+1003708582
581+1005322093+1007215180+1009998108+1013473176+1016109513+1016518517
572+1015159728+1013661340+1012678054+1011068993+1007612233+1003126861
564+1000060289+1000171026+1003138367+1007310470+1011308585+1014702920
555+1017479427+1019387199+1020029946+1019302589+1017509559+1015154706
547+1012428736+1008572508+1002186865+992907177+982850737+976118771+976326896
537+983956204+995942919+1007986210+1017225278+1022911597+1025632799+1026536497
527+1026672344+1026495876+1025985226+1025166011+1024382776+1024103390
518+1024117693+1022808805+1017830774+1006977813+987977648+959806306+925942924
509+894878108+875552024+871769282+881361476+899385348+919635854+935156120
499+940736088+935271498+923256240+914021940+915819674+929080059+946998914
489+963235541+976421995+987627128+997204511+1004813413+1010639902+1015438859
479+1019828941+1024011406+1027840553+1030785010+1031978456+1031223764
470+1029979526+1029946279+1031043482+1031687183+1030765367+1028439692
462+1024613532+1017393228+1003633571+981484383+951926917+915840525+873739224
452+832128296+804608855+802137035+825009003+863258207+903250094+936324456
442+960969748+979316296+993787672+1005259922+1013295564+1018224393+1021823294
432+1025589953+1029917038+1034426311+1038110903+1039822628+1039179372
424+1036980771+1034305848+1031172464+1026963745+1022880575+1020968099
415+1020699901+1021000837+1022922785+1029058156+1039852569+1051472299
407+1058870025+1060759362+1060141407+1060287679+1062166782+1065379818
398+1069386069+1072804433+1073741823+1072433571+1070614732+1068673332
390+1064968716+1057985207+1047201664+1031033883+1007301634+977527271+946633710
380+919844805+902016599+896223421+900191531+907139950
##END=
