##TITLE=X8202
##JCAMP-DX=5.0
##DATA TYPE=LINK
##BLOCKS=1


$$ === CHEMSPECTRA SPECTRUM ORIG ===
##TITLE=X8202
##JCAMP-DX=5.00
##DATA TYPE=INFRARED SPECTRUM
##DATA CLASS=XYDATA
##ORIGIN=ComPlat
##OWNER=
##XUNITS=1/CM
##YUNITS=TRANSMITTANCE
##XFACTOR=1
##YFACTOR=8.8533175e-010
##FIRSTX=3997.453
##LASTX=373.96442
##MAXX=3997.453
##MAXY=0.9506177272047803
##MINX=373.96442
##MINY=0.27097865817458827
##NPOINTS=2559
##XYDATA= (X++(Y..Y))
2559A066265893A066512435A066664253A066553100A066440937A066328841A065940917
2552A065407840A065304833A065826667A066483553A066830544A066961962A067047330
2545A066963847A066637861A066255121A065949534A065642870A065282280A064975683
2538A064891191A065140695A065677543A066248052A066550810A066542597A066454806
2531A066387144A066078191A065298034A064361548A063995436A064642291A065897559
2524A066725114A066558687A065969731A065877631A066366947A066674217A066402225
2517A065963740A065813404A066048905A066735078A067847348A068728561A068573781
2510A067591515A066695962A066320224A066130099A065830100A065610218A065588472
2503A065384613A064518078A063161621A062168447A062308887A063610272A065293523
2496A066544617A067411960A068642856A070513472A072076952A072292391A071246166
2489A069582978A067867007A066635167A066284878A066687076A067067527A066902110
2482A066693404A067041001A067649751A067661802A066980880A066088425A065044220
2475A063943058A063475555A064026877A064895298A065062397A064738498A064978578
2468A065898569A066776483A067306866A067222845A065940715A063719069A061930791
2461A061679400A063137653A065969799A069397700A071290600A070135175A067642547
2454A065520541A064360471A064323509A065153286A066247244A067310098A068543889
2447A069792761A070279990A069778825A068799117A067509715A065897829A064495995
2440A064064040A064776133A066140534A067755720A069877860A072450738A073741823
2433A072460904A070073101A068232849A067024507A065784387A064389285A063174008
2426A062563373A063010342A064512220A066219102A067301346A067419770A066794256
2419A066442081A066959808A067629755A067333863A066031468A064614958A063643328
2412A063164314A063253855A063916330A064649024A064935760A064961074A064977164
2405A064515115A063095844A061276463A060100032A060221823A061720941A063907174
2398A065414505A065475569A064711030A064048959A063994898A064806900A066358464
2391A067656483A067441448A066018003A064983493A065427633A067435254A069895364
2384A070793408A069787510A068450443A067970149A067945037A066968829A065040651
2377A063309264A062960993A064797475A067709535A068286642A065363136A061800720
2370A060126087A060571440A062127110A063532041A064073398A064062088A064009641
2363A063779055A063153744A062552400A062614406A063570820A065093771A066163357
2356A065709050A064047276A062255296A060997605A060544038A060773346A060896752
2349A060170454A059057174A058550421A059093596A060729720A063533051A067227356
2342A070263630A070249020A067077828A063206661A060405821A059159911A059378447
2335A060693028A062784938A065690536A069151763A071516003A071685392A070540604
2328A068866509A066992326A065290022A063796492A062258932A060628935A059149476
2321A058093017A057761780A058626161A060700434A062962946A064780374A066971186
2314A070366771A073051409A071465644A066936109A063218577A061552898A061198165
2307A061120472A060900320A060549559A060057618A059499295A059158699A059320750
2300A060179543A061563334A062299596A061487324A059955015A059059665A059830263
2293A062468379A065647920A067266269A066878883A065507211A063912492A062695195
2286A062551322A063553248A064613275A064225417A062164475A059721399A058285431
2279A058150917A058537629A058790905A058844832A058590210A058003812A057677288
2272A058260656A059730151A061273905A061756825A061031604A059949158A059035630
2265A058431526A058337541A058671067A058709038A057920464A056837009A056452249
2258A057284650A059514644A062996204A066079875A066239097A063626430A060617355
2251A058715770A057894006A057608617A057653993A057901277A057896362A057377424
2244A056885213A057194772A058345283A059520637A059645524A058473402A057056622
2237A056636920A057411557A058469834A058682647A057686915A056072605A054710021
2230A054118036A054299678A054831139A055201222A055273865A055335669A055646238
2223A055998144A055848616A054996622A053979684A053527464A053718868A054068552
2216A054271873A054385988A054485494A054633608A054980801A055521687A055920653
2209A055822090A055225055A054430355A053776902A053453003A053449973A053692409
2202A054113256A054560763A054847094A054993997A055254072A055731134A056094822
2195A055843095A054885873A053705672A052878521A052683752A053052623A053555942
2188A053672145A053351074A052976075A052674999A052235572A051762347A051677248
2181A051950250A052053189A051798837A051593496A051754604A052042686A052073858
2174A052022893A052580408A053996178A055393299A055536701A054295975A052704353
2167A051686337A051350724A051252834A050984343A050611903A050558043A050962193
2160A051407209A051482343A051305886A051260643A051460665A051640826A051468609
2153A050933446A050390203A050129387A050094850A050161030A050340921A050569085
2146A050616885A050349875A049881498A049509327A049572949A050175370A050950411
2139A051305078A051005416A050399628A049959999A049739174A049452640A049007961
2132A048610139A048383525A048281595A048334243A048538237A048584354A048167143
2125A047578255A047543448A048324212A049320684A049772163A049580422A049165298
2118A048844497A048680224A048630270A048589942A048501545A048388641A048142704
2111A047693582A047540889A048352690A049778963A050537307A050027121A049053876
2104A048584556A048583412A048501814A048211712A047944097A047784874A047692101
2097A047704420A047830318A047948406A047883235A047436536A046578484A045757258
2090A045630822A046349849A047399777A048150245A048352690A048240056A048273382
2083A048626634A048899299A048526253A047494637A046469350A046099738A046339077
2076A046658802A046754403A046650656A046292893A045610153A044954815A044931521
2069A045686163A046612483A046898612A046282726A045156183A044036036A043240326
2062A042980318A043277422A043762698A043999950A044023177A044203944A044642362
2055A045032104A045168369A045308539A045820610A046574781A047003302A046808465
2048A046263876A045751535A045409324A045291910A045376133A045337354A044876247
2041A044361147A044528246A045391281A046046619A045771867A044825350A043930538
2034A043360029A042828905A042166565A041774466A042170335A043173136A043924748
2027A043877756A043489629A043583950A044186978A044506231A044152440A043756167
2020A043946763A044373130A044320886A043704058A042914071A042267215A042065713
2013A042580679A043524840A044114334A044019003A043715638A043592501A043387767
2006A042923025A042710279A043263082A044260362A044889241A044779367A044277664
1999A043905426A043770575A043592164A043212790A042876302A042969075A043604418
1992A044380334A044564332A043836553A042787972A042224666A042193360A042250990
1985A042319190A042604175A043020578A043277758A043269612A043037611A042600540
1978A042036359A041522874A041192714A041094151A041277274A041684790A042019595
1971A042014546A041771841A041524221A041224087A040711006A040040924A039355559
1964A038768758A038522483A038777442A039220102A039392386A039293957A039151566
1957A038859242A038126211A036929785A035579724A034611259A034569652A035445681
1950A036381022A036380483A035355735A034184084A033729643A034033142A034400869
1943A034093869A032884786A031143434A029553966A028599640A028215485A028154960
1936A028544097A029528854A030583293A030993973A030949674A031399335A032816519
1929A034602036A035728040A035788902A035348531A035133631A035130063A034912604
1922A034488661A034105920A033555272A032436000A030893390A029488998A028440417
1915A027344372A025608944A022985034A019701005A016249203A013094101A010466891
1908A008378818A006897945A006269065A006567246A007448391A008517304A009740997
1901A011344939A013505993A016154141A018923271A021433874A023605834A025409596
1894A026559838A026988965A027294147A028130993A029449748A030741169A031734948
1887A032528504A033192055A033557763A033510636A033322867A033369927A033587992
1880A033644140A033561062A033647237A033892703A033869813A033165866A031685599
1873A029698580A027678436A025940989A024486104A023140486A021533986A019069971
1866A015423601A010958900A006224227A001316126I96147074I90901205I85696270
1859I80069613I73153554I64197222I52811278I38921329I22596719I03901541H82975964
1851H60193439H36069942H11086440G85795063G61085639G38272145G18894901G04336014
1843F95507195F92789905F96062555G04707781G17801549G34255153G52448494G69936608
1835G84184792G93739707G98488114G99161361G97165858G94795896G95027964H00485771
1827H12128087H28792484H48048343H67484092H85457416I01265108I14915583I26589609
1819I36285300I44033626I50202920I55309898I59626215I63161230I65924032I68025773
1811I69648095I71089717I72622699I74067755I74814184I74544279I73647246I72728601
1803I72001293I71149097I69505097I66401296I61411530I54071730I43532125I28966707
1795I10432704H89373286H68659985H52141008H43459428H44613776H55172569H72458104
1787H92548249I11815687I28196379I41278567I51469229I59314704I65308281I69759046
1779I72658112I73782366I72867290I69492440I62776201I51218445I32977236I06943537
1771H74527799H40855782H13697829H00092124H02809481H19317955H43924035H70953668
1763H96435305I18060317I34845159I47059330I55835097I62422140I67726784I72244402
1755I76083657I79161134I81587178I83793675I86146672I88522222I90428048I91565969
1747I92137420I92556651I93010352I93356535I93362998I93053372I92812283I92979786
1739I93392419I93637817I93715443I94049979I94884333I96052416I97310377I98546121
1731I99673068A000590635A001278087A001766864A002037173A002116952A002261364
1724A002778215A003619773A004416897A005001679A005632578A006590540A007749130
1717A008669593A008987230A008615800A007715333A006683987A006111929A006391731
1710A007263787A007995269A008094842A007698771A007313203A007344778A007806086
1703A008368450A008723048A008827737A008739408A008415981A007861091A007295631
1696A006985938A006959681A007035960A007119106A007314011A007740378A008407700
1689A009270869A010186417A010829838A010921871A010543709A010053518A009748605
1682A009674211A009641559A009419993A009033617A008771724A008799058A008941517
1675A009016651A009119389A009352332A009503476A009334625A009051660A009087409
1668A009469409A009795463A009806841A009578205A009181260A008614050A008045359
1661A007712573A007599467A007533691A007512215A007632928A007811136A007835777
1654A007629898A007267018A006807124A006302256A005912379A005822164A006000776
1647A006175417A006106745A005787559A005334801A004817748A004271610A003796231
1640A003541609A003548476A003659360A003705679A003755096A003963600A004235928
1633A004329240A004256732A004269456A004464697A004712856A004911060A005029282
1626A004967814A004638058A004173990A003830163A003695446A003701303A003816024
1619A003998542A004070310A003887591A003534338A003201283A002994260A002912999
1612A002900409A002944642A003149443A003520469A003762434A003625900A003332297
1605A003271503A003438064A003521681A003357274A002974466A002387396A001609257
1598A000788099A000178878I99991446A000234017A000659912A000988659A001267248
1591A001822609A002685172A003323949A003253864A002738292A002487911A002739840
1584A003074040A003168967A003233936A003489163A003740150A003792730A003826056
1577A004015171A004223069A004347620A004529935A004786913A004850064A004611936
1570A004394141A004482673A004655697A004541784A004254106A004188599A004326009
1563A004258684A003868672A003502292A003447018A003534271A003369527A002891792
1556A002500703A002482525A002668138A002952990A003567664A004390034A004785634
1549A004705046A005062473A006343526A007629966A007713919A006604275A005250915
1542A004258415A003584226A003174151A003147289A003398746A003559854A003384810
1535A002896504A002272809A001794535A001704387A001946217A002181449A002118299
1528A001758449A001421556A001527727A002176400A002995606A003561268A003785930
1521A003778121A003626640A003401372A003012505A002190067A001077325A000565119
1514A001355174A002895225A003902065A003796904A003095785A002578059A002569980
1507A002906267A003218788A003272176A003096930A002720517A001969983A000837986
1500I99820778I99497620I99918332A000651766A001209214A001275462A000854885
1493A000343958A000239941A000746425A001701896A002626667A002826016A001971733
1486A000698557A000068465A000326386A000726362A000696874A000580604A000928538
1479A001503558A001456632A000452822I99247711I98877425I99438913A000068937
1472A000094519I99679868I99248855I98940374I98848947I99120063I99510479
1465I99465843I98904692I98385753I98309744I98454222I98425071I98137191
1458I97710151I97267895I97011792I97190876I97818274I98585304I99133394
1451I99284403I99134134I99097981I99584940A000424276A001023533A001234528
1444A001486928A001980686A002387597A002424222A002151019A001736232A001331610
1437A001059148A000897703A000759351A000635541A000428720I99824010I98652157
1430I97175593I95820280I94846631I94356575I94280566I94266293I93855208
1423I92748392I90674389I87299135I82717356I77742267I73173078I68967173
1416I64546031I59674285I54569798I49314302I43622138I37242185I30348007
1409I23344224I16448632I09994219I05122136I03135251I03856972I05704697
1402I07751298I10642622I15224468I21448564I28590161I35363693I40058106
1395I41301053I38715652I33366171I27755874I24151783I22768733I22544408
1388I22709218I23102058I23673240I24164373I24492312I25196056I26854935
1381I29119467I31091944I32572144I34194197I36548607I39771168I43837038
1374I48530172I53069468I56512518I58695991I60310638I61980087I63682121
1367I65245467I66984866I69358801I72109887I74355703I75702667I76743708
1360I78190582I79996700I81562671I82409885I82549718I82539889I83130864
1353I84570198I86413951I88157524I89620085I90556840I90556571I89652535
1346I88505862I87712508I87332326I87115743I86769627I86069181I85090482
1339I84237681I83827540I83834945I84198027I84999527I86037673I86633967
1332I86372546I85609354I84704309I83446954I81990183I81345481I82023711
1325I83325635I84687612I86323062I87990896I88709856I88293857I87826758
1318I88061721I88318497I87543793I85924635I84678388I84378794I84391788
1311I84101416I83809564I84156690I85254216I86570211I87480508I87896170
1304I88121371I88143857I87720924I87167179I87264261I88324623I89829868
1297I91044472I91723711I92063835I92077704I91504030I90460094I89525696
1290I89086268I89142147I89379803I89071120I87676153I85615615I83602675
1283I81746198I80092638I79135955I79217215I80292390I82264935I84753388
1276I87051717I88804851I89995487I90263170I89076640I86600911I83865376
1269I82043706I81673690I82551064I84170963I86000847I87735399I89500382
1262I90918642I90333120I87219019I84282385I84363982I87285468I90764604
1255I92890043I93299780I92580888I91039086I88556894I85586463I83028733
1248I80868689I78437933I76348580I76484710I79483350I83577429I86485382
1241I87368614I86714622I85402263I84162614I83337888I82985712I83213741
1234I84042979I84985726I85394925I85261891I84990708I84432990I82932122
1227I80503655I78308939I77519423I77981000I78478327I78308535I77986252
1220I78143657I78409589I77964506I76830893I75957289I75985431I76555199
1213I77013074I77100057I76666487I75641469I74640419I74483822I74840373
1206I74644660I73939233I73770854I74359271I74963577I75423808I76248333
1199I77334549I78009883I78250770I78731199I79696702I80610499I80868150
1192I80171879I78376667I75803452I73664144I73307324I74570267I75350559
1185I73684813I70322014I68442243I70203523I74364994I78190851I80565391
1178I81968370I82248777I80391223I76956925I74623520I74698722I75230519
1171I74808125I75282023I77957841I80574817I80826005I79704377I79081826
1164I78698816I77309840I74897060I72547296I71331278I71894381I73967442
1157I75909421I75993442I74551146I73393970I72951446I71927774I69956845
1150I68526803I68959161I70676748I71781613I71108029I69392463I68218725
1143I68259860I69055436I70037837I70680451I70057294I67651178I64584339
1136I63056541I64461539I68419016I73184591I76634642I77777478I77598327
1129I77455666I76968909I74994614I72307351I71095305I71616936I71939691
1122I71137989I70539338I71473939I73154564I73543094I71620639I68357952
1115I65930293I66100086I68694778I71620841I73124537I73576555I74005345
1108I74010597I72863519I71352485I70677758I70907200I71344810I71373019
1101I70631371I69289524I68237980I68272450I69253909I70530451I71656793
1094I72355016I72459706I72264600I72406722I73039035I73453822I73023079
1087I72125372I71791038I72383562I73027792I72845207I72033339I71187876
1080I70457606I69813175I69445783I69511829I69852425I70130947I70181508
1073I70205071I70385569I70407315I70041203I70039251I71155157I72648485
1066I72983829I71946895I70915144I71003407I71956185I72877658I73396663
1059I73959699I75146431I76643731I77031656I75574077I73533669I72387669
1052I72318998I72615698I72641482I72320075I71958003I71848870I71958811
1045I71985337I71807263I71701025I72069695I73163182I74817550I76019362
1038I75570845I73883017I72392247I71829682I71873645I71699071I70962204
1031I70211602I70125090I70630361I71177374I71762964I72574562I73082796
1024I72668682I71638750I70777196I70531932I70810993I71227396I71661909
1017I72350169I73148370I73267669I72374002I71265098I70842366I71238707
1010I72051719I72776536I73023079I72781383I72421331I72310246I72596712
1003I73042670I72787510I71232041I69220381I67908156I67456004I67270929
996I67053268I67033475I67065185I66635384I65928139I65776658I66653225
989I68087240I68670608I67478154I65317773I63209974I61393555I59989902
982I59238224I58918162I58346980I57360943I56278498I55128727I54001578
975I53493412I54117511I55501638I56336599I55806013I54389368I52794582
968I51389113I50336155I49493385I48409862I47105515I46394365I46919228
961I47907823I47600351I46001862I44169554I42586954I41517839I41217907
954I41638956I42433117I43600123I45844726I49671594I53394848I54230078
947I52679322I51001727I50403009I50985434I52406927I54324602I56288327
940I57862108I59372065I61654034I64379268I65701053I65037097I63110872
933I60813486I59208264I58878171I59539232I60426638I61398806I63133156
926I65399371I66137788I64980746I63458603I62582306I62852008I64255862
919I65929553I67103021I68116392I69290870I69746725I68924355I67955014
912I68001805I68917352I69414949I68970001I68502431I69007366I71102845
905I74988959I78439952I78178733I76654705I76462628I77289509I77159774
898I75389877I73551173I72724292I73128846I74816271I77596913I80006260
891I79757360I77515854I75601949I74978187I75546339I76560114I77392516
884I78045834I78204384I77227772I75662946I74677111I74452920I73852115
877I71923062I69329446I67080333I65491067I64023390I61830357I58703531
870I55055074I51296407I47566083I43839596I40371502I37838143I36726748
863I36929732I38027931I39565761I41287386I43371555I45947329I48516707
856I50329152I50799753I49491769I46445127I41852779I33960782I17851611
849H91598703H60331657H22712396G66534896F84942881E97917094E31993376
842D92532854D75027470D72925527D75055948D59609184D09482385C57864211
835C29177214C21790993C37886767C78377625D34474639D90627499E37944167
828E79451291F19876777F58589592F95391801G29461437G52588192G65311607
821G75537749G87691867H00620892H10739180H18262709H25933207H34764652
814H43194977H50165838H56735646H63229108H68337971H72071863H75311659
807H77857406H79469158H80883110H82945129H85923235H89369112H91025299
800H88044231H83189114H80314419H80605935H84059083H89623599H95180239
793H98627193H99930666I00907681I03082536I06324083I08676339I08859058
786I07901163I07160794I07180318I07849323I08851316I10105170I11680365
779I13511191I15349558I16523228I16132409I14575055I13240748I12943510
772I13637290I14459257I14643322I14735220I15747581I18026453I20390423
765I19916054I15725162I09019021I00099449H89402034H79313302H74117186
758H76444127H84314109H93675936I01545919I06867326I10386452I13312314
751I15536518I15916364I14506787I11854399I07178972H98702260H85155263
744H65175328H36812533H01820954G67903539G42947976G31498680G33834105
737G43577058G53645256G60603528G61658505G53391644G33624389G02235889
730F60098472F11935432E70348394E48068616E48866749E69411167F01055095
723F33617131F62228220F85882195G03824347G16765288G26250320G31983620
716G31680187G24310091G12007792F98454533F87539593F82313652F83720468
709F90900237G02446413G16365110G29983741G41956958G53041152G64088453
702G74973502G85773990G97257689H09306107H20311869H29329870H36958358
695H43887949H50286214H56064890H61081788H65268708H68676816H71430326
688H73723875H75813295H77999596H80590921H83623291H86472402H88142929
681H88378228H87974617H87845084H88291043H88995797H89523555H89826247
674H90171487H90712778H91396931H92188062H93122057H94129301H94991057
667H95569510H95936968H96176374H96277092H96313111H96454021H96735640
660H97072533H97489272H98085432H98785137H99341912H99596399H99603805
653H99487602H99249004H98745819H97816335H96405211H94653895H92964585
646H91907588H91873926H92742818H93997951H95244938H96538446H98120575
639H99969781I01791115I03349075I04650527I05874893I07185233I08513481
632I09558696I10125165I10383557I10660665I11025363I11258374I11263288
625I11336740I11876347I12926207I14140070I15106583I15635283I15842913
618I16034855I16410796I16882674I17228925I17306618I16996588I16076462
611I14317471I11765328I08914803I06560191I05396821I05704427I07254779
604I09365205I11157521I11949663I11326910I08740634I03092972H92484155
597H73845329H42716231G94282075G26483735F44043900E59665016D89293124
590D44205440D26710324D32022104D52916812D83113968E18033375E53941041
583E87279801F15207746F36865747F53928976F69598181F86769803G06777475
576G29175172G52156641G73398576G91176860H05021029H15443085H23306267
569H29476840H34682449H39368042H43689342H47694552H51435782H54907041
562H58026192H60755533H63145490H65229053H67012820H68601143H70150148
555H71637417H72828457H73525537H73631910H72688691H69062317H59123920
548H37083313G97246310G39674046F75186127F22279459E95415984E95456783
541F12003497F33384187F52578175F65343668F66699721F51595437F19098841
534E75708512E34382660E09171096E08600216E32096921E71604537F16613417
527F58790085F93835591G20751311G40087285G52557694G58404503G57302196
520G48424163G30205239G00499048F59180164F12452753E73255539E54431602
513E60328433E85033851F17548153F47855822F70012093F82644957F88209540
506F91418233F96888158G06807097G20245164G34620053G47634445G57940097
499G64799738G67970392G67997524G66199485G64127367G63083430G64026918
492G67424120G72807331G78767582G83855036G87470706G89752877G90997979
485G91617769G92310809G93719106G96005855G99012169H02558226H06372840
478H10024596H13122270H15466043H17075977H18251264H19470917H21083140
471H23126578H25381415H27485444H29149979H30382491H31396804H32340965
464H33257388H34192662H35164493H36135651H37146059H38309833H39579643
457H40719652H41625033H42458243H43365173H44277220H45102082H45910449
450H46815225H47801262H48734852H49476365H50003855H50472030H51032440
443H51418884H50734798H47913424H42738044H36618436H32201266H31710200
436H35265211H40876047H46190519H50076834H52581782H54054576H54782692
429H55108880H55443551H56127839H57271213H58681665H60084575H61403331
422H62657117H63730743H64513190H65110830H65698643H66296082H66821416
415H67254044H67670110H68159291H68711421H69183434H69397930H69280045
408H68938641H68671430H68811600H69423513H70124969H70299272H69536215
401H67824822H65351315H62316791H59035119H55933675H53247758H50871871
394H48568291H46087041H43143810H39819992H37215606H37180799H40805356
387H47192849H54082247H59698132H63728050H66678149H68850783H70062626
380H69945616H68272195H64937066H59528743H50916305H37234995H16087315
373G85225698G44542965F98558415F56436819F28062781F18798439F27081390
366F46450286F69847282F92574938G12491654G28976766G42149707G52342928
359G59806067G64800209G67654168G68666260G68410628G68028830G68439376
352G69122249G68120997G63215858G52848941G36299937G13597933F85574723
345F54228638F23014644E96165981E77005656E66529336E63327914E64612435
338E67495444E70005307E71568316E72755586E74465767E77186019E81023052
331E86543135E95432209F09874826F30866852F56916777F84329823G08953004
324G28066537G40952541G48041894G49999290G47710320G42625761G36532005
317G30837350G26190469G22711804G20318548G18686262G16975206G13675019
310G06740850F93897665F72760487F40905293E96924931E42663995D84196043
303D29092169C82185809C44844533C18286914C06075839C12351708C37967388
296C78838059D27858175D78191156E25224354E66471235F00477989F26082628
289F42717134F51395348F55327915F59187300F66889778F79329756F94285926
282G08666672G20611074G29723868G36425026G41692035G46800495G52560791
275G58747993G64500480G69291638G73358047G77166400G80785167G83968209
268G86563641G88646194G90414880G92022996G93484345G94885371G96480292
261G98202591G99471458G99968583H00166181H00716560H01773153H03071172
254H04261876H05098519H05521857H05671385H05842120H06255291H06713166
247H06810248H06566331H06399231H06556771H07033228H07712466H08336431
240H08844260H09637951H10953744H12408023H13637640H14768358H15882850
233H16584575H16398355H15420801H14348993H13755593H13590177H13591388
226H13752227H14159070H14802424H15615302H16524386H17541864H18493363
219H18408669H15320487H05641694G82776630G38576789F70371876E89165497
212E16969478D70157003D51629632D58688048D83796404E14842355E49204753
205E90566859F37535964F81990223G16451555G39234282G52872437G61021681
198G66392706G70361898G73522319G76148721G78681945G81657290G84975116
191G88022027G90510346G92473937G93875838G94836022G95781596G97064064
184G98589775G99817709H00259695H00074418G99884158H00071455H00513778
177H00717974H00153726G98982008G98377298G99510574H02214197H05068964
170H06717610H06698220H05278949H03165561H01453294H01185611H02513792
163H04547198H06191266H06918708H06881410H06624836H06587942H06741443
156H06732960H06285991H05560568H05168335H05448001H05874166H05810006
149H05577669H05908098H06694315H07100081H06420708H04461695H01868821
142G99987771G99413896G98907681G96443936G91455853G85732989G81890166
135G81275021G83383292G86793083G90218561G92733810G93841839G94023615
128G94733554G96907063G99401979G99785797G97171514G93379790G90710637
121G89770852G90039545G91143332G92707351G94098413G95079737G95912072
114G96594945G96845797G96838324G97293573G98822651H01365839H04134969
107H06258456H07415160H07485447H06370147H04744392H04082994H05101616
100H06976135H08517736H09394303H10066270H10812294H11307736H11395864
93H11332041H10771428H08976149H06565725H05134201H05131306H05797484
86H06472952H06771267H06375129H05888103H06579257H08277993H09023007
79H07788744H06374793H07030400H09283150H10541313H09308935H07046760
72H06314671H07588252H08899063H08875230H08331247H08417557H09337077
65H10538485H10970373H09796433H07586030H05953879H05607965H05697237
58H05525829H05130229H04156311H01924903G98649290G95815932G95074284
51G96469452G97970927G97447747G94819258G91086914G85962365G77905018
44G66251594G52125403G37368581G24649004G17862949G19511931G27969186
37G38726183G48278876G56391967G64377276G72863682G81334536G88421666
30G92242677G91274279G86338979G80815665G76817793G73147590G68591799
23G64576826G63280827G65041972G68690833G73498688G80035843G87484911
16G91319386G88230800G80069842G71254825G64383672G59481158G56816449
9G58642428G66747507G79227140G92501405H04255615H12434482H13491277
2H04844436G92581320
##END=


$$ === CHEMSPECTRA PEAK TABLE EDIT ===
##TITLE=X8202
##JCAMP-DX=5.00
##DATA TYPE=INFRAREDPEAKTABLE
##DATA CLASS=PEAKTABLE
##$CSTHRESHOLD=0.93
##MAXX=3997.453
##MAXY=0.9506177272047803
##MINX=373.96442
##MINY=0.27097865817458827
##$CSSOLVENTNAME=- - -
##$CSSOLVENTVALUE=0
##$CSSOLVENTX=0
##NPOINTS=33
##PEAKTABLE= (XY..XY)
386.71320702892854, 0.6700336312219558
403.71158973416686, 0.6757567503093572
429.2091637920248, 0.6355468608983308
543.9482470524131, 0.6992092105001511
563.7796935418291, 0.6916875815732167
670.0195854495696, 0.399842052450416
796.0909238467552, 0.27097865817458827
854.1687314229866, 0.4987320879254695
893.8316244018761, 0.5478419048971382
926.4118579202755, 0.743519303202346
991.5723249570224, 0.73633944685885
1072.3146428068803, 0.6755819893632342
1100.6452806489442, 0.4908559004539635
1124.726322814699, 0.450279919281658
1141.7247055199373, 0.527140675092692
1206.8851725566847, 0.377780197889987
1286.2109585144867, 0.7896043036849505
1379.7020633932757, 0.604073939574051
1402.3665736669273, 0.48522254692335803
1419.3649563721656, 0.64761900648709
1449.112126106354, 0.7784839844579385
1501.5238061141722, 0.7796283934939363
1553.93548612197, 0.28489178296692774
1562.4346774745895, 0.41869598443858225
1596.4314428850862, 0.829313931078649
1725.3358450664768, 0.8332900967356472
2340.110686239263, 0.816757855187354
2362.775196512914, 0.7995743122545192
2876.9762733463735, 0.7083469603021371
2908.139974972644, 0.7477633923801881
2964.8012506567716, 0.703658041498498
2981.7996333620013, 0.6133488989759838
3071.041142564511, 0.8911459413938605
##END=


$$ === CHEMSPECTRA PEAK TABLE AUTO ===
##TITLE=X8202
##JCAMP-DX=5.00
##DATA TYPE=INFRAREDPEAKTABLE
##DATA CLASS=PEAKTABLE
##$CSTHRESHOLD=0.93
##MAXX=3997.453
##MAXY=0.9506177272047803
##MINX=373.96442
##MINY=0.27097865817458827
##NPOINTS=114
##PEAKTABLE= (XY..XY)
2981.7996333620013, 0.6133488989759838
2964.801250656763, 0.703658041498498
2909.556506864738, 0.746741411445239
2876.976273346364, 0.7083469603021371
2838.7299122595778, 0.8789682359298853
2443.517514362783, 0.883835312697572
2435.018323010164, 0.882686194581996
2362.7751965129005, 0.7995743122545192
2340.110686239249, 0.816757855187354
2291.9486019077403, 0.8698737593731758
2267.867559741986, 0.871013757686395
2252.2857089288505, 0.8688163120483218
2240.953453792025, 0.8745543923569665
2232.4542624394057, 0.8715018003549095
2228.2046667630957, 0.870997842962857
2215.455879734167, 0.8739704461266333
2199.874028921032, 0.8756694765494091
2187.125241892103, 0.8668601485280713
2168.7103272947616, 0.8691068858966575
2155.961540265833, 0.8714164464062237
2137.546625668491, 0.864392396941415
2123.381306747459, 0.870268460629956
2107.7994559343233, 0.8654289814235803
2102.1333283659105, 0.865842279959101
2095.0506689053946, 0.8640459745956258
2083.718413768569, 0.8627414674779486
2078.0522862001562, 0.8621102542708146
2055.387775926505, 0.861699876444737
2048.305116465989, 0.8573926657691153
2035.55632943706, 0.86286514655276
2031.3067337607504, 0.8630285832204688
2015.7248829476152, 0.8599504201814765
2001.559564026583, 0.8574675294218953
1993.060372673964, 0.8571947781870187
1981.7281175371381, 0.8526245327924767
1966.146266724003, 0.8597415057924338
1960.4801391555902, 0.8592492905553816
1951.9809478029708, 0.8551687566797028
1937.8156288819387, 0.8593718381762165
1929.3164375293195, 0.8572118252498651
1919.4007142845971, 0.86077671978105
1910.901522931978, 0.8603574603068566
1899.5692677951524, 0.8582811315935103
1886.8204807662232, 0.8588065476565193
1879.7378213057073, 0.859582003539022
1862.739438600469, 0.8608248800575865
1855.656779139953, 0.8604086608126226
1849.9906515715402, 0.8602777689400438
1838.6583964347146, 0.8603916730670035
1831.5757369741982, 0.8588825436486075
1818.8269499452695, 0.8592427337884411
1806.0781629163407, 0.8595175708649205
1796.1624396716184, 0.8608171316341106
1781.9971207505864, 0.8561454387303312
1776.3309931821732, 0.8550327387362915
1753.666482908522, 0.844157991059431
1736.6681002032838, 0.8378729793555888
1725.3358450664578, 0.8332900967356472
1711.1705261454258, 0.8414219591632358
1691.339079655981, 0.8489252891682293
1678.5902926270523, 0.8522046774900155
1665.8415055981231, 0.8569613064658945
1658.7588461376072, 0.8574459521164842
1648.8431228928848, 0.864493367256839
1641.7604634323689, 0.861183699703871
1630.4282082955433, 0.8631791445085373
1596.4314428850662, 0.829313931078649
1562.4346774745895, 0.41869598443858225
1553.93548612197, 0.28489178296692774
1502.9403380062545, 0.7793703051235032
1484.525423408913, 0.8031382532834095
1467.5270407036746, 0.8082578753594425
1447.6955942142295, 0.7738836979864555
1419.3649563721656, 0.64761900648709
1402.3665736669273, 0.48522254692335803
1379.7020633932757, 0.604073939574051
1334.373042845973, 0.7860374419466171
1286.210958514464, 0.7896043036849505
1232.3827466145422, 0.8015765519803668
1206.8851725566847, 0.377780197889987
1141.7247055199373, 0.527140675092692
1124.726322814699, 0.450279919281658
1100.6452806489442, 0.4908559004539635
1072.3146428068803, 0.6755819884779025
991.5723249569974, 0.73633944685885
949.0763681939011, 0.7690623972969025
923.5787941360436, 0.7411827418450683
893.8316244018761, 0.5478419048971382
874.0001779124314, 0.6799603081143525
854.1687314229866, 0.4987320879254695
796.0909238467552, 0.27097865817458827
719.5982016731818, 0.7139308423798842
695.5171595074276, 0.7202972151862198
670.0195854495696, 0.399842052450416
627.5236286864733, 0.7081628413994165
619.0244373338542, 0.7068287703986115
606.2756503049254, 0.7093150590614493
596.3599270602031, 0.7140979142197585
589.2772675996871, 0.7128410910701363
583.6111400312743, 0.7132034874566908
563.7796935418291, 0.6916875815732167
543.9482470523844, 0.6992092105001511
531.1994600234557, 0.705466267853987
517.0341411024233, 0.7118802042232595
497.2026946129786, 0.7128083081207656
490.1200351524626, 0.7134783245331703
483.03737569194664, 0.7139092066425777
474.5381843393275, 0.7138559787271043
468.8720567709147, 0.7156413174861923
457.5398016340887, 0.7132303094673887
446.20754649726314, 0.703904507233717
429.2091637920248, 0.6355468608983308
403.71158973416686, 0.6757567503093572
386.71320702892854, 0.6700336312219558
##END=

##END=

