##TITLE=AJ-R131
##JCAMP-DX=4.24
##DATA TYPE=INFRARED SPECTRUM
##DATE=5/8/2021
##SAMPLING PROCEDURE=Diamant-ATR
##ORIGIN=Angelika Moesle
##XUNITS=1/CM
##YUNITS=TRANSMITTANCE
##RESOLUTION=4
##FIRSTX=3997.453
##LASTX=373.96442
##DELTAX=-1.4165319
##MAXY=0.96236652
##MINY=0.46869513
##XFACTOR=1
##YFACTOR=8.9627367e-010
##NPOINTS=2559
##FIRSTY=0.93754572
##XYDATA=(X++(Y..Y))
3997+1046048491+1045545397+1044764456+1044132148+1043752351+1043576651
3989+1043662306+1043968418+1044174843+1044006923+1043532692+1042954318
3980+1042409328+1042132943+1042410259+1043142255+1043797772+1044000340
3972+1043911159+1043893004+1044072695+1044360119+1044686648+1045060992
3963+1045426291+1045577518+1045276394+1044478960+1043481485+1042801894
3955+1042752948+1043135073+1043512343+1043679530+1043692565+1043658981
3946+1043705400+1043952524+1044324806+1044561357+1044540342+1044435201
3938+1044480489+1044765919+1045139598+1045185352+1044558962+1043571197
3929+1042998276+1043149238+1043735127+1044390312+1044872456+1045036253
3921+1044873321+1044466324+1043833684+1042953520+1042047021+1041645212
3912+1042184350+1043561887+1045114726+1046202910+1046699419+1046750959
3904+1046423433+1045858692+1045354468+1045011514+1044774830+1044704603
3895+1044870395+1045207630+1045557966+1045791657+1046011116+1046452295
3887+1047056605+1047401821+1047336183+1047320089+1047479895+1047279523
3878+1046609508+1046042838+1045769312+1045407870+1044760333+1044319287
3870+1044747631+1045975072+1047242348+1047904449+1047607381+1046559564
3861+1045724356+1045737657+1046285107+1046809681+1047244010+1047926461
3853+1048612304+1048558969+1048211957+1048171657+1048343965+1048458416
3844+1048495525+1048599003+1048741785+1048713720+1048385929+1047856899
3836+1047377215+1047155163+1047252123+1047522590+1047689445+1047658921
3827+1047623076+1047795185+1048233172+1048889354+1049495128+1049517406
3819+1049052020+1048787139+1048685989+1048112935+1047070638+1046162410
3810+1045682061+1045606447+1045913490+1046558833+1047378346+1048274470
3802+1049125904+1049580584+1049555911+1049412398+1049339378+1049260306
3793+1049075429+1048767388+1048438599+1048262366+1048260637+1048277995
3785+1048276997+1048364914+1048511220+1048629462+1048830965+1049168932
3776+1049390851+1049366046+1049268486+1049176912+1048875455+1048283448
3768+1047872860+1048171058+1049144658+1050293027+1051123513+1051404155
3759+1051070511+1050329670+1049729882+1049648283+1049967031+1050204712
3751+1049880245+1049332395+1049481029+1050587967+1052209902+1053141672
3742+1052630000+1051558242+1050663048+1049875324+1049169198+1049250397
3734+1050617694+1052140008+1052638246+1052269355+1051667373+1051260908
3725+1051244149+1051484025+1051460749+1050778763+1049742119+1049104357
3717+1049216548+1049695168+1049851316+1049334989+1048653269+1048694235
3708+1049360792+1050129032+1051002013+1052093988+1053022765+1053078162
3700+1052281592+1051501781+1051237433+1051268556+1051250534+1051176649
3691+1051254989+1051461946+1051380679+1050861559+1050327609+1050097842
3683+1050196465+1050574001+1051158760+1051710134+1051865484+1051606922
3674+1051551325+1051821592+1051690449+1050802970+1049798912+1049464137
3666+1049660586+1049964637+1050184162+1050292495+1050358931+1050466666
3657+1050541215+1050276269+1049408208+1048045701+1046610173+1045747765
3649+1045677937+1045266552+1044077017+1043223521+1043255775+1043565811
3640+1043289159+1042456944+1041894065+1042000270+1042364040+1042523247
3632+1042485341+1042396493+1042184749+1041791584+1041404007+1041147971
3623+1040991557+1040891669+1040712445+1040042430+1038664094+1037190527
3615+1036314087+1036023204+1035803346+1035297260+1034635758+1034193980
3606+1034162192+1034316678+1034372074+1034353986+1034387437+1034328183
3598+1034006110+1033591931+1033274181+1033019276+1032935882+1033259550
3589+1033850427+1034030982+1033101008+1031291668+1029471422+1028125872
3581+1027241918+1026628098+1026248035+1026195497+1026341803+1026350914
3572+1026067879+1025656027+1025364878+1025295250+1025243178+1024862916
3564+1024194364+1023557467+1023082771+1022626229+1021950894+1020967452
3555+1019815359+1018788556+1018163830+1017926149+1017760491+1017450322
3547+1017019584+1016470870+1015795801+1015260653+1015156443+1015315651
3538+1015214899+1014483103+1013225869+1011963780+1011281196+1011389596
3530+1011880985+1012000224+1011357874+1010270355+1009246944+1008451439
3521+1007825183+1007432949+1007397903+1007555514+1007441528+1006767856
3513+1005794655+1005119386+1005144790+1005740854+1006397502+1006692575
3504+1006528512+1006052685+1005511686+1005119985+1004984851+1005080083
3496+1005215482+1005109211+1004654199+1004104022+1003834354+1003855502
3488+1003742780+1003223792+1002606979+1002377878+1002605383+1002896732
3479+1002810411+1002201645+1001275063+1000414850+999876311+999576517+999255508
3469+998818784+998409394+998136600+997928911+997756470+997768307+998056730
3459+998495049+998883292+999072825+999012041+998814994+998647340+998499039
3449+998248191+997888212+997543994+997353929+997395693+997591676+997683051
3439+997461464+997011373+996645608+996627520+996927513+997257300+997398153
3429+997401877+997412385+997494050+997670947+997867795+997810869+997347279
3420+996829887+996740175+996999469+997107270+996857420+996500632+996275587
3410+996173239+996104476+995989426+995735053+995346677+994994479+994842054
3400+994857217+994821571+994512001+993918265+993301718+993016288+993279839
3390+994054329+995064572+995927312+996315156+996115715+995571124+995181817
3380+995241071+995524040+995652723+995634966+995735319+995949990+995982643
3370+995759792+995678592+996151094+996990358+997530893+997418304+996949260
3360+996536411+996240607+996001928+995965086+996310568+996971472+997695021
3350+998263021+998591478+998746164+998880233+999102818+999382329+999557430
3340+999439122+999021219+998599126+998526106+998853831+999349742+999767313
3330+999980986+1000036383+1000139130+1000379604+1000500905+1000238684+999768177
3320+999484543+999463861+999482016+999465058+999636968+1000210487+1001054606
3310+1001657187+1001506958+1000689240+999934035+999815328+1000153295+1000435399
3301+1000453156+1000271138+999994885+999839867+1000048619+1000614225+1001330194
3291+1002005994+1002465794+1002591684+1002470582+1002312239+1002286503
3282+1002507824+1002896599+1003042905+1002627263+1001992494+1001886821
3274+1002573795+1003505830+1003983985+1003906310+1003694632+1003683193
3265+1003854903+1004076357+1004286173+1004464401+1004615561+1004741850
3257+1004759074+1004583441+1004345095+1004330065+1004651938+1005146253
3248+1005607583+1005941759+1006104823+1006127434+1006166072+1006255718
3240+1006170927+1005859761+1005726689+1006075296+1006589429+1006752760
3231+1006470322+1006040050+1005783416+1005827507+1006061663+1006235767
3223+1006169331+1005926663+1005828837+1006138673+1006664377+1006955925
3214+1006943822+1007006268+1007375425+1007889557+1008294359+1008453500
3206+1008383739+1008281857+1008351086+1008556513+1008744782+1008904455
3197+1009066057+1009080954+1008760344+1008180573+1007695901+1007652142
3189+1008110479+1008814012+1009444391+1009941166+1010466006+1011006540
3180+1011263241+1011088405+1010774712+1010697967+1010948816+1011458160
3172+1012114077+1012605266+1012558913+1012034672+1011569020+1011533907
3163+1011706947+1011642572+1011276874+1010940436+1010883444+1011031545
3155+1011168341+1011206647+1011267364+1011507505+1011868482+1012114276
3146+1012149323+1012082022+1011962517+1011791472+1011771787+1012157636
3138+1012855316+1013505048+1013889832+1014035274+1014101045+1014352957
3129+1014945031+1015570622+1015659271+1015044054+1014121927+1013317643
3121+1012738604+1012326553+1012003217+1011688393+1011430828+1011412140
3112+1011636653+1011837425+1011865489+1011904859+1012133828+1012430497
3104+1012553726+1012390595+1011990847+1011563899+1011373037+1011432956
3095+1011437877+1011113078+1010455166+1009543547+1008394047+1007084276
3087+1005788403+1004586832+1003409734+1002263227+1001372955+1000921867
3078+1000712117+1000332919+999638431+998794644+997955180+997194056+996652924
3068+996450622+996548182+996870654+997370754+997859616+998081136+998107671
3058+998399219+999283107+1000558895+1001801698+1002888286+1003962771+1005009258
3048+1005760871+1006017439+1005789069+1005148647+1004226720+1003333588
3040+1002781217+1002546861+1002364644+1002147911+1002072165+1002281648
3031+1002759603+1003426027+1004129094+1004634648+1004837015+1004941425
3023+1005332860+1006248270+1007524258+1008676617+1009348960+1009629003
3014+1009794262+1009941299+1010078628+1010337656+1010769125+1011066526
3006+1010803042+1009950277+1008959187+1008229785+1007695436+1007089596
2997+1006389389+1005732940+1005086866+1004293422+1003321884+1002287500
2989+1001333984+1000576851+999996747+999346617+998340962+997000267+995676597
2979+994675199+993906294+992992081+991722943+990324524+989192581+988420019
2969+987710302+986737566+985480000+984188450+983122611+982343664+981716344
2959+981073462+980336945+979483848+978535452+977669919+977194159+977242373
2949+977564047+977745001+977644183+977517761+977651764+977961201+978104381
2939+977948233+977659212+977307014+976690134+975697049+974623296+973955742
2929+973957138+974553335+975469144+976350305+976891305+977067936+977205930
2919+977657217+978408631+979156455+979749925+980369863+981204606+982128528
2910+982853208+983286474+983568113+983826808+984058437+984156529+983928757
2900+983240454+982271708+981465828+981121278+981181197+981434439+981753785
2890+982117555+982510387+982860457+983080914+983173352+983237594+983400725
2880+983801870+984533001+985507066+986532006+987613208+988966605+990618998
2870+992244059+993529889+994507812+995368822+996148434+996771099+997283303
2860+997811867+998328127+998666227+998813198+999016630+999520322+1000303657
2850+1001156555+1001958644+1002781682+1003733137+1004763197+1005649346
2842+1006143927+1006163878+1005876919+1005581979+1005491934+1005662248
2833+1006061331+1006599404+1007113005+1007441994+1007558573+1007566952
2825+1007566886+1007575731+1007642433+1007940764+1008602466+1009519273
2816+1010478508+1011423512+1012433489+1013562440+1014817346+1016137558
2808+1017343186+1018277483+1019006286+1019707425+1020392137+1020897890
2799+1021127657+1021203005+1021349710+1021654359+1022000904+1022270839
2791+1022492359+1022749393+1023066744+1023429715+1023814168+1024210856
2782+1024638802+1025082508+1025439095+1025612534+1025598901+1025442155
2774+1025226420+1025105784+1025205538+1025519830+1025970585+1026451799
2765+1026773606+1026775734+1026568179+1026472548+1026655031+1026972648
2757+1027223696+1027361623+1027402588+1027324248+1027194767+1027231277
2748+1027562794+1028042677+1028405117+1028541381+1028584408+1028755985
2740+1029112640+1029441762+1029495695+1029296586+1029094551+1029073137
2731+1029214256+1029402592+1029540984+1029589797+1029572639+1029553353
2723+1029586405+1029679775+1029813512+1029982030+1030193176+1030424073
2714+1030636284+1030854679+1031162786+1031559741+1031870375+1031918190
2706+1031776007+1031703586+1031830739+1032065560+1032310689+1032560008
2697+1032760979+1032800814+1032661292+1032450877+1032325918+1032443828
2689+1032847566+1033332903+1033601973+1033573975+1033409381+1033272186
2680+1033206282+1033194644+1033249974+1033452275+1033844043+1034259751
2672+1034418560+1034250773+1033979642+1033858540+1033983100+1034319072
2663+1034713898+1034922185+1034787251+1034399740+1034036635+1033948785
2655+1034158867+1034426806+1034481338+1034345207+1034337161+1034701462
2646+1035316945+1035842051+1036082791+1036113648+1036081993+1036040694
2638+1036011899+1036075076+1036313622+1036724941+1037200436+1037557223
2629+1037599252+1037207086+1036445563+1035638353+1035245654+1035470700
2621+1035974990+1036170175+1035826024+1035243327+1034852889+1034810194
2612+1034986892+1035185336+1035293536+1035335300+1035477017+1035943667
2604+1036776547+1037644275+1038033449+1037711110+1036956969+1036330713
2595+1036235215+1036629443+1037132603+1037465715+1037718957+1038034579
2587+1038216398+1037998934+1037581031+1037438981+1037611555+1037654317
2578+1037382121+1037147167+1037231825+1037479348+1037698275+1037949389
2570+1038297664+1038708651+1039224912+1039866330+1040468247+1040918936
2561+1041308176+1041671347+1041952588+1042250387+1042645679+1042843458
2553+1042471508+1041673210+1041019089+1040878502+1041105210+1041319548
2544+1041361312+1041385253+1041551443+1041836673+1042188539+1042584696
2536+1042890010+1042923793+1042654590+1042151032+1041521051+1041031658
2527+1041019288+1041556763+1042364971+1043004195+1043118447+1042770239
2519+1042522250+1042825635+1043413054+1043737587+1043833551+1044179099
2510+1044827900+1045268946+1045192800+1044888018+1044727214+1044686249
2502+1044601258+1044594009+1044942883+1045602191+1046064518+1045852308
2493+1045190738+1044934171+1045603388+1046766188+1047649344+1048024021
2485+1048126701+1048059666+1047721300+1047176244+1046765257+1046806356
2476+1047271276+1047797246+1048007262+1047773505+1047249330+1046769181
2468+1046623806+1046814070+1047137007+1047485216+1047812409+1047931848
2459+1047733337+1047462206+1047360988+1047200916+1046609641+1045712585
2451+1045063984+1045021489+1045430015+1045856963+1046021889+1046032729
2442+1046200516+1046604919+1046992896+1047156759+1047198123+1047308385
2434+1047477102+1047562093+1047543937+1047538484+1047559366+1047463536
2425+1047236894+1047097305+1047130423+1047132618+1047060463+1047256313
2417+1047893010+1048557905+1048680004+1048132287+1047278658+1046677340
2408+1046725422+1047351146+1048080282+1048500513+1048558969+1048444584
2400+1048370034+1048394175+1048348886+1048064787+1047686120+1047543339
2391+1047716047+1047941956+1047954858+1047764461+1047621746+1047791328
2383+1048325145+1049002741+1049471320+1049454694+1048928923+1048222531
2374+1047904316+1048363717+1049440063+1050592556+1051447581+1052014650
2366+1052393848+1052550396+1052513886+1052560770+1052899602+1053262707
2357+1053095053+1052094254+1050325614+1048158556+1046378278+1045797310
2349+1046524251+1047786872+1048385330+1047741983+1046675611+1046311442
2340+1046694432+1047233503+1047629327+1047938232+1048213753+1048344630
2332+1048101230+1047366176+1046363115+1045488870+1045017565+1045097568
2323+1045653132+1046112666+1045868468+1045274133+1045386855+1046536621
2315+1047926328+1048709132+1048802236+1048538153+1048114863+1047677940
2306+1047542541+1047958316+1048714518+1049202316+1048964502+1048160019
2298+1047451565+1047430750+1048126368+1049008128+1049451901+1049224395
2289+1048587498+1048062592+1048110009+1048868007+1050022827+1050991572
2281+1051360862+1051179442+1050797051+1050505903+1050398966+1050438070
2272+1050558706+1050812015+1051433682+1052586573+1053997628+1055050699
2264+1055280200+1054612114+1053268027+1051793528+1051045705+1051528648
2255+1052597613+1052984459+1052307328+1051318034+1050605258+1049968627
2247+1049061530+1047763330+1045973210+1043769841+1041666493+1040240209
2238+1039657977+1039697413+1040036245+1040552772+1041307378+1042047553
2230+1042133009+1041371553+1040339497+1039389506+1038058454+1036012830
2221+1034019477+1033500490+1035213134+1038438384+1041528633+1043396694
2213+1044291555+1044960506+1045611501+1046229977+1047277794+1049214087
2204+1051689718+1053946754+1055655142+1056779836+1057174131+1056964182
2196+1056767932+1056961522+1057255530+1057243892+1056842881+1056111285
2187+1055199266+1054548138+1054645298+1055387801+1056031814+1056155575
2179+1056334202+1057305607+1058816084+1059961061+1060296966+1060002958
2170+1059448325+1059079368+1059172804+1059529059+1059927012+1060804382
2162+1062920898+1066258337+1069388953+1070462108+1069154864+1066827734
2153+1064762824+1063212645+1062031889+1061237780+1060723116+1060141815
2145+1059422854+1058978018+1059128713+1059534978+1059443603+1058487294
2136+1057142409+1056400970+1056868352+1058081095+1059035144+1059404500
2128+1059569958+1059419862+1058291443+1056437081+1055225136+1055355880
2119+1055906523+1055499925+1053784554+1051727691+1050759477+1051455096
2111+1053037262+1054428632+1055386072+1056216891+1056924147+1057164621
2102+1056720516+1055735810+1054691318+1054141141+1054181841+1054249474
2094+1053771519+1052948880+1052545209+1052969696+1053917892+1054928400
2085+1055918227+1056955138+1057753037+1057721715+1056660863+1055285986
2077+1054741528+1055414469+1056498131+1056956734+1056667181+1056438145
2068+1057093663+1058551935+1059685474+1059480911+1058455040+1058097522
2060+1058843616+1059675764+1059869154+1059983805+1060707621+1061686009
2051+1062115151+1062029429+1062432103+1064077979+1066603221+1069201283
2043+1071310284+1072211130+1071038022+1067896366+1064301694+1062127986
2034+1062218031+1063848877+1065565778+1066639797+1067572365+1069213985
2026+1071596112+1073600172+1073741823+1071422673+1067411960+1063359683
2017+1061112489+1061734689+1064627824+1068086497+1070711427+1071988013
2009+1072037491+1071345663+1070509258+1069961608+1069846226+1069935938
2000+1069688415+1068682761+1067065215+1065454120+1064353101+1063720194
1992+1063257069+1063116416+1063749655+1064875214+1065302627+1064132844
1983+1061820876+1059816351+1059231393+1059947228+1061182716+1062615384
1975+1064254943+1065734562+1066493425+1066270175+1065444344+1065157385
1966+1066095140+1067139565+1066863778+1065593643+1064471941+1063684017
1958+1062903541+1062311799+1062204797+1062512239+1063069864+1063622502
1949+1063597231+1062483709+1060439216+1058260054+1056886041+1056848068
1941+1057775116+1058647566+1058762416+1058243229+1057656209+1057309797
1932+1057136890+1057066397+1057076505+1057065931+1057012862+1057080096
1924+1057401836+1057993977+1058873475+1059954677+1060857318+1061192958
1915+1060998770+1060546152+1060095197+1059989125+1060417403+1061034814
1907+1061341458+1061250948+1060862572+1060166887+1059323034+1058727635
1898+1058523937+1058452181+1058338860+1058411082+1058949089+1059819610
1890+1060471004+1060486100+1060164027+1060172606+1060747389+1061465619
1881+1061778581+1061689267+1061653289+1061885849+1062134769+1062125525
1873+1061851534+1061451188+1061172475+1061386946+1062191962+1063202071
1864+1064016730+1064484311+1064610134+1064444808+1064107772+1063856857
1856+1063872885+1063977826+1063908264+1063757236+1063767345+1063883192
1847+1063868828+1063694258+1063577413+1063634539+1063671980+1063529597
1839+1063291784+1063073455+1062868361+1062731631+1062798865+1062982080
1830+1063009147+1062886250+1062893033+1063083630+1063237850+1063135835
1822+1062793745+1062463160+1062410224+1062664596+1062934664+1062845085
1813+1062355492+1061878069+1061762021+1061777583+1061615183+1061459168
1805+1061624959+1062130912+1062715338+1063019189+1062941580+1062786030
1796+1062809838+1063025573+1063451457+1064005092+1064232997+1063897690
1788+1063309274+1062914846+1063015864+1063519090+1063963062+1064000370
1779+1063656152+1063141687+1062712079+1062583929+1062695919+1062722387
1771+1062588717+1062469876+1062395792+1062399982+1062512172+1062601419
1762+1062509645+1062179858+1061638659+1061037873+1060572687+1060191160
1754+1059691326+1059010138+1058181714+1057341319+1056656274+1055957730
1745+1055047773+1054141673+1053408348+1052532773+1051284250+1049989509
1737+1048942157+1047925264+1046223193+1043475966+1040374478+1037260620
1728+1033853885+1029922643+1025206136+1019342857+1012541490+1005140068
1720+995750216+980884129+959001340+935103118+913580375+893950166+874965166
1710+856011090+836534237+815637949+793885970+774749610+760446336+749680542
1700+741635840+739151364+745178706+759367596+777091171+794498793+813200823
1690+835343173+858272715+878293362+897702981+921144063+943413964+957377010
1680+965920217+972623958+978658948+984432914+989801413+994054595+997206027
1670+1000088122+1002920407+1005088329+1006621483+1007952735+1009102634
1662+1009904590+1010518610+1011166745+1011890428+1012749843+1013917697
1653+1015355420+1016345645+1016733489+1016991453+1017451785+1018089347
1645+1018594368+1018953483+1019260593+1019513769+1019793546+1020217501
1636+1020660542+1020902678+1021105778+1021434700+1021846751+1022191036
1628+1022190238+1021615654+1020347779+1018239244+1015552135+1012973159
1619+1010661058+1008268224+1005930387+1004409536+1003707400+1003087129
1611+1001627128+998247925+992214265+983742882+973887709+964184961+956153227
1601+950293938+945678715+941006765+935900021+931177728+927941307+926523601
1591+926731156+928666319+932662136+938720534+946389829+954958838+963546070
1581+971227068+977403177+981796347+983770414+982854339+980498812+978517895
1571+978008618+979904211+983934476+988725200+993604971+998214408+1002149241
1561+1005751694+1010233778+1015271826+1018314991+1019893566+1021081970
1553+1021923894+1022386554+1022708294+1023125266+1023662741+1024275032
1544+1025006030+1025983420+1027296583+1028557142+1029098541+1029152209
1536+1029249835+1029722337+1030648853+1031800081+1033051596+1034518247
1527+1036210941+1037851497+1039189865+1040265945+1041038641+1041061850
1519+1039808008+1036967011+1032627641+1027146819+1020600955+1013031681
1510+1004541211+993632104+976721989+957219399+942799878+931034814+918157093
1500+904167711+893504797+893723724+906949853+925132364+941192507+953630247
1490+961327605+961246671+953148368+941266990+929803848+921719045+918849918
1480+920575065+923584846+924451576+921837819+916676941+911652195+909946799
1470+911939819+915350810+918421308+920610711+922524460+925268163+928856650
1460+932062015+931898152+922155303+901881082+882465477+869176769+860788846
1451+856733243+856590595+858590665+860725336+863118170+867572856+874918947
1441+883807568+892391541+900068350+906747286+911935762+915810411+919276400
1431+923006538+927072980+931071656+934697585+937847886+940270713+941686623
1421+942048331+941299909+939521759+937378576+935375447+933436893+931352564
1411+929091072+926905327+925234313+924523465+925128574+927097187+930146670
1401+934102585+938834054+943797353+948377396+952371350+955537811+957635108
1391+959012379+960353939+962170128+964658860+967925474+972229331+977714077
1381+983966398+989986956+994660435+997139990+996635034+992341153+984190645
1371+972757230+958321150+941845232+926012661+913227046+903932092+897797881
1361+894593513+893692069+894260135+895855203+898516243+902612213+908510805
1351+916272871+925485161+935113892+943703318+949959629+953209151+953424354
1341+950844115+945735043+938814569+931370121+924323425+917779623+911538608
1332+905447756+899294990+892710887+885398048+877520001+869854365+863442637
1322+858971260+856487449+855597643+855818897+856934813+859134457+862693152
1312+867559622+873423167+880001152+886989791+893924828+900318201+905856681
1302+910448495+914165399+917142128+919511221+921349623+922549731+922821394
1292+921988847+920222534+917894074+915290825+912488267+909383121+905789048
1282+901483395+896192239+889715072+882213964+874296348+866712443+859997995
1272+854395806+849915982+846308409+843033216+839423448+834915760+829087660
1262+821569926+812102264+800666256+787459279+772803142+757109163+740772967
1252+724039484+707076167+690168846+673737551+658164940+643705251+630633674
1242+619428563+610668624+604721086+601608691+601152682+603132003+607288357
1232+613224789+620321894+627746857+634532197+639657696+642124215+641104862
1222+636217310+627745128+616597808+604018351+591223093+579119197+568183755
1213+558549903+550208134+543091145+537016020+531755156+527318925+524142223
1203+522937526+524365971+528821687+536394685+546829795+559442636+573209100
1193+587056099+600114308+611806951+621859903+630284070+637282817+643098414
1183+647930835+652024676+655795115+659767190+664326883+669547081+675256673
1173+681232608+687294132+693273127+698998214+704345565+709266102+713742201
1163+717776656+721478929+724992135+727949379+728779399+724828672+713780906
1153+695520387+672985405+651221922+634953758+626119469+623321766+623801184
1143+626073848+630638064+638379380+648807474+659936905+669489091+676199482
1133+680615729+685041619+692240007+703450305+717392270+731200365+742300867
1123+749631463+753597553+755162827+754908721+752790077+748582914+742335050
1113+734406794+725351051+715905070+707038327+699824510+694943875+692049144
1103+689784128+686770955+682654836+678204938+674656087+673123465+674381497
1094+678741216+685886802+694852899+704323021+713147667+720742944+727034434
1084+732008306+735477089+737458471+738635636+740148440+742913756+747261040
1074+753124851+760414215+769154004+779307175+790561698+802418935+814389160
1064+825883026+835990843+843707620+848558928+850982353+852091087+853031369
1054+854352113+855689151+855974780+854208467+850254681+844800526+838454170
1044+831224459+823172309+815288809+809218906+805946705+804773464+803553272
1034+799969773+792867680+782812069+771766896+762227745+756162629+754213501
1024+755640251+758956675+762718402+766095743+769164844+772728060+777625986
1014+784159879+792207308+801650895+812370670+823873181+835225662+845455777
1004+853928624+860404327+865011836+868302723+871122306+874127232+877338249
994+880232116+882300484+883481306+884045316+884226802+884171072+884179518
984+884667648+885682081+886691459+887221021+887677229+889196019+892533126
975+897371532+902875031+908606569+914608307+920846662+927014990+932832316
965+938170690+942852615+946644734+949538866+951791114+953583761+954873050
955+955659910+956205033+956830624+957641625+958560759+959532896+960504966
945+961193070+961091454+959889683+957763923+955034917+951606303+947045146
935+941320392+935260331+930156978+927051034+926395251+928063539+931422259
925+935498211+939287736+942067018+943647788+944453136+945174159+946230555
915+947606296+949122758+950690161+952319411+953976127+955411456+956228375
905+956245732+955688307+954857156+953702535+951858348+949077869+945566325
895+941892715+938688081+936549885+936123270+937866972+941540383+946149421
885+950585220+954209286+956815328+958335714+958783610+958363844+957497048
875+956700877+956369627+956639429+957545129+959180830+961349817+963064723
866+962894742+960160948+955580772+950492182+945663419+941108780+936780583
856+932982014+930122862+928403766+927780569+928014792+928670642+929148464
846+928814088+927201331+924289110+920740125+917737992+916213218+916106946
836+916616291+917145719+917766123+918914293+921058806+924570084+929534246
826+935608473+942090228+948119764+953046486+956806484+959806089+962344299
816+964327477+965484225+965556846+964310784+961659720+957852571+953403206
806+948866989+944883874+942383372+942305098+944845369+949169709+953968214
796+958107543+960851046+961993962+961993430+961613633+961245873+960721233
786+959709527+958018762+955555900+952385050+948977383+946152015+944503479
776+943863124+943397139+942309554+940382970+937617321+933352501+926158834
766+914760665+898649248+877562763+850918710+818526495+782353133+747575465
756+721001174+707224668+705920549+713008211+723839510+734582693+742056869
747+745103957+746452965+750840948+760045125+770774476+778115247+780607636
737+781792781+787105352+799264179+816385772+833932317+847671449+855058638
727+855405317+850045197+842261053+836125644+834089596+834484423+832106751
717+823151227+809608213+798120664+794700562+800542893+812003042+823392499
707+830160083+831085867+828580976+826880235+829204372+835695172+843303084
697+847509049+844588515+833306460+815961617+798435023+788029075+789187951
687+800373976+815632362+829462602+839863164+847529465+853635679+858692281
677+862755199+865990224+868652727+870643287+871404277+869815328+864163793
667+854984421+846229337+839738671+835200391+832174118+829531566+825608370
657+820075676+814778933+812482594+815132195+822872780+833933381+845286528
647+853651108+856278631+851753918+841549739+830789731+825544661+828239019
637+836234908+844926482+851202078+854158125+854029908+851334552+846675371
628+840695379+834100902+827871525+823246792+821058453+820870450+821011303
618+819822167+817054590+814055782+812675784+813909609+817001587+819652053
608+819572051+816078662+810387625+804901149+802062481+802980285+806841500
598+812041281+817705119+823689766+829719702+835152310+839317309+841966445
588+843564972+844962061+846607338+848210653+849214245+849430579+849155723
578+848607674+847177134+843516358+836800048+827725219+818056586+809528675
568+803082366+798688731+795666714+793187026+790731081+788266755+786042106
558+784447437+784083734+785491996+788610641+792842010+797657739+802656017
548+807128259+810297181+812163314+813480002+814598444+814843241+813232545
538+809384763+803630748+796789014+789905383+783661973+778101747+773298388
528+770033104+769398867+771597514+775382317+779207820+782417441+785042903
518+787271276+789535694+792600273+796678752+800657278+803081502+804073856
509+805340733+807937066+811228951+814384306+817421286+820534545+823589813
499+826288826+828140329+828781880+828710789+828995753+830102824+831678872
489+833400295+835261640+837100840+838551530+839731023+841491882+844453116
479+848094805+851161711+852769947+852786373+851647780+850641394+851322182
469+853533332+855029045+853697793+849996517+846418005+844759427+845027965
459+846809307+849930613+853213720+854932549+854781920+853758709+852852676
449+852424731+852676710+853927626+855980566+857787711+858355112+857589067
439+855609281+852210925+848024911+845026835+844482510+845595300+846848012
429+847146011+845888244+843453314+841546747+841626417+842904134+843207187
419+841263578+838247613+836500586+837223670+840926409+846820214+852162843
409+854554681+854056043+852039414+849492293+847122336+846072590+847597631
399+851537518+854176812+851179667+845412949+842054562+841680284+842872479
390+845484240+849964995+854999983+857722804+857471889+856957158+857525956
380+857955298+857077262+854988677+853573898+855095813
##END=
