##TITLE=CML-34
##JCAMP-DX=5.0
##DATA TYPE=LINK
##BLOCKS=1


$$ === CHEMSPECTRA SPECTRUM ORIG ===
##TITLE=CML-34
##JCAMP-DX=5.00
##DATA TYPE=INFRARED SPECTRUM
##DATA CLASS=XYDATA
##$CSCATEGORY=SPECTRUM
##ORIGIN=Angelika Moesle
##OWNER=
##XUNITS=1/CM
##YUNITS=TRANSMITTANCE
##XFACTOR=1.0
##YFACTOR=8.3917856e-10
##FIRSTX=3997.453
##LASTX=373.96442
##MAXX=3997.453
##MAXY=0.9010611168369148
##MINX=373.96442
##MINY=0.4617922595871763
##NPOINTS=2559
##XYDATA= (X++(Y..Y))
2559A003725103A004307527A004610885A004347516A003748116A003299649A003345462
2552A003805648A004255038A004431257A004530482A004811112A005133789A005157938
2545A004811893A004396667A004333595A004746903A005179886A004982358A004160643
2538A003446108A003360591A003688737A003995859A004106946A003969579A003587736
2531A003230255A003264205A003673608A004041246A004055664A003787323A003483681
2524A003296524A003214558A003115049A002890034A002628583A002566505A002727808
2517A002868939A002789744A002475945A001997787A001507700A001276932A001458478
2510A001859995A002109941A001992461A001666304A001419271A001236658A000993248
2503A000929466A001360176A001939404A001982518A001353428A000497833I99900279
2496I99714685I99768168I99817248I99836639A000008383A000331913A000606007
2489A000858652A001293907A001889756A002417773A002719782A002845571A002978463
2482A003269747A003760758A004298720A004565144A004368398A003700172A002786050
2475A002185442A002182815A002454068A002655857A002919084A003504563A004228332
2468A004735680A004969929A004980015A004877522A004987472A005404900A005794201
2461A006069503A006570246A007449565A008097335A007573153A006528269A006197211
2454A006361355A006389624A006035126A005418751A004777160A004334446A004267184
2447A004559035A005018582A005608110A006344307A006938026A007115737A007093079
2440A007181792A007248700A007135056A007135979A007447789A007626778A007353252
2433A007227534A007490619A007481030A007039027A006935753A007335779A007510080
2426A006879926A005676580A004786677A004743920A005272079A005983418A006691064
2419A007224337A007355596A006921335A006084632A005398863A005394459A006167663
2412A007268800A008051238A008287404A008296424A008485570A008910740A009288535
2405A009271914A008816274A008266309A007899878A007636367A007209706A006590773
2398A006295157A006827578A007809177A008382935A008313542A008144851A008298910
2391A008492460A008172482A007438272A007008698A007348422A008042004A007846962
2384A006444102A005529411A006264616A007983620A008842412A008098400A007119075
2377A006854214A007168581A007640132A008141301A008732888A009092428A008848094
2370A008163603A007502836A007275832A007693615A008544026A009206072A009313536
2363A009235335A009478959A009884241A009881684A009251458A008370506A007955351
2356A008367736A009134618A009613556A009578042A009152091A008676350A008591614
2349A009092783A009918263A010688413A011195051A011347618A011048948A010241012
2342A009186113A008595734A008836161A009393797A009763353A009967059A010299112
2335A010964283A011881460A012657718A012735422A012154134A011756239A011776126
2328A011679387A011143272A010503742A010096116A009974020A010148818A010534071
2321A010904904A011099591A011107759A011020608A010999867A011119762A011285398
2314A011285966A010801560A009699499A008489903A007762938A007589063A007730905
2307A008021051A008458011A008975091A009321705A009324475A009216300A009515609
2300A010464748A011571212A011991197A011868391A011882099A012120112A012281344
2293A012091275A011657653A011598629A012260391A013100574A013289719A012549685
2286A011237597A009802489A008747092A008671023A009554745A010652828A011327517
2279A011577250A011837068A012366009A013002059A013383618A013279278A012882520
2272A012645501A012685064A012506288A011640677A010573988A010038229A009975227
2265A009870959A009469441A009027722A008969764A009421782A010133689A010821305
2258A011475681A012205842A012846864A013005610A012698133A012393212A012284185
2251A012270832A012294413A012385825A012583636A012862703A013048511A012974784
2244A012809290A012796079A012699908A012124089A011354153A011159183A011628530
2237A012076571A011946805A011232270A010324824A009737215A009740269A010211180
2230A010889989A011561482A011967119A011945953A011712202A011581511A011507785
2223A011295768A011069475A011132973A011546779A012087013A012484411A012590952
2216A012403866A011972162A011340586A010679961A010320562A010450045A010858808
2209A011138726A011107048A010887574A010687632A010608934A010609360A010644731
2202A010768176A010942762A010914351A010553745A010209760A010415597A011305712
2195A012474396A013286878A013341569A012760566A012084456A011784650A011839412
2188A011892682A011768171A011562404A011339591A011074944A010883312A011007255
2181A011514888A012213797A012862490A013284392A013348743A013094678A012821862
2174A012840471A013173803A013581358A013774978A013635055A013337663A013201787
2167A013379427A013771001A014119674A014137005A013765177A013353502A013262374
2160A013330844A013121740A012640458A012394988A012743945A013490869A014213501
2153A014787758A015340351A015777240A015780507A015317622A014749900A014440576
2146A014522186A014881159A015180610A015158094A014986350A015039834A015332963
2139A015495688A015267192A014818726A014539801A014568283A014704727A014867948
2132A015241054A015821987A016304760A016534179A016592421A016529491A016467413
2125A016728154A017384376A017916016A017677932A016654925A015597541A015357610
2118A016112205A017350212A018509024A019338197A019773879A019870760A019791139
2111A019604834A019269229A018910683A018841219A019199339A019795897A020346075
2104A020694820A020822598A020810026A020884249A021325471A022165370A023110248
2097A023872797A024371125A024577957A024532855A024545995A025015983A025948856
2090A026900694A027437732A027485391A027242407A026942741A026770146A026809566
2083A026892952A026660124A025910573A024624906A022521076A018964025A013436391
2076A005833479I96380092I85588193I74199736I62878542I51852822I40798903
2069I29099985I16450224I03398022H91273153H81517047H74955751H71530670H70631250
2061H71635009H74092911H77568563H81627068H86055411H90804869H95577624H99778680
2053I03127123I06016304I08980631I12079413I15063699I17790937I20135620I21814211
2045I22676128I22991490I23190082I23385265I23310260I22734655I21798514I20853779
2037I20058130I19228105I18056863I16453420I14704513I13220610I12075435I10978702
2029I09795528I08834954I08452471I08583020I08861447I09059116I09234625I09566962
2021I10223752I11368074I13103272I15333603I17774245I20215100I22735578I25551600
2013I28667003I31803500I34673574I37187872I39374520I41287287I43078171I45018213
2005I47336475I50058528I52968661I55704351I57996405I59852492I61467512I63011079
1997I64560754I66136994I67718844I69266246I70714494I71941066I72891838I73789482
1989I74980824I76486533I77918090I78921778I79485664I79808199I80086200I80458242
1981I80966301I81469458I81551779I80539568I77804659I73179357I66959988I59598001
1973I51729305I44445590I39089559I36654243I37438883I40972422I46011602I50988347
1965I54922766I57801080I59963295I61537261I62662122I63766384I65252135I67152543
1957I69271076I71376896I73153716I74283620I74799420I75199233I76028975I77358963
1949I78776669I79906572I80770904I81584523I82460432I83413193I84385913I85159045
1941I85462688I85261041I84804051I84429169I84402178I84856682I85727478I86689331
1933I87263374I87185386I86729177I86490099I86778044I87332484I87645785I87496415
1925I87174945I87157897I87510478I87758932I87486754I86843744I86232625I85767609
1917I85326174I84911729I84662352I84574704I84398059I83764495I82436212I80524794
1909I78407611I76338725I74273463I72142784I70074964I68252473I66822408I66044658
1901I66200421I67177473I68357096I69023900I68797182I67802514I66612379I65862615
1893I65768504I66144949I66847835I67889452I69190034I70558163I71887653I73153929
1885I74336464I75460330I76531991I77437945I78159654I78984140I80187059I81591697
1877I82734030I83412057I83871391I84491815I85449335I86615746I87648271I88199728
1869I88207470I88022443I88131257I88680441I89418842I90161717I91079106I92315906
1861I93561655I94344590I94644040I94884042I95348277I95899023I96294149I96521223
1853I96697797I96801568I96678406I96312118I95929849I95812228I96095343I96704332
1845I97346561I97673997I97583295I97238245I96779692I96236972I95715702I95403466
1837I95391675I95649717I96067713I96394226I96302743I95667758I94640419I93364909
1829I91796128I89921218I87981461I86225948I84504245I82372998I79756776I77332114
1821I76023435I76118967I77024637I77838823I77988407I77427575I76564024I75980961
1813I75945092I76188218I76264289I75912348I75022943I73610848I71981196I70665414
1805I70086825I70401619I71584509I73449119I75599544I77598822I79287782I80790863
1797I82164461I83274477I84106136I84904839I85883525I87010160I88121243I89050352
1789I89653516I89852393I89674469I89250081I88736340I88155762I87408909I86575119
1781I86033819I86095897I86678535I87453655I88142125I88644359I89076277I89666230
1773I90465998I91228618I91655209I91600021I90954595I89640873I87956033I86671787
1765I86465167I87354857I88831516I90360167I91614511I92448372I92871553I92994146
1757I92931429I92793778I92699809I92647959I92400357I91654712I90368548I88760276
1749I86944532I84746376I81964377I78612951I74777402I70457872I65773902I61202864
1741I57394235I54717071I53026194I51850336I50799202I49790968I48859018I47787925
1733I46071833I43278682I39436172I35149955I31394951I29070225I28620338I30022489
1725I32982696I37022449I41568627I46174681I50600183I54670051I58258851I61427879
1717I64331975I66923053I68961255I70419447I71712003I73362608I75510688I77846921
1709I79931574I81464131I82443457I83206646I84110256I85107764I85896807I86427879
1701I86914274I87406068I87715250I87733575I87585554I87475817I87481499I87466512
1693I87198384I86594580I85849432I85315590I85247830I85616604I86171682I86693806
1685I87116631I87449608I87762341I88200722I88801472I89372674I89778240I90191832
1677I90819359I91580631I92301913I92985055I93666207I94252538I94653559I94866072
1669I94888304I94755270I94624721I94661372I94906061I95350692I95988518I96728765
1661I97422703I98005624I98486337I98822013I98954479I98942759I98915982I98930330
1653I98969679I99008104I98988643I98878337I98825351I99086164I99698348A000382555
1645A000868169A001194256A001571553A002021512A002334742A002424947A002495761
1638A002709980A002933219A002994942A002975977A003055457A003272872A003562806
1631A003865240A004112841A004214979A004127686A003932432A003778089A003700172
1624A003568985A003289705A002960351A002740948A002679296A002729512A002853668
1617A003056736A003369256A003801742A004299004A004749744A005073629A005303118
1610A005558035A005894563A006221573A006449145A006637792A006867282A007067793
1603A007164532A007230091A007300195A007239963A006994635A006717770A006467967
1596A006107361A005683825A005534383A005805850A006223633A006515200A006730412
1589A006992433A007215956A007257507A007211623A007384930A007923034A008540475
1582A008795108A008644103A008484575A008604328A008901862A009193500A009496787
1575A009912368A010449832A011023165A011493295A011725129A011688193A011490525
1568A011322119A011374680A011742814A012301019A012692734A012572130A011983526
1561A011399397A011216360A011362108A011576681A011834227A012248245A012790468
1554A013319267A013710202A013878536A013788758A013489804A013140633A012982100
1547A013152850A013533414A013891534A014110015A014208530A014308678A014559192
1540A014904598A015071654A014925693A014620346A014373881A014332330A014533906
1533A014819862A014987345A015096372A015408182A016067458A016938182A017584744
1526A017495960A016654854A015713102A015278273A015305263A015465359A015703727
1519A016111424A016615931A017096857A017545040A017946771A018262346A018531965
1512A018744763A018684248A018213550A017604703A017299925A017432249A017809191
1505A018272787A018853648A019563212A020189673A020434931A020254237A019978438
1498A019998396A020320577A020570025A020495588A020258357A020089596A019976733
1491A019848955A019718407A019505252A019097129A018626219A018357238A018363489
1484A018534878A018731552A018834400A018831559A018844983A018926949A018964663
1477A018844841A018500855A017846622A016958922A016288921A016373870A017257379
1470A018367182A019022978A018978728A018518683A018142522A018154384A018533102
1463A019174621A020023895A020802710A020973886A020293089A019078308A017767072
1456A016643348A016058437A016330614A017263417A018210354A018742988A018967221
1449A019126109A019169365A018881349A018320091A017924326A018111270A018830422
1442A019596453A019979361A020004647A019999746A020138320A020306229A020354669
1435A020272491A020110620A019917354A019808185A019940722A020300334A020599714
1428A020568036A020278457A020050175A020098119A020356161A020527337A020347212
1421A019937242A019732683A019946831A020393806A020881480A021370006A021734945
1414A021891986A022146761A022847233A023740758A024281560A024483207A024857024
1407A025517294A025904464A025586262A024935296A024668020A024956675A025361389
1400A025431706A024970952A023991839A022841480A022102511A022104003A022608510
1393A022922664A022501259A021576483A020717336A020148761A020012744A020478684
1386A021261831A021746876A021723012A021520797A021454458A021449699A021199752
1379A020600424A020014733A019951518A020448000A021120629A021807748A022593523
1372A023354582A023853903A024043617A023963073A023664119A023358275A023259760
1365A023261110A023092136A022713844A022319855A022108193A022211751A022666824
1358A023317008A023894532A024271403A024475465A024440093A024038007A023488823
1351A023355576A023833590A024378583A024426456A024183045A024244199A024663900
1344A024948933A024915621A025018611A025652885A026500313A026922926A026841741
1337A026776538A026975840A027026128A026602663A026126709A026255197A027037634
1330A027932793A028407114A028253694A027532340A026548967A025932520A026411172
1323A028073001A029895847A030614857A030173280A029731773A030250202A031536792
1316A032537284A032265178A030801162A029417265A029280821A030392613A032235844
1309A034596367A036966480A038049292A036950072A034402037A032021837A030667702
1302A030119512A030050119A030576431A031746323A033019773A033646234A033430666
1295A032919836A032894054A033703909A034931972A035652757A035296057A034278449
1288A033391175A032712295A031823956A030916155A030722322A031394738A032317241
1281A033005638A033617112A034616467A036117276A037522766A038090204A037899211
1274A037743164A038096809A038730018A039159876A038891961A037347328A034320071
1267A030739581A028386303A028458466A030719552A034249328A038324168A041997703
1260A043873394A043273994A040960420A038542506A037481499A038143971A039720708
1253A041263920A042407531A042920136A042365554A040716796A038803532A037634492
1246A037504370A038047729A038834073A039408188A039143397A037797500A035873795
1239A033814143A031286350A027901541A024218985A021459714A020497648A021382791
1232A023441661A025579514A026856870A027148651A027191338A027738249A028710827
1225A029413500A029485096A029283449A029382390A029995712A030820908A031266107
1218A031079589A030891296A031710596A033699150A035848793A036987149A036808515
1211A035916624A035134471A034921389A035329370A036292430A037734570A039370756
1204A040704934A041454273A041743283A041763881A041592066A041377421A041217113
1197A040887475A040318190A040140054A040966528A042203257A042512794A041615434
1190A040805651A041167891A041870564A041173360A038909220A036820803A036533497
1183A038117265A040468342A042290052A042726515A041817791A040466992A039543779
1176A039327713A040024278A041906291A044595316A047294285A049975923A052949413
1169A055266965A055367184A053253055A050549754A048779112A048651050A049960582
1162A051404710A051854313A051933367A052635188A053068810A051718580A049328225
1155A048548557A050521201A053160932A053873408A052877107A052214777A052473956
1148A052392559A051376796A050398962A050230130A050472050A050384402A049598555
1141A048173817A046475908A044670108A042414350A039740525A037949854A038758145
1134A042568834A047950294A052846139A056101750A057636296A057791278A057095352
1127A056172990A055277193A053973273A051614099A048062730A043936466A040328347
1120A038150151A037640458A038482985A040040899A041576440A042751730A043761242
1113A044726220A045363618A045421933A045063173A044824379A045388408A046955485
1106A048796230A049864197A049677680A048439886A046671801A045052093A044309573
1099A044718478A045856975A047211609A048684930A050095676A050728032A050120961
1092A048800136A047682521A047184477A047091502A046998811A046637992A046123186
1085A045981913A046580886A047599490A048382922A048631731A048567166A048532931
1078A048670227A049079345A049960155A051217695A052236511A052487167A052013912
1071A051182536A050381135A049857876A049514530A049001783A048177724A047345425
1064A046909246A046844043A046607237A045709025A044374279A043357167A043116882
1057A043432314A043756625A043867357A043999823A044357019A044914158A045613707
1050A046463336A047394718A048208407A048732447A048912715A048807594A048596785
1043A048409628A048108543A047449906A046376399A045002303A043568758A042529627
1036A042387573A043284648A044671387A045640839A045888724A045905487A046198333
1029A046791767A047419720A047924582A048319707A048719307A049269556A049883233
1022A050246395A050255700A050219050A050461893A050978333A051556851A051940469
1015A051924133A051592933A051290285A051232610A051411742A051823203A052489298
1008A053194316A053530417A053371529A052943944A052414364A051690808A050702604
1001A049764404A049296405A049379081A049816822A050346899A050867814A051467356
994A052150000A052744712A053122649A053285799A053235583A052914681A052333109
987A051742161A051443491A051426800A051441005A051335316A051139707A050849418
980A050416790A049960866A049664397A049552671A049539460A049582787A049668943
973A049683646A049449824A048944251A048225809A047210189A045796247A044038888
966A042023557A039841383A037794801A036232341A035336615A035194205A035572426
959A036000010A036345843A036761779A037394348A038237870A039085226A039634481
952A039771492A039636256A039388513A039023574A038538955A038138005A038018963
945A038237514A038725614A039338439A039923704A040358534A040581347A040646621
938A040732777A041041959A041506194A041815447A041785758A041566851A041498594
931A041674387A041861118A041808913A041594126A041464146A041377918A040912050
924A039970795A038880951A037888415A036974009A035933245A034821169A034051729
917A033766200A033607666A033111043A032244935A031185207A029767714A027635472
910A024749488A021379595A017723461A014094246A010928415A008353957A006244586
903A004879866A004299146A004071504A003961340A003905157A003742434A003384385
896A003127621A003547393A005254038A008963158A015190767A022283063A027517567
889A030858410A033411773A035615610A037362031A038650752A039761975A040794002
882A041449372A041374722A039907865A034916275A023567664A007378396I92161208
875I82979145I83195210I92489710A005644476A017046641A024883872A030094085
868A033962803A037209038A040080675A042677648A045038385A046983754A048169769
861A048418933A047878343A046819254A045331018A043233864A040267121A036245694
854A031220081A025668653A020123476A014703519A010039791A008062318A009042780
847A010617670A010037518A004731490I93867001I78822482I61792462I46626770
840I37395698I35820737I42157089I52586392I59863004I64935210I71151455
833I79383030I89185943I99557075A009106633A017203114A024464739A031402267
826A037731799A043535801A048958314A052652164A054222650A054631270A054675662
819A054952526A055871692A057591691A060222758A063590023A066983356A069860888
812A072239878A073741822A073020895A068660241A060226096A049377944A039084444
805A030713584A023831246A016450437A000094042I55284367H81921690H15866166
798G69278960G37132256G19978650G21729829G42149204G72709511H02301785
791H26973781H48301737H66777304H79889952H87040418H91444684H95312337
784H97912152H97016710H91593557H83653550H77026483H75326159H81342674
777H96104648I15731995I33371003I47019338I58942276I71184340I83007414
770I90861691I92169234I85562908I65839815I25050573H73402738H35556231
763H13097519G97184974G85474052G80890514G85747721G97629250H11471703
756H23708795H32171777H35116785H31949745H24594009H19792772H25068401
749H39421114H57473075H75502733H91007582I02893301I12160810I20340038
742I27761688I33817836I38435539I42285506I45768120I48759153I51249586
735I53331398I55076612I56662511I58217087I59496928I59603896I56977020
728I50738970I42255106I34328807I29831851I30552566I35883880I43577423
721I51410108I58053085I63538954I68719122I74247893I80003454I85380936
714I90034791I93835963I96543242I97953064I98039930I96562987I92552285
707I84683944I72698218I57713361I41286080I25687333I13625963I06282656
700I03525871I05868780I13463026I23672997I32141448I34848514I29107940
693I15328844H98228791H84810017H80381248H85831675H98001931I12464594
686I25875343I36521422I43712943I46924232I45567752I39399096I28484178
679I12976418H93649302H72523774H52693927H37507495H29576295H29939742
672H37789615H50951058H66822834H83160549H98310900I11239017I21622934
665I29584392I35112380I37929042I37809432I34611851I28032586I17786107
658I04209296H88643649H73249674H60348760H51709062H48277233H50249591
651H57006354H66996922H78011491H87892889H95340393I00307053I03678935
644I06520527I09535568I12969741I16730569I20560365I24196398I27471470
637I30412926I33277815I36349607I39615800I42673671I44852861I45152384
630I42075762I34375685I23098457I12517581I06829709I05008922I01071662
623H90877530H77408255H68208436H68170933H75459549H83695526H87187019
616H84745950H80018440H78627511H84152445H95967849I10468796I24051289
609I34996038I43245157I49277298I53514436I56370304I58118288I58129084
602I53990319I41322446I15210086H74038646H23988856G78903523G52656212
595G49922723G64264215G84559149H03118671H19133922H35986586H55842145
588H76941037H95835454I11092772I23826416I35303658I45305874I52676455
581I56346581I55476709I49254924I37176436I19608740H98058539H75021523
574H53615579H37112014H28298582H28598674H37338166H51912555H69003587
567H85927491I01198375I14334958I25418211I34717539I42551504I49332202
560I55480615I61167137I66249075I70542750I74103352I77225289I80220371
553I83208350I86100727I88700186I90683910I91424015I89710054I83674503
546I71718040I54580486I36526323I23331924I18325134I20554541I26625534
539I33384923I38672060I40767651I38022585I28328486I08659161H77142187
532H37266073G98264661G68770049G50680870G40576373G35150664G33031208
525G33232997G35055204G39436030G48613192G64005959G84760866H08208066
518H31445380H52546474H70721029H85944751H98652115I09465890I18942503
511I27438654I35035387I41632551I47266868I52248728I56943069I61644441
504I66652652I72216936I78359738I84859950I91434243I97920746A004247296
497A010250458A015684407A020402329A024405148A027828027A030944637A033967704
490A036840335A039395971A041540358A043102889A043666491A042519825A038496054
483A029825672A014586395I92322369I66344038I44043149I32921613I34832888
476I44002380I50382200I44217166I18445596H70796815H07701215G45639205
469G03958569F92993648G09028645G40298231G76209526H11530158H45061611
462H76724333I05998050I31891645I52976190I66597890I67837744I50823990
455I15441636H74833300H50707647H54805571H76366355H90977395H80021281
448H42137769G92289909G52106957G35961726G42507750G59410772G74624622
441G82181010G81350842G75120748G69221144G69443956G78141613G93073057
434H09496076H23192355H31932415H35437189H35198821H34177093H35654959
427H41626869H51749406H63428933H72870033H76416003H72180711H62210174
420H52890530H50713329H56363556H64033447H66782277H61491732H48467231
413H27030319G93429188G46947671F99297683F72179717F79711318G15194957
406G58394584G92667420H12617658H20524425H21492812H21097829H23353942
399H29161069H37033103H45443809H54239767H63951907H74540881H85356431
392H95812370I05504978I14058093I21300328I27286870I31941364I34972386
385I36199313I35588264I32749656I26493210I15161504H97786860H75338873
378H51129763H29886400H15768148H10578960H13492715H22255503H34596651
371H48846872H63773771H78256322H91352917I02658272I12359687I20814785
364I28108869I33991782I38157822I40683626I42404690I44768197I48826772
357I54194665I59414466I63474320I66504063I69125470I71852850I74985938
350I78334879I81024046I81855776I79896415I75332197I70433155I68747604
343I72060889I78590222I84850787I88527377I89104119I86808586I81655265
336I72843113I58396289I35682305I03470754H64988694H29194878H07131362
329H04731063H18713582H39860845H59776848H74473476H83395506H87072097
322H85755676H79120157H66713949H49003558H28493767H10055985G99606723
315H01360460H15600737H38680796H64937980H89273732I09162035I24764759
308I37259041I47432220I55583889I61770302I65749752I66580844I62255348
301I51442141I37398610I28032799I28674958I35877062I41253265I40350792
294I35471921I31322148I30459165I32305948I34410560I34187108I29992870
287I20749937I05033782H80953018H46242227G98520785G37909154F70994838
280F10318360E68028274E50290822E56899564E83102768F20738500F60643168
273F96830050G28293327G56509162G82051172H03762818H20326045H31814296
266H39501233H44651072H47938006H49640390H49947157H49270479H48357707
259H47865984H47921528H48310900H48958101H50081257H51957729H54611524
252H57824945H61441374H65392271H69481601H73499761H77413582H81203674
245H84862578H88645211H92749670H96780544I00168123I03018096I05952592
238I09195986I12289796I14530852I14978395I11761850I02422745H86633290
231H68769410H56043081H52810839H57327043H64416071H70218155H73819100
224H75603024H75673554H73459205H66758696H51717301H27804872H03337080
217G90626235G93605336H04385231H12949427H15838181H14920010H12211098
210H07360994G98660070G87673201G78912047G72417162G65516214G56673307
203G45833962G33212328G18498227G01118611F81041447F59605458F39115838
196F21379097F07166805E96579323E89080395E83383716E77639591E70386454
189E62178957E55768666E53834520E57000387E64195389E73959770E84929911
182E95339363F02737254F05418821F04967939F06521734F14868728F30277690
175F49141493F68051749F85889136G02529286G17496741G30332949G40957862
168G49122600G53998771G54664795G51397323G46912655G45808321G51654158
161G64230406G79787671G93934619H04108152H09765128H10938571H06328682
154G92810966G68512006G37402445G09989786F97740976G05067591G27058445
147G54623102G80523445H01855875H18875667H32575994H43630054H52779089
140H60991700H68806273H75776969H80823891H83088598H82298845H78629854
133H72853554H66780075H62947224H63261877H67839235H75116486H82906555
126H89634338H95066014H99706872I03190409I03599953H98865268H89145670
119H78264703H72468941H76022369H87085166H98853052I05477348I06826726
112I07481669I11503239I18638009I25453156I29508250I31746323I34327955
105I37617587I40310518I41314278I40451792I37180201I30254677I20315178
98I11891972I10666323I17998550I29369534I38975205I44857194I48643095
91I52025489I55286995I58304877I60976074I62765679I62944953I61055198
84I56959334I51467356I47053644I46713352I51487954I59216797I66284944
77I70740988I72830897I73325531I73209686I74284969I77914752I82982768
70I86626827I87599547I86957246I85629460I83693467I81486647I79975966
63I80001607I81639569I84387121I87614036I90577298I92441269I92602288
56I91331893I90482547I92475788I97664196A003287077A006186059A006254672
49A005576716A005146574A004620474A004335441A005593620A008963727A013129624
42A015903740A016105600A014460108A011963283A006089320I89359392I54115753
35H97125879H18603561G34643103F89685904G03779083G49500466H00313942
28H44961462H79199637H99708221I04192534H96908535H89087144H89921289
21H99869666I13680086I25961002I32410997I28188349I10176377H82083348
14H53183732H31914303H21307857H19764574H23652754H27248728H22722083
7H05046709G75982523G41925610G10769668F91778086F95748019G22153224
$$ === CHEMSPECTRA INTEGRALS AND MULTIPLETS ===
##$OBSERVEDINTEGRALS= (X Y Z)
##$OBSERVEDMULTIPLETS=
##$OBSERVEDMULTIPLETSPEAKS=
$$ === CHEMSPECTRA SIMULATION ===
##$CSSIMULATIONPEAKS=
##END=


$$ === CHEMSPECTRA PEAK TABLE EDIT ===
##TITLE=CML-34
##JCAMP-DX=5.00
##DATA TYPE=INFRAREDPEAKTABLE
##DATA CLASS=PEAKTABLE
##$CSCATEGORY=EDIT_PEAK
##$CSTHRESHOLD=0.93
##MAXX=3997.453
##MAXY=0.9010611168369148
##MINX=373.96442
##MINY=0.4617922595871763
##$CSSOLVENTNAME=
##$CSSOLVENTVALUE=0
##$CSSOLVENTX=0
##NPOINTS=0
##PEAKTABLE= (XY..XY)
##END=


$$ === CHEMSPECTRA PEAK TABLE AUTO ===
##TITLE=CML-34
##JCAMP-DX=5.00
##DATA TYPE=INFRAREDPEAKTABLE
##DATA CLASS=PEAKTABLE
##$CSCATEGORY=AUTO_PEAK
##$CSTHRESHOLD=0.93
##MAXX=3997.453
##MAXY=0.9010611168369148
##MINX=373.96442
##MINY=0.4617922595871763
##NPOINTS=71
##PEAKTABLE= (XY..XY)
2990.2988247146204, 0.8356642715234317
2974.7169739014853, 0.835311352462488
2733.9065522439405, 0.8346677411091817
450.4571421735727, 0.8311917174965923
3018.6294625566848, 0.8291272509644221
2774.985977114933, 0.8286685341448835
3097.955248514464, 0.8284017433362668
3106.4544398670837, 0.8278413407330775
2872.7266776700544, 0.827820419172398
2895.391187943706, 0.8274584403397206
2765.0702538702108, 0.8267988552225248
3116.370163111806, 0.8260892021949037
1612.0132936982013, 0.8248950234111312
463.20592920250147, 0.822374819982489
2952.052463627834, 0.8190579407095536
2940.7202084910086, 0.8189921969436275
477.37124812353386, 0.8166967028755322
2929.387953354183, 0.814076064878472
859.8348589913994, 0.8129522193281702
3066.791546888194, 0.8106839649961325
3054.042759859265, 0.8104522224800742
487.2869713682562, 0.7944615474641331
3163.115715551212, 0.7860201588586301
1561.0181455824859, 0.7853206984937987
1049.6501325332288, 0.7828878157902173
786.1752006020324, 0.7808213822235024
1399.5335098827209, 0.7802949537643146
2818.898465770133, 0.7792782780295533
796.0909238467552, 0.7787852278975894
1140.308173627834, 0.7706387635619271
509.9514816419073, 0.7642116535756349
3243.8580334010944, 0.7623538364422218
1364.1202125801406, 0.7582195393485257
405.12812162627006, 0.7461028692164327
1349.9548936591086, 0.7387970679476429
1242.298469859265, 0.7373253694573642
1476.0262320562938, 0.734554945639951
539.6986513760748, 0.7321572295531049
3293.4366496247067, 0.730615078666
1250.7976612118841, 0.7285504333887964
558.1135659734164, 0.7241668096314959
696.9336913995307, 0.7156605718244118
966.0747508991399, 0.7139003864030262
1014.2368352306485, 0.7138956181904483
1297.54321365129, 0.7118560668697245
739.4296481626266, 0.711510955526103
980.2400698201718, 0.7000235316887261
1327.290383385457, 0.6961626406482352
1182.8041303909304, 0.6950904121319804
940.5771768412819, 0.6890476937593463
1436.363339077404, 0.6879525179053683
388.12973892103173, 0.6879288547483334
903.7473476465984, 0.6802204844190975
838.586880609851, 0.6753130546356093
820.1719660125095, 0.6710128183734588
679.935308694292, 0.6634765853855216
1449.1121261063327, 0.6553065770561798
992.9888568491006, 0.6455138919434726
1215.3843639093038, 0.6293190707984189
603.442586520719, 0.6258663528527978
1002.9045800938229, 0.6176033014397946
1117.6436633541825, 0.6151440735645005
1500.107274222048, 0.604190646737744
585.0276719233775, 0.5855292674926745
1035.4848136121968, 0.5815454116177868
376.7974837842062, 0.5805253380490362
417.87690865519926, 0.5787696237710183
951.9094319781075, 0.5640788069732675
626.1070967943701, 0.5076761238961879
637.4393519311961, 0.4647660549718912
766.3437541125877, 0.4617922595871763
##END=

##END=

