##TITLE=F. Mohr LL-26
##JCAMP-DX=4.24
##DATA TYPE=INFRARED SPECTRUM
##DATE=12/6/2017
##SAMPLING PROCEDURE=Diamant-ATR
##ORIGIN=Angelika Moesle
##XUNITS=1/CM
##YUNITS=TRANSMITTANCE
##RESOLUTION=4
##FIRSTX=3997.4121
##LASTX=373.82813
##DELTAX=-1.4160156
##MAXY=0.98471051
##MINY=0.27601972
##XFACTOR=1
##YFACTOR=9.1708313e-010
##NPOINTS=2560
##FIRSTY=0.9412958
##XYDATA=(X++(Y..Y))
3997+1026401827+1026617346+1027079516+1027656856+1028081330+1028168941
3989+1027939838+1027521929+1027012768+1026475985+1026050276+1025951225
3980+1026267745+1026786915+1027154324+1027182336+1026919307+1026569576
3972+1026455902+1026823441+1027510685+1028058517+1028227890+1028137874
3963+1027928464+1027632158+1027309919+1027024727+1026783600+1026631450
3955+1026626705+1026699433+1026719451+1026663882+1026604347+1026599408
3946+1026655952+1026815707+1027267998+1028155877+1029168220+1029697008
3938+1029543428+1028941716+1028083864+1027131446+1026471760+1026510756
3929+1027105124+1027582763+1027520174+1027124752+1026884145+1027012313
3921+1027294451+1027580683+1028052212+1028772863+1029322515+1029283908
3912+1028802045+1028246284+1027759936+1027316548+1026883560+1026461491
3904+1026192352+1026420480+1027250580+1028279235+1029233798+1030126097
3895+1030709156+1030656706+1030059218+1029378344+1028999821+1028845461
3887+1028670433+1028513018+1028582756+1028924103+1029390498+1029854098
3878+1030108029+1029953539+1029512101+1028949321+1028155747+1027118448
3870+1026432569+1026786850+1027875624+1028834152+1029423970+1029705848
3861+1029571311+1029119474+1028685251+1028390375+1028194289+1028238549
3853+1028933267+1030181667+1030812041+1030441447+1029639749+1028834802
3844+1028191234+1027730104+1027419629+1027289056+1027452580+1027881799
3836+1028245504+1028319727+1028294769+1028394339+1028619738+1028833047
3827+1028918124+1028875618+1028781312+1028712549+1028800550+1029217485
3819+1029783320+1030045765+1030093405+1030253420+1030458475+1030513265
3810+1030520219+1030648777+1031026845+1031760429+1032509092+1032558422
3802+1031805080+1030795402+1030023212+1029535499+1029404667+1029868397
3794+1030665285+1031117511+1031039844+1030812561+1030708246+1030612705
3785+1030428188+1030321013+1030405245+1030641497+1031134540+1031951186
3777+1032690749+1032936231+1032797534+1032541849+1032307286+1032236378
3768+1032432399+1032734620+1032902109+1032840885+1032503307+1031883592
3760+1031106852+1030439562+1030191611+1030430203+1030909986+1031365202
3751+1031726697+1032013905+1031927723+1031224881+1030380937+1030244646
3743+1030923180+1031122906+1030265574+1029163865+1028793466+1029679200
3734+1031487975+1033122308+1033799087+1033521759+1032689384+1031834977
3726+1031411413+1031600090+1032297277+1033186586+1033746052+1033596827
3717+1032974447+1032363896+1031893211+1031556739+1031647990+1032344333
3709+1033060629+1033394891+1033565370+1033540477+1033155324+1032708168
3700+1032683860+1032868442+1032639859+1031956580+1031310738+1031084624
3692+1031175681+1031177890+1030872875+1030481158+1030230412+1030082356
3683+1030025812+1030110369+1030398421+1031049918+1032279469+1034097863
3675+1035843985+1036361140+1035863353+1035578875+1035847299+1035819222
3666+1034905475+1033645702+1032610612+1031986477+1031796566+1031967824
3658+1032414656+1033190681+1034156748+1034649855+1034275946+1033483413
3649+1033202705+1034089609+1035349512+1035755593+1035259431+1034343670
3641+1033489717+1033028652+1032897039+1032696664+1032214410+1031729492
3632+1031703690+1032339068+1033567969+1034900341+1035310256+1034656159
3624+1033766850+1033107489+1032813652+1033106904+1034115152+1035264761
3615+1035740320+1035421525+1034642966+1033798437+1033270818+1033386247
3607+1034146349+1034878373+1034832487+1034128410+1033576419+1033790183
3598+1034521687+1035052231+1035073809+1034754820+1034318322+1033934664
3590+1033927645+1034772628+1036470784+1037772608+1037489236+1036250845
3581+1035267490+1035041117+1035281659+1035392733+1035097337+1034592466
3573+1034191714+1034017271+1033987114+1033916596+1033701467+1033600401
3564+1033921600+1034324431+1034342305+1034079405+1033947988+1034068551
3556+1034207508+1034199513+1034074726+1033913346+1033834769+1033951627
3547+1034121911+1033940838+1033263864+1032625041+1032619516+1033173003
3539+1033840813+1034343280+1034572512+1034410938+1033891248+1033411400
3530+1033490497+1034282705+1035385259+1036207105+1036474944+1036249025
3522+1035675131+1034973264+1034429591+1034221806+1034334635+1034630617
3513+1034944991+1035155831+1035230899+1035261121+1035477290+1036058139
3505+1036789903+1037132225+1036868286+1036523169+1036640873+1036965386
3496+1036891878+1036329943+1035705483+1035271390+1034895531+1034524287
3488+1034386175+1034633996+1035076539+1035385844+1035377915+1035092072
3479+1034785952+1034768598+1035102341+1035568996+1035908848+1035975532
3471+1035708408+1035188653+1034757680+1034816629+1035378955+1036007119
3462+1036300241+1036257020+1036123263+1036130412+1036432113+1037019006
3454+1037597970+1037817259+1037669138+1037477212+1037498855+1037747521
3445+1038131959+1038535830+1038747644+1038493324+1037660884+1036458110
3437+1035290758+1034519023+1034322157+1034664414+1035282764+1035787440
3428+1035957139+1035929646+1035998670+1036313889+1036787823+1037077955
3420+1036722830+1035693849+1034631917+1034034949+1033592927+1032792399
3411+1031700635+1030655991+1029687454+1028716253+1027826229+1026967922
3403+1025832872+1024279132+1022603334+1021318863+1020831930+1021229952
3394+1022200048+1023240272+1024118078+1025131135+1026753573+1028961865
3386+1031093334+1032455147+1032912183+1032835035+1032737415+1033055884
3377+1033947793+1035123594+1036007639+1036154915+1035522656+1034447854
3369+1033445196+1032987186+1033322358+1034300384+1035365891+1035976182
3360+1036107534+1036150495+1036311159+1036382003+1036136066+1035652903
3352+1035153556+1034788682+1034697950+1035009595+1035615337+1036144581
3343+1036300825+1036082187+1035643609+1035158366+1034852440+1034939142
3335+1035397023+1035953954+1036394481+1036748177+1037067686+1037173561
3326+1036839558+1036202295+1035769307+1035896305+1036357630+1036571264
3318+1036261764+1035727321+1035396308+1035360041+1035508682+1035810253
3309+1036179807+1036327863+1036057944+1035578485+1035307786+1035461692
3301+1035912553+1036338457+1036443032+1036144321+1035663237+1035369335
3292+1035447588+1035795174+1036262024+1036761176+1037112467+1037156208
3284+1037112467+1037418847+1038114150+1038759668+1039007814+1038901614
3275+1038592049+1038090558+1037443415+1036958172+1036998793+1037549940
3267+1038218335+1038679011+1038879126+1038827781+1038542394+1038210731
3258+1038075479+1038131179+1038165365+1038070864+1037936652+1037858660
3250+1037787297+1037614089+1037378226+1037279761+1037464083+1037914750
3241+1038580155+1039368919+1039957242+1039896538+1039086456+1037951861
3233+1037069051+1036783989+1037155038+1037981953+1038837660+1039337072
3224+1039489027+1039618040+1039892248+1040109327+1040011967+1039644297
3216+1039267594+1039083467+1039160874+1039460885+1039846038+1040195379
3207+1040496105+1040740871+1040878983+1040938257+1040981413+1040936048
3199+1040708050+1040399329+1040194469+1040138315+1040152613+1040167887
3190+1040213512+1040389580+1040622843+1040555119+1039999683+1039362355
3182+1039202405+1039516585+1039815881+1039714101+1039184077+1038443538
3173+1037807315+1037484816+1037345924+1036991969+1036244801+1035502768
3165+1035382659+1035976832+1036692218+1036945953+1036805762+1036744278
3156+1036944848+1037169791+1037234460+1037276576+1037493070+1037853785
3148+1038169330+1038286124+1038147102+1037742256+1037098623+1036377973
3139+1035920547+1035990480+1036453951+1036904747+1037101938+1037059822
3131+1036785809+1036255460+1035631715+1035228754+1035182608+1035277434
3122+1035132693+1034562633+1033763016+1033131472+1032893140+1032917512
3114+1032876891+1032559917+1032046726+1031567658+1031200053+1030799887
3105+1030256604+1029649758+1029128508+1028786771+1028645800+1028600759
3097+1028450104+1028089844+1027592122+1027057743+1026520115+1025977288
3088+1025375121+1024597926+1023585519+1022399059+1021087745+1019544339
3080+1017579449+1015123077+1012254254+1008998458+1005279193+1001230474
3071+997420217+994572517+993135961+993157084+994359533+996226087+998218990
3061+1000088469+1001893215+1003658509+1005132697+1005979890+1006172336
3053+1006025841+1005814416+1005550671+1005263529+1005277438+1005918081
3044+1007029604+1008124098+1009012887+1009946392+1011066818+1012087415
3036+1012702775+1013027809+1013388784+1013853684+1014181773+1014136992
3027+1013693865+1012991738+1012207458+1011452556+1010719492+1009927544
3019+1009004568+1007914558+1006646921+1005203605+1003567908+1001724231
3010+999740688+997740831+995687094+993287591+990291836+986902803+983762372
3001+981443526+980024128+979182199+978538826+977810247+976761118+975135885
2991+972604705+968801727+963564078+957201323+950565009+944889367+941363718
2981+940500861+941826993+944238910+946597857+948054757+948144578+946748188
2971+943894963+939585620+933706873+925909121+915581749+902056361+884600672
2961+862137023+833571438+799062892+761150950+724784753+696250235+681123597
2951+681699701+695406812+715750431+735615177+750608968+759927118+764699022
2941+766035163+764445026+760163760+753269421+743692336+731736157+718632578
2931+706294560+696529383+690470539+688341669+689401262+692208796+695256806
2921+697640256+699416859+701458702+704830511+710182354+717621665+726931496
2911+737709210+749321183+760916582+771702355+781312587+789887728+797758013
2901+805089369+811816869+817860571+823428453+829090641+835368514+842167182
2892+848822084+854782658+860008088+864598140+868378045+871041747+872466150
2882+872680369+871613952+868892535+863762061+855170996+842013082+823661000
2872+801063983+777829443+759577192+750983657+752838188+761953492+773757912
2862+784985187+794626355+803243613+811754995+820650231+829878754+839105328
2852+847949348+856090722+863359750+869804657+875520400+880318756+883681596
2842+885027031+883921098+880231209+874421876+867738766+861935022+858645495
2832+858748965+862064165+867624572+874305602+881242447+887847174+893718901
2822+898656864+902708638+906159479+909432238+912944239+917022270+921896604
2812+927640229+934043865+940623505+946872846+952536918+957587840+961995585
2802+965695742+968778589+971507091+974116329+976712243+979302762+981799951
2792+984067322+986043651+987764620+989293597+990716440+992127908+993533787
2782+994829307+995932381+996862376+997660824+998311996+998834675+999403500
2773+1000212607+1001180884+1001995515+1002537303+1003043669+1003736632
2764+1004520781+1005178517+1005642768+1005944533+1006101753+1006220692
2756+1006528827+1007108246+1007703588+1007966553+1007827596+1007548448
2747+1007490994+1007840725+1008436133+1008882964+1008933530+1008691103
2739+1008380498+1008079122+1007748629+1007363541+1006881353+1006169542
2730+1005044175+1003363633+1001142017+998724446+996860491+996385777+997630862
2720+1000155608+1003106843+1005755662+1007729586+1008993974+1009799896
2712+1010537835+1011469585+1012565964+1013637190+1014573295+1015381622
2703+1016031494+1016436665+1016640485+1016855094+1017231408+1017706187
2695+1018125397+1018407144+1018561309+1018660165+1018791517+1018962386
2686+1019085809+1019127665+1019182064+1019334020+1019554933+1019809124
2678+1020160610+1020672695+1021243665+1021613025+1021594176+1021307034
2669+1021111923+1021249840+1021600871+1021847197+1021812295+1021597621
2661+1021422983+1021404460+1021523593+1021753736+1022083709+1022441499
2652+1022727537+1022896001+1022913484+1022748855+1022503893+1022406793
2644+1022588125+1022977048+1023433239+1023858623+1024182746+1024346075
2635+1024313514+1024077911+1023661042+1023145187+1022692700+1022480951
2627+1022573047+1022867598+1023207256+1023514416+1023818781+1024192690
2618+1024665650+1025175850+1025594995+1025796735+1025763134+1025661938
2610+1025749225+1026085372+1026406181+1026405726+1026142502+1026035587
2601+1026419180+1027188641+1027962391+1028503009+1028844941+1029089317
2593+1029254401+1029330184+1029353647+1029373535+1029391603+1029404082
2584+1029497348+1029765317+1030095550+1030244516+1030187646+1030151640
2576+1030258619+1030449896+1030809051+1031612633+1032929276+1034413798
2567+1035629245+1036371929+1036607011+1036339302+1035728686+1035127364
2559+1034799990+1034751375+1034946161+1035444793+1036176167+1036833449
2550+1037154323+1037141064+1036960252+1036825715+1036947188+1037346249
2542+1037777613+1038034533+1038206701+1038446723+1038671276+1038704163
2533+1038562802+1038432424+1038437754+1038504048+1038399083+1037968759
2525+1037362238+1036909752+1036769170+1036806997+1036833969+1036849242
2516+1037017186+1037420797+1037924564+1038368666+1038801524+1039332328
2508+1039847403+1040098928+1040008717+1039718260+1039422799+1039253880
2499+1039211569+1039150930+1038924557+1038565467+1038221000+1037907015
2491+1037483646+1036945693+1036557746+1036522064+1036650167+1036595377
2482+1036300695+1035990805+1035803429+1035631585+1035327804+1034930238
2474+1034653495+1034685212+1035002641+1035369010+1035490289+1035241753
2465+1034820139+1034615148+1034833202+1035301547+1035674416+1035723226
2457+1035423670+1034977358+1034805645+1035277434+1036305830+1037379786
2448+1038101931+1038528485+1038872692+1039112649+1039104720+1038891605
2440+1038633970+1038386799+1038165820+1038086788+1038251547+1038628901
2431+1039139036+1039704612+1040191220+1040461398+1040503579+1040424092
2423+1040318542+1040185110+1039986879+1039814906+1039876000+1040200839
2414+1040486681+1040389125+1039899333+1039339477+1039038751+1039042976
2406+1039132537+1039086391+1038842015+1038463751+1038106546+1037911305
2397+1037804195+1037599725+1037369972+1037396620+1037732962+1038152042
2389+1038488514+1038745759+1038966868+1039210399+1039557856+1040024706
2380+1040500070+1040774603+1040660409+1040210458+1039814126+1039896538
2372+1040442485+1040923504+1040835112+1040341940+1040212797+1040945212
2363+1042094171+1042708686+1042410625+1041796499+1041620431+1041848624
2355+1041931946+1041723382+1041488169+1041273170+1040915510+1040437091
2346+1040066042+1039975895+1040027305+1039888154+1039608551+1039676859
2338+1040247439+1040778633+1040771094+1040476087+1040494935+1040953791
2329+1041375015+1041237748+1040492270+1039591198+1039145926+1039457635
2321+1040215787+1040782467+1040881193+1040754195+1040612834+1040335441
2312+1039850522+1039436188+1039364824+1039565460+1039888349+1040390165
2304+1041135903+1041961584+1042576229+1042792073+1042667610+1042487513
2295+1042537298+1042907437+1043554970+1044378310+1045127168+1045504716
2287+1045500817+1045416130+1045511866+1045848663+1046461294+1047427295
2278+1048679139+1049901346+1050690890+1050877292+1050691800+1050446189
2270+1049979664+1048763241+1046780738+1044923282+1044185474+1044780621
2261+1046140160+1047390379+1047851444+1047568592+1047302507+1047659583
2253+1048378674+1048667376+1048041161+1046790292+1045765926+1045602597
2244+1046158943+1046974874+1048067874+1049774804+1051880210+1053388519
2236+1053420756+1052262763+1051222344+1051280123+1052145450+1052894697
2227+1053195358+1053375391+1053451563+1052794542+1051072013+1049152294
2219+1048520945+1049708575+1051631284+1052750346+1052683598+1052303709
2210+1052485627+1053399958+1054811427+1056295819+1057307121+1057668291
2202+1057832400+1058359564+1059363977+1060494023+1061222668+1061340436
2193+1061226242+1061262379+1061110878+1060061880+1058192790+1056777162
2185+1057024918+1058494426+1059530686+1059365732+1058723074+1058365999
2176+1058439571+1058981294+1059750040+1059908560+1058867555+1057122214
2168+1055899682+1056305243+1058571639+1061667810+1063928031+1064521359
2159+1064111378+1063786800+1063692169+1063370970+1062775173+1061946568
2151+1060520865+1058301720+1055853731+1054050481+1053276145+1053246638
2142+1053479251+1053806429+1054341132+1055147445+1056277815+1057863532
2134+1059639226+1060751398+1060563501+1059330700+1057838964+1056696245
2125+1056018555+1055606885+1055365823+1055439461+1055822404+1056064571
2117+1055634118+1054584209+1053681446+1053634066+1054187032+1054362970
2108+1053709198+1052766985+1052065247+1051347262+1050313147+1049448145
2100+1049373792+1049896797+1050430915+1050900170+1051556476+1052367143
2091+1053033654+1053241309+1052885663+1052360969+1052207324+1052341081
2083+1052285576+1052040225+1051941694+1052051469+1052395155+1053239229
2074+1054543848+1055726019+1056297313+1056330655+1056303163+1056785156
2066+1058025042+1059600164+1060688094+1060742949+1059669383+1057696563
2057+1055704311+1055095385+1056317786+1057912797+1058202864+1057482084
2049+1057382059+1058616419+1060329979+1061277717+1060830755+1059310357
2040+1057812382+1057244337+1057580159+1058426248+1059772918+1061610875
2032+1063301687+1064165778+1064499131+1065054632+1065614358+1065286920
2023+1064353675+1064453050+1066546108+1069687060+1071962750+1072150647
2015+1070525544+1068255963+1066374330+1065563468+1066247982+1068148918
2006+1070069418+1070664760+1069359361+1066730170+1064299730+1063418025
1998+1064114238+1065555214+1067199880+1068674978+1069328879+1068994097
1990+1068417927+1068058382+1067474284+1066347942+1065211332+1064961041
1981+1065966299+1067691233+1069313281+1070628364+1071879948+1073024227
1973+1073741823+1073676764+1072717977+1071604375+1071493690+1072319435
1964+1072849524+1072606838+1072114315+1071583642+1070559146+1068652425
1956+1066145032+1064002969+1063151031+1063578690+1064423933+1064879604
1947+1064874990+1065002767+1065700865+1066502757+1066592514+1066145877
1939+1066103761+1066676291+1067054424+1066635085+1066055666+1066311286
1930+1067055919+1066970127+1065814669+1064742273+1064500821+1064621644
1922+1064491137+1064222258+1064021102+1063457347+1061993493+1059908495
1913+1057894599+1056209572+1054859977+1054137312+1054394362+1055486387
1905+1056807514+1057690454+1057794444+1057339423+1056751100+1056089204
1896+1055133341+1053905999+1052855246+1052533072+1053181839+1054545993
1888+1056018230+1057140347+1057872436+1058393166+1058790148+1058921110
1879+1058692462+1058301980+1057964012+1057740694+1057769161+1058154119
1871+1058706241+1059179980+1059597110+1060068184+1060551152+1060987390
1862+1061393016+1061783368+1062009937+1061830294+1061369553+1061102234
1854+1061120627+1061046795+1060802223+1060785065+1061259259+1062071876
1845+1062858495+1063296162+1063373310+1063319040+1063211735+1062991472
1837+1062591435+1062063296+1061760556+1062072265+1062822228+1063178849
1828+1062440325+1060791889+1058846952+1057014129+1055302195+1053611188
1820+1052235466+1051623030+1051778040+1052329317+1053008956+1053753784
1811+1054577515+1055359129+1055769239+1055658165+1055242530+1054780230
1803+1054407686+1054173449+1053954940+1053592535+1053144663+1052713495
1794+1052329512+1052048544+1051767901+1051270244+1050679906+1050126160
1786+1049375222+1048172123+1046474877+1044259696+1041605743+1038764802
1777+1035790820+1032591504+1029072094+1024693272+1018866195+1012386126
1769+1006467148+1001422790+997487355+994748195+992874361+991821073+991796505
1759+992584099+994078500+996354190+998849819+1000996106+1002899903+1004450458
1749+1004921532+1003966774+1001530550+997355548+991352533+982766018+969338510
1739+950211118+928393116+905650838+879121117+849021420+826323338+815942151
1729+810143931+800860163+782885565+751953623+705965497+650418808+594904097
1719+543312894+496136747+460680073+443282456+434482631+423245705+406050089
1709+383673173+358480242+333786041+313976214+302477980+300975683+312543135
1699+337272044+364782131+388776447+410890853+428160367+438757463+446980956
1689+457074091+469099944+482452514+503113336+539488339+580414332+608959769
1679+628658456+646343962+665476813+688116596+711449862+728719213+738383129
1669+744396153+750809929+759028775+769542744+783595296+801330133+819278994
1660+833412853+843462962+850907148+857339511+865984261+879737907+891002619
1650+894677689+895080910+894913291+893455287+889507373+883800275+877167146
1640+870192344+863289946+855421027+844373524+832280662+824867999+823311074
1630+827349849+837493679+852046488+866921080+880056701+891556755+900424043
1620+905696659+908439849+910269097+911686675+911847080+910162118+906375388
1610+899331109+886835741+866577394+836637776+795418694+743530827+687567594
1600+640066544+612613846+609445077+627303142+658388988+693908186+727899577
1590+758501416+785668401+809027469+828078493+842933848+854044785+861739261
1580+866316054+868139648+867177871+862730610+855327501+847789204+842084510
1570+839400139+840827467+844948458+849008096+852571247+856191332+860046045
1560+865845434+879345800+901185380+916929199+925094750+931261094+936755338
1551+941361443+945121395+947881938+949424889+950042395+950325052+950854361
1541+952626805+956261774+959572944+961277859+962561875+964678720+967554433
1531+969860670+971201490+972355454+974026572+976129184+978126701+979985067
1521+981875864+983341927+984053803+984383907+984614114+984647001+984432262
1511+984046134+983550882+983222144+983655587+984413349+984320668+983520140
1501+982329390+980777470+978916180+976946610+975074986+973296953+971374503
1491+969043309+966251698+963202193+960031019+956729923+953237031+949347612
1481+944908086+939986176+934548217+928267743+920609728+910197019+894239566
1471+871552598+844945339+816049131+783939893+749361284+717940785+695543104
1461+680758982+668869551+656781759+643977021+634178437+630224089+630284599
1451+632495295+635796261+639761073+644806991+651625287+661199122+675207933
1442+694198123+715972905+738043537+759316827+776111074+782794444+781186304
1432+778532610+780794457+789099939+799012587+806210706+809743635+810275543
1422+809181569+808478402+810280093+815361952+822264675+829888438+838418214
1412+847701917+856698088+864413103+870880368+876968070+883274800+889338325
1402+894574024+899521346+905162866+911509567+917605848+922516839+925132836
1392+924300202+919364773+908615852+887899819+854059083+811050659+768019161
1382+734104528+717321979+720614821+737460544+756212532+769314421+778486660
1372+791499507+812334414+837543204+860075682+874491419+881305686+885859926
1362+893465296+904978023+917140753+927501207+935817154+942420971+947502635
1352+951184789+953405430+953844852+952128498+947871864+940613106+930012825
1342+915904183+898208928+878085962+859663037+848123857+845338551+849150237
1332+854791562+856439738+851026931+842568128+840521411+851385241+872699282
1323+896399177+916347050+931086716+941436771+948186629+951810354+952651632
1313+950812505+946075178+937993144+926436025+912817566+900798212+894477378
1303+894926550+898843136+900800487+896160000+881456406+852817638+805435006
1293+736527039+650970085+564049628+496003315+461027789+460349417+485334986
1283+525499480+572406131+618629210+657306973+684526408+701483140+713513542
1273+726589694+743888033+764680694+786041400+805472702+822019129+835756137
1263+846994136+855739041+861234780+861734712+855517607+843644359+831819337
1253+827503949+833725863+846690420+860173627+870955631+879498535+887262100
1243+894969640+902791050+910762400+918675840+926031309+932345709+937397411
1233+941186740+943866951+945716217+946984115+947711070+947761700+946960977
1223+945035343+941348250+934654936+923163851+905499338+882899462+860828374
1214+846858169+845186660+853049471+862881266+867229606+860880889+839669343
1204+800151407+743110903+678309369+623652444+595886867+600049195+627765702
1194+665113564+701444143+732468246+758460145+781438220+803257586+824623557
1184+844893864+862775456+877421141+888909691+897843728+904781872+910042139
1174+913799816+916288491+917918468+919142885+920217816+921142027+921800738
1164+922120572+922074882+921570010+920398499+918310835+915120749+910864310
1154+905969308+901130460+896818127+892812434+888089990+880979872+869402866
1144+851576453+827904310+803182584+785867607+782952248+794712732+814894322
1134+835841863+852990976+865410756+874042702+880200142+884881380+888424188
1124+890354826+889553389+884626735+874121345+856436943+829770410+792598161
1114+745171399+691852955+642210036+607904206+595976688+604031945+621772306
1104+637011774+640936679+629874878+604575488+568963088+529102765+491943645
1095+463540609+447480401+444498684+453252688+471292605+495299693+520656603
1085+541814821+554694107+559696869+561998231+567933653+580582406+598510794
1075+617763233+634161214+644717104+649203101+651162336+655968882+666717674
1065+682156152+698537689+712716329+723420015+730608646+734617328+736088006
1055+736169053+735971797+735446128+733015688+726523010+714325834+695425660
1045+669177166+635802825+597624734+559614002+528246635+509139391+504956460
1035+514905309+535851680+563850292+595156078+626765514+656698892+683881735
1025+707692575+727612955+743139500+753697015+758451241+756260757+745874501
1015+726165480+696387697+656911876+610572068+563523309+524088986+499492795
1005+492397171+499835052+515496914+533661359+551851672+570551470+590907503
995+612950383+635676478+657969714+679010586+698275635+715624213+731283215
986+745593208+758800647+770987749+782078018+791994045+800851974+808926144
976+816443512+823456855+829884799+835675089+840964668+846057641+851200659
966+856340298+861135404+865339458+869147245+872982980+876882213+880104472
956+881213200+878048590+866852187+842151259+801371014+752762340+715797357
946+707894185+729885265+767009354+802917279+829956617+848230576+860012118
936+866404185+866485233+857588567+837875907+811186560+788666366+782056700
926+794020159+816754442+840001526+858229145+870869579+879326692+885135571
916+889319866+892064616+892738861+890129233+882858776+870499960+855130895
906+841541423+834730406+836409388+843857864+851780273+855072660+851382382
896+843015025+835847323+834326340+837061795+838028967+831979091+818735191
886+803632600+794575075+797338673+812036678+833597435+855673072+874246978
877+888370243+898806740+906664936+912867871+918026358+922387046+925978664
867+928864451+931204810+933167165+934890603+936475410+937957657+939349563
857+940724895+942204282+943803907+945353098+946666556+947747921+948731016
847+949763701+951031534+952639609+954376371+955838210+956801027+957344114
837+957721468+958135868+958480204+958381414+957604349+956267493+954757104
827+953686397+953740732+955209395+957701709+960451984+962891133+964908018
817+966621513+968092581+969342670+970382049+971083917+971279353+970943725
807+969997417+967888825+963446764+955512721+944664359+934458460+929673038
797+932410638+940237767+948321426+952910892+952702652+947485737+935499205
787+910404934+861121886+781838581+688907050+621333014+612136467+658957228
777+729755538+793852085+839982158+870338840+889856390+902752314+912086192
767+918625925+920630071+916056658+906318649+897717705+896964883+904261403
758+912217414+912377299+902239968+886541710+873353704+868986516+874926097
748+888138605+903849538+918205935+929111167+935691846+937421914+933231639
738+920447894+894892948+855305533+810071398+775898480+765011577+775291503
728+796041854+819813827+844638958+868907873+889598559+904592091+914186399
718+920618112+926537740+933360651+940725090+947443686+952819706+956971310
708+960298014+963082280+965419389+967231544+968561575+969786837+971065653
698+971544397+968778069+958674211+938691956+914141618+898446610+901908890
688+921095881+943350771+959755121+969539081+975129971+978375952+980568125
678+982554658+984446235+986180983+987973380+989864827+991548489+992776871
668+993414979+993378647+992763157+991204543+986953953+975435961+948164726
658+897882789+831558972+776077018+760202171+788461636+839176431+887206076
649+921671596+943704922+957443554+966254493+972330951+976604223+979416761
639+981323092+982966718+984591106+985960264+986756892+986886945+986107150
629+983433763+976158756+957553134+917823252+855430126+789832744+754040767
619+767121728+816417775+871247647+910898626+933516311+944723763+949005680
609+950072812+951432090+954547304+958132748+959535897+956311364+945819038
599+922822439+880261172+818175010+753452898+715138125+723055530+769687030
589+828115475+876275302+906304675+916821049+906131337+873023081+823030691
579+773120128+744542649+747904385+776276288+813182258+846243653+871846435
569+891038170+905607098+917038843+926523572+934778294+941932088+947902346
559+952766801+956720564+960112782+963483096+967000621+970029328+971793258
549+972391395+972760300+973577271+974551397+975069526+975121001+975034625
540+974720640+973764193+971935139+969092899+964916987+959462649+954126145
530+951437160+953266213+959153799+966415418+972379761+976512842+979775592
520+982936041+985970338+988400063+989891734+990495136+990440931+990029131
510+989698638+989911297+990825759+992155531+993291036+993373578+991626287
500+987942703+982455998+974889689+965927705+958900714+957800435+962695632
490+969032715+972552775+972593591+970703833+969030115+969620908+973045167
480+977953623+982518197+985524156+986509461+985751699+984009543+982014300
470+979983962+977228943+972592811+966411518+961593338+961032183+964487379
460+969467523+974320344+978698256+982121930+984267438+985486590+986170584
450+986715816+987630668+988954590+990062018+990281632+989128318+985953895
440+980030432+970340713+954551529+930090427+899255261+872254725+861256358
430+870839032+894072207+918914822+938409428+952480959+962522814+968511530
421+971315229+974649277+981244515+988079449+992204146+993265948+990990063
411+985245918+976985866+968348916+962837513+963683732+970007036+976861858
401+980349551+980305031+978091929+974789144+971887109+970283064+969669393
391+969837272+970746339+971537638+970889780+968670180+966672923+966427051
381+967593169+969807895+972887037+973156176+961599383+938196314
##END=
