##TITLE=CRA-29
##JCAMP-DX=4.24
##DATA TYPE=INFRARED SPECTRUM
##DATE=10/7/2020
##SAMPLING PROCEDURE=Diamant-ATR
##ORIGIN=Angelika Moesle
##XUNITS=1/CM
##YUNITS=TRANSMITTANCE
##RESOLUTION=4
##FIRSTX=3997.453
##LASTX=373.96442
##DELTAX=-1.4165319
##MAXY=0.87350255
##MINY=0.42972717
##XFACTOR=1
##YFACTOR=8.1351265e-010
##NPOINTS=2559
##FIRSTY=0.79329872
##XYDATA=(X++(Y..Y))
3997+975152291+975172586+975108403+975059607+975218965+975543324+975723344
3988+975643555+975640844+976060451+976728511+977070307+976680447+975712720
3978+974802142+974576109+975108916+975899187+976436244+976562119+976314911
3968+975839547+975453936+975456281+975856765+976420784+976873948+977027738
3958+976891020+976754081+976993375+977638063+978252417+978413680+978194022
3948+977931209+977697630+977426391+977264028+977335099+977440532+977392321
3938+977272454+977160427+977033014+977013964+977369535+978034884+978463063
3928+978280405+977730307+977322863+977260438+977372099+977600916+978114966
3918+978909413+979611983+979788632+979378696+978739797+978314402+978228898
3908+978223549+978058696+977889153+978184937+979121891+980116654+980432440
3898+979982134+979246081+978741556+978864280+979756468+980697305+980466657
3888+979173252+978196733+978446578+979258170+979731996+980216446+980779439
3878+980474277+979349316+978591429+978702211+979201387+980101121+981691995
3869+982681336+981902641+980501752+980095260+980652538+980978655+980688733
3859+980130575+979488819+978881791+978734815+979357229+980025069+980205602
3849+980189116+980043606+979538055+978623521+977678287+977264028+977761959
3839+979150100+980723682+981563409+981642978+981472630+981172816+980628433
3829+980135924+980140906+980355435+980081046+979550950+979737931+980382252
3819+980130136+979515488+979984845+981203296+981777279+981590079+981304406
3809+981351004+981796622+982118856+981819701+981561431+982274844+983344267
3799+983428599+982873152+982542199+982378298+982076433+981797061+981727457
3789+981761233+981805267+981953782+982198864+982371924+982626018+983435193
3779+984751970+985665258+985493225+984392443+982843405+981536300+981188862
3769+981607516+981728702+981322723+981017194+980903335+980740973+980928540
3759+982017452+983418121+983840806+983089000+982140543+982363059+984271916
3750+985626866+984282906+981738154+980708881+982070132+983343681+982779222
3740+981332321+980238353+980139294+981219854+983058081+984549237+984825678
3730+983999725+982915135+982495747+982973530+983674487+984087060+984453475
3720+984941368+985240596+985037276+984398011+983944187+984709767+986887300
3710+988657460+988751537+987991965+987185062+986517368+986108312+985904699
3700+985496668+984818204+984319760+984174250+984019434+983605468+983390353
3690+984154321+985598071+986270381+985900450+985402152+985354308+985571329
3680+985415414+984629026+984100175+985176852+987016178+987392118+986773001
3670+986771169+987257377+986783918+985359803+984152489+983987635+984782156
3660+985832823+986783039+987836563+988735638+988585291+987395928+986279100
3650+986471136+988311634+990028969+990011897+988945844+988090584+988115056
3640+988876239+989621084+989715381+989269763+988829861+988528362+988218144
3631+988533124+990448942+992505069+992185326+990242106+988373619+987246460
3621+986950896+987248292+987301045+986613569+985851433+985754353+986214404
3611+986778423+987339951+987697646+987426114+986709990+986225761+986250745
3601+986535759+986850079+987292326+987985078+988837774+989558953+989768134
3591+989393220+988978815+989269323+990047945+990178216+989541662+988969290
3581+988872283+988927967+988737249+988456632+988515613+988893018+989114508
3571+989015376+989048493+989657425+990430772+990435974+989649146+988715196
3561+988059005+987861767+988033068+988115788+987755235+987274229+987336727
3551+987973501+988569026+988833964+988967898+989109745+989237452+989343764
3541+989272327+988773517+988000757+987574556+987897009+988658706+989261557
3531+989428755+989267125+989027172+988886937+988904155+989067469+989288080
3521+989483560+989757949+990264892+990840341+991027908+990560237+989693766
3512+989075822+989234521+989950498+990406740+990249360+989938043+989885583
3502+989867339+989657865+989572801+989952550+990692193+991440775+991918923
3492+992006918+991759858+991335708+990857266+990492903+990555401+991169389
3482+991938339+992356115+992471073+992657027+992944679+993068868+992963802
3472+992817265+992773084+992889947+993223757+993667763+993869763+993580134
3462+993015529+992654829+992706337+993009814+993368316+993673844+993791000
3452+993650618+993386633+993102425+992655562+992004940+991531627+991586652
3442+991987356+992291565+992279476+991947131+991352853+990686698+990129419
3432+989491033+988378015+986774027+985069734+983508315+981961622+980247878
3422+978377706+976428477+974352348+972029525+969462206+966774067+964081899
3412+961511942+959209853+957159148+955168377+953174235+951353373+949895041
3403+948903429+948486166+948653731+949099568+949327212+949171884+949053995
3393+949431839+950107886+950489760+950446458+950431658+950830897+951571199
3383+952323810+952828922+953017734+952977876+952931058+953195776+953924282
3373+954809509+955339531+955348397+955041843+954627291+954251351+954144307
3363+954502955+955244649+955961432+956129583+955485482+954266078+953013191
3353+952133240+951688795+951495953+951297029+950927025+950439351+950042604
3343+949862071+949814959+949692528+949257608+948350986+947167997+946313323
3333+946250312+946787442+947330726+947486641+947272698+946953321+946740257
3323+946548661+946133083+945520194+945061535+944917123+944708309+943880378
3313+942360135+940650860+939224547+938051229+936849337+935475484+933825337
3303+931681435+928969630+925959844+922973723+920049954+917065592+914054780
3293+911217320+908624137+906069860+903365602+900735419+898708599+897534549
3284+896879238+896205023+895306974+894378372+893730974+893583632+894012691
3274+895014121+896511065+898234993+899791724+901065492+902356552+903873498
3264+905306038+906185257+906479649+906588599+906857127+907311244+907880758
3254+908705465+910005244+911640445+913079506+913949493+914420462+914888792
3244+915501608+916230041+917143476+918243306+919255580+919944887+920438569
3234+921001855+921731534+922571407+923375307+923971271+924382892+924843309
3224+925455539+926104842+926788068+927713739+928929259+930098328+930841341
3214+931145551+931313994+931668466+932434632+933672279+935070531+936089106
3204+936535529+936756140+937171278+937936565+939035368+940326062+941530152
3194+942455530+943149234+943719334+944218804+944730070+945328598+945943099
3184+946435535+946802975+947186534+947711941+948352012+948914639+949276511
3174+949639042+950316847+951215262+951838115+951918857+951722058+951636334
3165+951785509+952126353+952673007+953475514+954414740+955096720+955120166
3155+954555268+954005390+954136760+955216954+956938757+958492557+959027269
3145+958326751+956959273+955773426+955401883+956049794+957407381+958853843
3135+959931692+960499081+960501279+959980269+959291621+958972464+959326716
3125+960134205+960717641+960534690+959867802+959540440+959846847+960329685
3115+960657634+960955836+961175274+960929606+960129809+959211832+958646567
3105+958631840+959182817+960117940+961005438+961528867+961889639+962448163
3095+962939793+962515497+960753322+958213185+955824640+954088623+953007623
3085+952459064+952324690+952315971+952038650+951495953+951314101+952080267
3075+953540283+954765255+955056057+954453279+953434044+952356635+951227717
3065+949815032+947884341+945393807+942536785+939609059+936896595+934740897
3055+933517537+933327626+933863290+934762950+935880071+937051924+937932901
3046+938298949+938310526+938347966+938729327+939531321+940514361+941335332
3036+941992621+942882098+944257636+945847630+947168657+948017543+948510345
3026+948847598+949176060+949575445+950119389+950894420+951827784+952597687
3016+952926222+952882334+952753895+952806062+953250287+954165335+955346858
3006+956476948+957463944+958391667+959190217+959643015+959770136+959966348
2996+960582094+961487177+962271733+962759260+962951003+962489780+960585318
2986+956482516+949708867+940046763+927815362+914204467+900874408+889090237
2976+879431797+872196411+867641690+865740526+866059243+868048696+871216009
2966+874978186+878739852+882271234+885684949+888903330+891378697+892383058
2956+891555787+889462220+887773313+888475077+892471493+898934778+906024507
2946+912164825+916697199+919624412+921102819+921323283+920664088+919590489
2936+918350277+916927188+915228097+913168600+910711696+908037698+905640142
2927+904110813+903770263+904491808+905865734+907484083+909054075+910405875
2917+911561388+912711406+913992428+915362984+916762701+918254149+919903418
2907+921566533+922903093+923715931+924226684+924820010+925556063+926205732
2897+926741909+927460744+928575227+929921165+931089427+931758879+931941683
2887+931962492+932133866+932434559+932603003+932552521+932478080+932421517
2877+931972236+930701399+928730849+926627611+924922805+923904743+923596943
2867+923740402+923998819+924276579+924717874+925463671+926562549+927982267
2857+929536800+930939594+932124268+933391222+935023639+936882747+938664192
2847+940406291+942332513+944274854+945732672+946533055+947025124+947580864
2837+948264090+949028205+949898998+950841227+951703228+952460749+953333154
2827+954490426+955778408+956885711+957693201+958329169+958930555+959451126
2817+959757826+959878646+960013020+960262791+960550882+960855605+961296240
2808+961894329+962460106+962787249+962827180+962639686+962285141+961828314
2798+961409732+961229273+961382770+961739513+962067828+962253636+962331154
2788+962368814+962438931+962654926+963097247+963688888+964238839+964630751
2778+964890267+965089337+965301961+965629983+966115239+966625845+966971745
2768+967130077+967251043+967495466+967925697+968450957+968840305+968901191
2758+968649368+968236208+967814256+967530855+967475024+967549831+967577600
2748+967569980+967720546+968115682+968611708+969011826+969227381+969275005
2738+969271415+969454659+970015527+970832981+971523974+971794993+971637833
2728+971245115+970915188+970958856+971497524+972344872+973120929+973472030
2718+973276624+972729017+972189250+971963803+972222220+972906253+973620838
2708+973874493+973551893+973002601+972669157+972752902+973155951+973629264
2698+974012530+974312490+974546143+974682275+974780894+974992859+975335242
2689+975599667+975564205+975248858+974869549+974530244+974099939+973490054
2679+972864050+972416235+972156792+972061983+972201705+972552734+972925522
2669+973221013+973555190+974011724+974485330+974899076+975357515+975899847
2659+976321506+976449505+976410600+976416095+976486432+976548271+976567980
2649+976498155+976362096+976393382+976787711+977372978+977831930+978126322
2639+978424158+978780974+979139183+979453723+979654625+979693970+979708110
2629+979905715+980275939+980622498+980843915+980977190+981061302+981137574
2619+981283964+981498786+981623562+981470505+980998144+980374485+979920295
2609+979912163+980359978+981019246+981645469+982156003+982562422+982912717
2599+983296862+983736765+984117687+984424314+984927667+985883232+987162788
2589+988375451+989230784+989659037+989723000+989536460+989258700+989115900
2580+989258553+989527887+989620205+989574486+989749743+990200929+990476345
2570+990227892+989727030+989512428+989647388+989656107+989261630+988807221
2560+988714463+988941741+989249248+989597712+990031387+990503014+990940352
2550+991231081+991165652+990625152+989826602+989248222+989264121+989838325
2540+990596651+991206389+991586945+991768503+991740955+991489498+991084618
2530+990740843+990744140+991152171+991639478+991884634+992022305+992434585
2520+993143455+993717659+993822579+993609441+993452354+993497341+993614350
2510+993678167+993751508+993995931+994433929+994845990+994955306+994673882
2500+994132723+993606950+993429495+993753926+994369306+994947979+995405686
2490+995790417+995997180+995895264+995638093+995574349+995858190+996301463
2480+996690298+997095105+997669674+998280878+998658063+998774999+998761738
2470+998636009+998411442+998195081+997939668+997448038+996786426+996326448
2461+996234056+996243215+996067005+995805584+995818845+996301463+997094445
2451+997890578+998534166+999070050+999553841+999901205+999944947+999604762
2441+998990554+998369386+997995718+997916588+997999894+998255234+998912524
2431+999923772+1000674039+1000611028+999919449+999192115+998756096+998655059
2421+998845996+999112399+999167497+999002204+998834566+998755876+998683927
2411+998540541+998371584+998381402+998725323+999220910+999574136+999825080
2401+1000137349+1000358546+1000287183+1000106723+1000134638+1000412618
2393+1000770167+1001021477+1001048659+1000935973+1000945937+1001152334
2384+1001265533+1001058844+1000785993+1000885784+1001385693+1001908023
2376+1002165048+1002100425+1001714228+1001192119+1000963668+1001253884
2367+1001926779+1002891942+1004093395+1005136881+1005516704+1005106108
2359+1004193479+1003304882+1002937442+1003100317+1003221869+1002769144
2350+1001825816+1000926668+1000541863+1000722323+1001123466+1001459255
2342+1001667776+1001646748+1001471417+1001541755+1001973891+1002389615
2333+1002600261+1002858898+1003235350+1003335948+1002854648+1002031480
2325+1001488782+1001748591+1002750608+1003757093+1003910297+1002912164
2316+1001231830+999815921+999456101+1000146801+1001141051+1001787496+1002102330
2306+1002423465+1002850619+1003219158+1003414784+1003538095+1003820690
2298+1004395480+1005107354+1005590265+1005559419+1005048373+1004448672
2289+1004303455+1004843661+1005673205+1006118602+1005951331+1005583378
2281+1005519708+1005778345+1005963420+1005842454+1005665145+1005839450
2272+1006447943+1007219971+1007899680+1008516525+1009296905+1010301267
2264+1011141800+1011255366+1010606209+1009851473+1009543233+1009494437
2255+1009364605+1009510189+1010530669+1012169607+1013400587+1013594454
2247+1013113009+1012815100+1013209137+1013887161+1013817849+1012572143
2238+1011130736+1010969033+1012455500+1014562475+1016000510+1016297247
2230+1015850677+1015272664+1014894453+1014814078+1015048463+1015470195
2221+1015852142+1016091510+1016197895+1016194598+1016262298+1016687473
2213+1017432758+1018110489+1018561089+1019030152+1019587577+1019866509
2204+1019732868+1019795000+1020743970+1022369499+1023717708+1024184280
2196+1023912968+1023076538+1021420456+1018938347+1016586510+1015607353
2187+1016181703+1017360662+1018311244+1018982968+1019438183+1019180352
2179+1017726271+1015758139+1014984133+1016180824+1017945856+1018434335
2170+1017623109+1016852693+1016901856+1017458402+1017909808+1018002419
2162+1018184417+1019530868+1022640958+1026358003+1028542276+1028239458
2153+1026393977+1024771306+1024600078+1026009612+1028030277+1029051490
2145+1028277631+1026789113+1026253083+1026852270+1027293565+1026573118
2136+1025089803+1024126765+1024524685+1025925134+1027310124+1028011740
2128+1027933123+1027115450+1025545824+1023379355+1021089576+1019280803
2119+1018371471+1018443347+1019276920+1020459836+1021576664+1022381295
2111+1022738038+1022573112+1022043529+1021529699+1021330116+1021569410
2102+1022222743+1022934910+1023215528+1023156034+1023499149+1024670269
2094+1026078704+1026652101+1026007194+1024982538+1024763393+1025422807
2085+1025878755+1025455924+1024729616+1024471126+1024538899+1024425992
2077+1024262970+1024472591+1024889121+1025090535+1025273266+1025874725
2068+1026605942+1026736873+1026203700+1025807978+1026281950+1027500548
2060+1028765304+1029759847+1030835792+1032060031+1032578623+1031654418
2051+1029955327+1029187476+1030450181+1032965919+1034670652+1034411795
2043+1033351237+1033729521+1036081139+1038384985+1038527858+1036784221
2034+1035218185+1035238407+1036382198+1037034578+1036050366+1034253609
2026+1033878622+1035816787+1038525514+1040366598+1041325826+1041695684
2017+1041118550+1039752244+1038481260+1037326845+1035464660+1033225289
2009+1032480371+1034164954+1036667871+1037966037+1038025018+1037790194
2000+1037357252+1036339116+1034992079+1034167738+1034593207+1036190308
1992+1037727403+1037980691+1037411910+1037318786+1037837012+1038161957
1983+1038249073+1039061691+1041232775+1044184460+1046642024+1047905974
1975+1048347708+1048460981+1047921434+1045850287+1042004363+1037688717
1966+1034882030+1034175285+1034630281+1035338711+1035849757+1035886099
1958+1035723956+1036016736+1036731687+1037210788+1037355420+1037732165
1949+1038563100+1039360772+1039557057+1039155328+1038583176+1037890864
1941+1036633581+1034957790+1033846311+1033915109+1034704575+1035475137
1932+1036101141+1036783561+1037443562+1037777518+1037612298+1036975084
1924+1036057839+1035243976+1034770516+1034220858+1032891332+1030966868
1915+1029642398+1029704676+1030944668+1032688306+1034143926+1034585001
1907+1033939508+1033065051+1032882320+1033371313+1033810043+1033915769
1898+1034245769+1035363330+1036997358+1038383227+1039380847+1040602888
1890+1042302126+1043749540+1044254724+1044090970+1043845521+1043702721
1881+1043633043+1043751445+1044111192+1044454600+1044512848+1044327626
1873+1044088918+1043907360+1043816141+1043677297+1043205303+1042494674
1864+1042027883+1042061146+1042425143+1042859990+1043231826+1043463354
1856+1043606447+1043843177+1044185632+1044466982+1044681292+1044992755
1847+1045469072+1046019976+1046392032+1046267037+1045666017+1044860799
1839+1044018654+1043254466+1042697481+1042358835+1042178888+1042125769
1830+1041969195+1041354474+1040576585+1040503610+1041484086+1042871933
1822+1043934029+1044692942+1045557873+1046695876+1047862892+1048729363
1813+1049257993+1049671885+1050111861+1050498791+1050805199+1051179966
1805+1051687788+1052201178+1052669656+1053273020+1054052521+1054690174
1796+1054982295+1055189863+1055787366+1056792533+1057466381+1057362194
1788+1056833344+1056265954+1055554813+1054322367+1052545906+1050709217
1779+1049379105+1048757278+1048653896+1048782409+1048935320+1048956201
1771+1048811057+1048767462+1049166628+1050086584+1051478167+1053424099
1762+1055703327+1057400953+1058064983+1058355125+1058803527+1059197710
1754+1059349009+1059510345+1059782317+1059612042+1058511919+1056798101
1745+1054967787+1053229572+1051586531+1049891617+1047983419+1045997629
1737+1044259413+1042881458+1041592889+1040100561+1038851411+1038606475
1728+1039643367+1041653702+1044270770+1047200108+1049851393+1051781425
1720+1053381457+1055598993+1058642337+1061176246+1062479468+1063130969
1711+1063681580+1064328685+1065121960+1065995171+1066613482+1066706093
1703+1066657150+1067139402+1067976491+1067976784+1067013820+1065976708
1694+1065149656+1064317548+1063517532+1062930141+1062513831+1062201854
1686+1062479028+1064126685+1066469803+1068120170+1069174061+1070079290
1677+1071053611+1072159302+1073058450+1073312837+1073172309+1073306463
1669+1073741823+1073716252+1073020351+1072076069+1071230993+1070472521
1660+1069605391+1068599052+1067545527+1066497498+1065398695+1063976118
1652+1061999268+1059635781+1056950206+1054133995+1051955657+1050855094
1643+1050148349+1048816845+1045705875+1038715865+1022268389+988993615+948688899
1633+924202725+917854837+921114468+926137813+925193019+913012979+889579302
1623+861991683+844217612+844262233+860483310+891434821+931456208+964945292
1613+985786517+999784929+1011404760+1021302787+1028746108+1033394758+1035465612
1604+1035294970+1033229099+1029700866+1025105922+1019600326+1013018713
1595+1004937298+994762757+981353056+962655732+936891979+904878152+870994738
1585+841608384+821992203+813506787+813284272+817816279+827685512+847442148
1575+874774574+898141356+913459402+921410619+918931514+904345345+883271932
1565+862336190+846269416+837710806+837820122+850562643+874265799+890919305
1555+898422267+902456929+902527487+895401051+879484623+856679808+829766184
1545+799801522+769324057+745509532+738705110+755734922+782774055+805574181
1536+827773873+855765054+885751183+905741618+912481857+908953112+896105818
1526+876153336+854187955+832874003+813225218+797790089+786408746+776005388
1516+765376510+755107306+744616539+732560103+718187510+699332220+672524248
1506+647599930+637880311+639307429+647040820+659839024+677096773+697220703
1496+716197032+730252079+740137871+749433926+761352398+775802069+789614745
1486+801424780+812048749+822432692+832941116+843001726+851766147+859083740
1476+865164051+869936452+873020239+873916823+872864764+870885349+868595350
1466+865824638+862062240+857343399+852221655+846878495+840704327+832170188
1456+821226257+810984601+802954109+797564789+796605708+802596340+815425829
1446+829755706+839060700+840832839+836433814+829402993+823555088+821676637
1436+824766798+830309394+834858986+837425353+838118324+837399856+835475392
1426+829615544+814259692+787580745+756250071+729225591+713028034+712317478
1417+724741501+743329729+764095049+785004194+804032910+819810055+832436225
1407+843086058+852517146+860133893+865525117+869704558+873793292+877897340
1397+881902695+886325972+891165780+895173626+897180297+896344233+890805666
1387+877814107+856588443+829535901+800938939+776913475+763968221+764886492
1377+777601683+798134816+821769541+842921790+857994094+866515631+869216079
1367+867921942+865318428+862189874+855867850+843661580+827251324+809722629
1357+791425203+772032564+754893583+746145281+748181186+756311543+763084973
1347+765345957+766061642+769353950+775845883+783721634+792423703+803484058
1337+817673699+833350832+847869668+858773375+864569260+865976523+866194203
1327+868845121+875146264+883044947+888778114+889006711+882351243+870702252
1317+859304130+853855244+857153927+868377743+884216360+900880929+915842452
1307+927875809+936153728+939617778+936472812+923785755+898275437+858897125
1298+809951079+761831939+727019704+713341988+720369439+741319102+767018378
1288+788723290+800443572+801105624+794138913+784573523+777231313+776735799
1278+786256275+804835417+827429293+848503438+864889735+875842385+882440411
1268+887156102+892127059+896660532+896501760+885686854+859716338+818887388
1258+769985816+724094470+691387671+676505865+677579757+689124415+705733594
1248+723800591+741388193+757587803+772076085+784867256+796075099+805766144
1238+814064212+821288754+827833734+833955442+839704801+844970957+849571396
1228+853327566+856005374+857181476+856340357+853415415+849467502+846643524
1218+846920771+850641186+856427179+862449390+867568349+871542858+874672218
1208+877388565+879990394+882570608+885126791+887702903+890342391+892911615
1198+895129006+896825385+898080470+899087836+899892614+900087141+898602433
1188+893755373+883641204+867248680+846353675+826438706+814365711+813729376
1179+822140571+833033434+839744073+838281566+828212604+812729998+797671175
1169+788787986+788497551+794656040+802389210+807484870+808817986+808213523
1159+808375299+810931775+815859065+821954470+827434861+830120289+827667488
1149+818814559+805074785+790786817+780987263+778901902+784459811+794172323
1139+802853658+806644850+805104971+800914540+797835076+798355867+802454126
1129+808233745+813413004+816112939+815238776+811375414+807223669+806159228
1119+809879057+817445102+826469845+834984128+842230138+848163034+852806116
1109+856235876+858779603+860879618+862829212+864751185+866740051+868916485
1099+871378298+874146372+877104358+879990321+882513239+884346264+884770488
1089+882598304+877142091+869381298+861644098+856003542+853363541+853915251
1079+857576758+863543285+869773650+873277997+871291402+863188886+852007419
1069+843305203+841243215+845649054+853167182+860622006+866740564+871542565
1060+875339545+878420695+881049047+883390993+885463972+887223728+888717668
1050+890094525+891466399+892857104+894290817+895807470+897357166+898730360
1040+899452492+898492824+894310526+885926148+874269829+861971388+851506484
1030+843969819+839720041+839265778+842812987+849403832+857161694+864366820
1020+870174720+874631701+878311159+881791254+885263363+888614140+891769803
1010+894789114+897661523+899973209+900666180+898671086+894534434+890955280
1000+890646894+893815965+898463590+902684281+905867859+908162914+909717812
990+910540322+910764449+910829878+911206184+911996382+913074670+914499445
980+916431235+918698961+920795678+922345668+923317132+923637314+922718017
970+919569314+913576924+905388172+897052810+890898790+888034515+888234390
960+891131051+896541105+903410442+909646669+913797901+916253267+918166154
950+919605509+919367460+916556084+912007372+908019821+906741656+908820643
941+913424380+919235797+925233096+930659196+934414194+934305683+927222256
931+911702869+891504499+875160844+869785373+875397720+886303333+897007750
921+905539178+912243222+917461900+920822861+922093112+922201842+923010944
911+925840783+930455730+935664370+940555758+944926355+948876613+952390045
901+955260841+957296306+958510435+958776179+957084195+951864931+942984820
891+933153760+926312338+924434179+926348898+929280068+930549880+928101841
881+921174475+911547467+903241046+899769230+901692595+907092098+913731740
871+920194659+925648454+929583398+931941097+933125185+933713236+934126689
861+934426356+934239742+932939817+930209988+926652669+923745311+922806672
851+923542065+923607127+920425747+914132664+908238014+906601348+910006123
841+916268800+923036588+929367330+935031039+939732882+943355191+946154990
832+948090371+947739636+942466520+931317072+918068854+908966886+906404476
822+907511779+909684768+913805082+920818904+928868080+935464934+940018189
812+943202866+945488689+946971272+947915626+948956695+950623621+952807747
802+955059427+957306051+959849045+962451460+963587924+961447392+956530580
792+952510791+953181489+958804460+966188580+971574749+972335713+965948041
782+948285118+914477904+862626992+796528703+725298853+662174889+622450091
772+617001498+644237430+690280002+739020384+781030418+813878257+838193497
762+855231368+866035284+871010711+870415333+865692316+860167377+857739340
752+860015565+864803645+867901060+865161853+851220298+818471151+763317453
742+696937228+645978723+634413990+660639260+695376394+704806750+675346468
732+618920247+561579272+528236615+530178517+560882051+603930699+645697959
722+680891555+709726933+733670043+752889403+765312401+768730218+765161541
713+761872603+765923165+778185119+794082789+808988848+821242522+831149928
703+839424477+846698255+853202717+858268044+860285412+858172136+853787618
693+851836264+855921189+865239225+875903271+884609957+890067708+891401117
683+886517496+873255650+852158571+826512267+798964799+770404617+743979178
673+726541629+723348745+735904065+762468494+791535545+810573860+821762507
663+830804395+839378758+847070165+853784174+859635889+863969120+865286190
653+861130928+847936269+823382101+791110370+760981075+741048229+731182513
643+727420775+729404073+739693133+757701662+778429834+796832986+810846637
633+820775657+827757754+832899427+836918483+840118401+842600655+844440201
623+845718366+846565274+847146511+847364044+846761926+845260879+843718509
613+843065323+843267397+843715945+844217173+845061589+846343637+847619750
603+848263119+848078263+847424857+846667776+845772291+844360632+841368796
594+834836859+823882670+811665630+804235497+805252973+813167922+823176584
584+831164874+836116196+839186648+841607211+844194533+847725623+852289502
574+856522941+858260204+855580272+847580918+835707945+824303816+818150382
564+818881160+824186220+830467580+835918079+840831008+845597840+849622318
554+852308332+854058271+855818320+858088464+860586178+862789721+864723416
544+866916335+869489809+871766180+873060756+873541763+873877624+873995879
534+872507874+867386570+856692044+838250207+808985844+766555103+714973013
524+667650884+639773269+639039341+663328424+702106889+741810878+773630764
514+795526687+808148534+812037613+808267742+800059427+792739343+790994166
504+796011136+805495125+815342230+822346968+826579088+830068562+833859974
494+837254931+839119242+838974610+837211923+834963467+833270457+831859164
484+829207513+824485741+818733671+813347063+808694236+804782298+802050931
475+800875488+800886992+801315977+802218422+804668073+809078455+813975118
465+817372420+818906218+819346560+818765249+816361538+811874151+806546451
455+802259379+800341216+800861714+802223478+802745074+802448924+802263629
445+802802736+804668512+807969906+810533269+808979249+802235347+793224672
435+787058782+786943751+792814076+802942166+814872361+825866335+832879278
425+832058674+821147200+802955940+783742442+771270208+771138985+778475700
415+785744277+790616908+793506461+795382715+795902186+792953652+785646244
405+776659674+769674499+765478426+762344377+759907695+761769148+770537892
395+781818564+791117330+797774996+802154605+804291034+804099511+801389538
385+796346558+791084653+787782306+784748048+779358803+772429019+768962332
375+774795656+786193924
##END=
