##TITLE=X7894
##JCAMP-DX=4.24
##DATA TYPE=INFRARED SPECTRUM
##DATE=30/10/2018
##SAMPLING PROCEDURE=Diamant-ATR
##ORIGIN=ComPlat
##XUNITS=1/CM
##YUNITS=TRANSMITTANCE
##RESOLUTION=4
##FIRSTX=3997.453
##LASTX=373.96442
##DELTAX=-1.4165319
##MAXY=0.91416609
##MINY=0.4906725
##XFACTOR=1
##YFACTOR=8.5138352e-010
##NPOINTS=2559
##FIRSTY=0.85633332
##XYDATA=(X++(Y..Y))
3997+1005813826+1006566214+1007616281+1007903529+1007297740+1006483463
3989+1006107794+1006404353+1007265396+1008247064+1008788865+1008759531
3980+1008508898+1008258125+1007880146+1007360818+1006981228+1006919060
3972+1007025544+1007068110+1006979128+1006900018+1007038426+1007367679
3963+1007584637+1007543822+1007533881+1007881616+1008438749+1008656688
3955+1008136450+1007136019+1006385520+1006241582+1006282117+1005975477
3946+1005394751+1005009490+1005267334+1006297589+1007519879+1008106906
3938+1007996781+1007693712+1007328544+1006673678+1005937462+1005711262
3929+1006056197+1006476882+1006654706+1006622011+1006550112+1006505306
3921+1006291288+1005675067+1004854280+1004498144+1005025312+1006177453
3912+1007544312+1008911731+1009920913+1009910272+1008428948+1005838539
3904+1003379537+1002305457+1002805182+1004270474+1006080281+1007811817
3895+1009150462+1009729018+1009277879+1008306852+1007979629+1008512609
3887+1008884567+1008053349+1006119346+1004033073+1002498262+1002316798
3878+1003980496+1006457700+1008041097+1007752939+1006043386+1004221187
3870+1003371766+1003939470+1005369968+1006546191+1006662477+1005798984
3861+1004809754+1004360365+1004592236+1005302759+1005791073+1004718182
3853+1001982644+1000898413+1002847328+1005961405+1008492446+1009544054
3844+1009031307+1007521769+1005730725+1004020611+1002624838+1002128473
3836+1002917477+1004438006+1005668977+1005928781+1005414353+1004916168
3827+1004908887+1005251512+1005529028+1005328662+1004446967+1003476290
3819+1003342642+1003892704+1004597136+1005554022+1006862843+1007951625
3810+1008164453+1007347516+1006102333+1005502355+1005650354+1005276785
3802+1003556100+1001854178+1002286274+1004660635+1007428937+1009422448
3793+1010409087+1010762563+1010758363+1010462084+1010014795+1009640456
3785+1009416847+1009230903+1008841372+1007986140+1006856472+1006326433
3776+1006886576+1007977949+1008860204+1009280119+1009275569+1008870706
3768+1008169004+1007503987+1007339955+1007919141+1008842142+1009257366
3759+1008608171+1007319023+1006296259+1005674997+1004912038+1003567232
3751+1001909485+1000952670+1000977803+1001176419+1000779677+999793178+999202021
3741+999354571+999440052+998540924+996440579+994245792+993712112+995267996
3731+997960058+1000768266+1002913486+1003797562+1003359375+1002366855
3723+1001717100+1001640090+1001995946+1002808052+1004133536+1005656795
3714+1006687470+1006625652+1005773290+1005424785+1006075730+1006899738
3706+1007115366+1006574195+1005615420+1004848399+1004744086+1005283646
3697+1006150920+1007087082+1008082262+1009204509+1010097406+1009943246
3689+1008662918+1007522819+1007179284+1007120687+1006810476+1006145529
3680+1005407492+1004830757+1004020821+1002591304+1001731732+1002375956
3672+1003148227+1002909706+1003066596+1005337693+1008462762+1010384794
3663+1010600702+1010010035+1009457242+1008893949+1008112996+1007570075
3655+1007740688+1008067280+1007514208+1005467350+1002489091+1000591562
3646+1001077426+1003388568+1006169962+1008097454+1008723266+1008726557
3638+1008737548+1008398424+1007175014+1005453979+1003957253+1002451076
3629+1000326088+998794147+999444672+1001451205+1003450386+1004866672+1005600788
3619+1005776791+1005862622+1006117385+1006149590+1005800944+1005730725
3611+1006437257+1007549423+1008647796+1009613433+1010046019+1009488606
3602+1008084643+1006538770+1005485553+1004875283+1004142217+1003111962
3594+1002508763+1002906205+1003646342+1003634721+1002814353+1002661243
3585+1004204315+1006366688+1007633504+1007711844+1007586668+1008174675
3577+1009112797+1009549234+1009526201+1009598591+1009642137+1009053570
3568+1007895828+1007171513+1007416545+1007986700+1008454781+1008909141
3560+1009280959+1009412436+1009428679+1009444991+1009290691+1008982090
3551+1008939875+1009205139+1009149552+1008348297+1007237112+1006708683
3543+1007310341+1008971029+1010978681+1012245287+1012187530+1011302754
3534+1010467895+1009994213+1009715296+1009448001+1009064351+1008514499
3526+1008011133+1008010853+1008836261+1010194859+1011203901+1011196970
3517+1010500729+1010065202+1010161604+1009927144+1008611322+1006881255
3509+1006228000+1007074831+1008324634+1008828350+1008543343+1008207789
3500+1008248814+1008474174+1008686581+1009002043+1009485036+1009871977
3492+1009907401+1009719287+1009663769+1009937015+1010380033+1010559957
3483+1010142492+1009361610+1008859014+1008804267+1008706534+1008382042
3475+1008382462+1009068341+1009937925+1010350909+1010238195+1009776134
3466+1009069812+1008370630+1008017154+1008040047+1008224451+1008523390
3458+1009089274+1009933305+1010742891+1011136622+1011098817+1010971050
3449+1010936256+1010774115+1010262558+1009561556+1009058750+1009027666
3441+1009405296+1009742740+1009587739+1009034107+1008675310+1008934764
3432+1009597821+1010080114+1010077593+1009862035+1009890249+1010196609
3424+1010304773+1009798817+1008888768+1008243424+1008301461+1008967948
3415+1009882198+1010656219+1010955298+1010698015+1010174766+1009811629
3407+1009861615+1010339848+1011067103+1011712937+1011963780+1011702996
3398+1010993033+1010025507+1009128059+1008599630+1008450091+1008469903
3390+1008559165+1008776473+1009078913+1009251835+1009172515+1009072192
3381+1009394584+1010227413+1011017887+1011202081+1010981482+1010990443
3373+1011406227+1011846865+1011915474+1011527483+1010934716+1010456973
3364+1010051340+1009534462+1009348308+1010252196+1011968331+1013092748
3356+1012772526+1011674502+1010895651+1010707256+1010788186+1010996884
3347+1011366252+1011700476+1011668622+1011235825+1010753602+1010581239
3339+1010669661+1010591111+1010093206+1009539713+1009603351+1010509830
3330+1011690675+1012267550+1011954189+1011352320+1011210692+1011641388
3322+1012255508+1012706998+1012883211+1012834624+1012685365+1012554027
3313+1012576290+1012822653+1013015108+1012672343+1011802409+1011078724
3305+1011109458+1011802339+1012443763+1012314806+1011386975+1010372262
3296+1009927074+1010046159+1010388224+1010813950+1011386625+1012112970
3288+1012869419+1013480179+1013772467+1013622647+1013122712+1012681234
3279+1012676263+1012943698+1012956230+1012594773+1012324888+1012484578
3271+1012840365+1013039891+1013062854+1013024979+1012995015+1013223175
3262+1014004267+1015036412+1015503233+1015065886+1014211214+1013459806
3254+1012819502+1012158406+1011604703+1011427580+1011778046+1012533585
3245+1013221775+1013319438+1012953290+1012958260+1013778488+1014730402
3237+1014951911+1014598995+1014357393+1014332190+1014184751+1013858508
3228+1013571821+1013475558+1013665213+1014180830+1014800201+1015134005
3220+1015079818+1014940360+1014901785+1014685736+1014081907+1013515043
3211+1013549418+1014058174+1014420822+1014368665+1014181390+1014154297
3203+1014215485+1014126713+1013940209+1014077777+1014867200+1016087530
3194+1017094402+1017371988+1016939121+1016195904+1015408651+1014599905
3186+1013973603+1013939019+1014496852+1015109502+1015404800+1015557210
3177+1015804903+1015983216+1015781450+1015206955+1014591364+1014287734
3169+1014477039+1015057555+1015618608+1015808753+1015790621+1015952062
3160+1016202695+1016043774+1015275914+1014232497+1013466037+1013426762
3152+1014140785+1015087939+1015706960+1015928539+1015961093+1015887654
3143+1015703110+1015378757+1014869440+1014407450+1014512394+1015270173
3135+1016028372+1016232029+1016108253+1016180992+1016542869+1016871912
3126+1016826266+1016318210+1015576673+1014967033+1014713670+1014794461
3118+1015002388+1015083458+1014923488+1014592834+1014165498+1013663043
3109+1013264760+1013361023+1014138195+1015150177+1015615178+1015277104
3101+1014632739+1014091359+1013427182+1012421150+1011421699+1010756262
3092+1010062892+1008697083+1006559073+1004260462+1002550349+1001640790
3084+1001124262+1000543606+999846105+999175837+998437101+997309183+995725156
3074+994147219+993073839+992326561+991256401+989662783+988011406+986800178
3064+986154624+985903851+985683602+985167004+984356018+983395002+982213458
3054+980754677+979332021+978351683+977882971+977759895+977911255+978439894
3044+979440255+980781911+982165992+983467322+984811568+986213641+987464775
3034+988468706+989300695+989895423+990033761+989639609+988848576+987890641
3024+986997674+986310114+985918903+986015865+986714627+987734170+988666202
3014+989520804+990632409+992130465+993805365+995348856+996583328+997606862
3004+998698095+999931796+1001068465+1001901154+1002445825+1002796081+1003070867
2995+1003434844+1003968594+1004619119+1005356176+1006200276+1007028625
2986+1007500696+1007322523+1006647215+1006050737+1005893776+1005905678
2978+1005736255+1005611219+1005945373+1006546962+1006762800+1006335814
2969+1005689489+1005342524+1005349035+1005425275+1005419044+1005398391
2961+1005393351+1005367167+1005370318+1005444667+1005483312+1005391180
2952+1005214687+1004977776+1004630601+1004247931+1004003669+1003870511
2944+1003602796+1003094600+1002536767+1002170479+1002104250+1002409140
2935+1003092640+1003863861+1004234909+1004048055+1003694718+1003712011
2927+1004341673+1005440047+1006624392+1007568535+1008259456+1008844382
2918+1009251345+1009215431+1008686441+1007982219+1007525550+1007531010
2910+1007884207+1008280598+1008556434+1008867765+1009464873+1010345519
2901+1011181848+1011574809+1011406157+1010977701+1010744641+1010903772
2893+1011336218+1011875289+1012426051+1012858567+1013059074+1013115011
2884+1013227936+1013431592+1013584912+1013608435+1013509162+1013214564
2876+1012630407+1011910083+1011504170+1011806680+1012713298+1013598634
2867+1013866699+1013512803+1013016508+1012765385+1012776447+1012888041
2859+1012977793+1013026449+1013155686+1013593944+1014422082+1015313719
2850+1015718792+1015425523+1014799711+1014363344+1014256300+1014176490
2842+1013757905+1013009717+1012377184+1012267970+1012605904+1013035480
2833+1013396168+1013732002+1014014209+1014147156+1014151567+1014142815
2825+1014169419+1014170749+1014069866+1013804321+1013281283+1012513492
2816+1011836504+1011665471+1011945788+1012212873+1012260269+1012357512
2808+1012771546+1013416960+1014023870+1014388478+1014402689+1014047883
2799+1013517494+1013216804+1013407859+1013931388+1014458137+1014828275
2791+1014997137+1014970324+1014943860+1015177971+1015642692+1016030612
2782+1016089490+1015793071+1015311478+1014908576+1014759806+1014826525
2774+1014915576+1014855859+1014680206+1014610267+1014828135+1015372176
2765+1016236019+1017277686+1018067179+1018212238+1017828868+1017381649
2757+1017181563+1017220348+1017318641+1017294348+1017111274+1016882904
2748+1016717192+1016684358+1016912028+1017473291+1018159731+1018573275
2740+1018542541+1018321732+1018263414+1018376339+1018386351+1018180594
2731+1017925830+1017745347+1017600568+1017496814+1017501085+1017547011
2723+1017504445+1017439197+1017578725+1018005291+1018533090+1018874454
2714+1018889996+1018707413+1018608350+1018754949+1019054448+1019308581
2706+1019417796+1019383351+1019208258+1018890276+1018482333+1018094482
2697+1017847630+1017817386+1017966086+1018158261+1018312001+1018458180
2689+1018540301+1018317112+1017677858+1016914478+1016427984+1016249251
2680+1016097261+1015831506+1015559731+1015336332+1015074707+1014810773
2672+1014751335+1014977885+1015345713+1015701149+1016001699+1016271724
2663+1016584665+1016948923+1017178062+1017095592+1016835858+1016704801
2655+1016850630+1017227209+1017659655+1017871503+1017748917+1017585236
2646+1017772510+1018321102+1018907779+1019270706+1019406034+1019477233
2638+1019570836+1019516998+1019120327+1018626482+1018658966+1019508037
2629+1020754830+1021810289+1022554486+1023158385+1023557577+1023541615
2621+1023226994+1022974471+1022884999+1022801058+1022737070+1022853285
2612+1023067583+1023155235+1023161115+1023276350+1023441152+1023495129
2604+1023530764+1023684224+1023769635+1023486658+1022873448+1022334447
2595+1022255547+1022687503+1023424140+1024259699+1024977503+1025236047
2587+1024867729+1024244017+1023966081+1024223644+1024664282+1024815082
2578+1024571870+1024289173+1024257599+1024280422+1024150485+1024131162
2570+1024348471+1024328308+1023929956+1023972941+1025021329+1026255170
2561+1026419902+1025352682+1023832853+1022455843+1021369231+1020710865
2553+1020629584+1021026746+1021641566+1022227543+1022525852+1022432390
2544+1022284321+1022562117+1023254648+1023851476+1023920925+1023485468
2536+1022968590+1022861126+1023300504+1024060663+1024930877+1025754535
2527+1026227726+1026207354+1026021550+1025874110+1025348341+1024196761
2519+1023160625+1023216983+1024319627+1025483599+1025925847+1025762726
2510+1025717500+1026320979+1027369296+1028203245+1028452058+1028204995
2502+1027541658+1026447835+1025240527+1024515022+1024516423+1024917365
2493+1025246968+1025277212+1025057943+1024816132+1024808991+1025183610
2485+1025990185+1027187622+1028393040+1028838578+1028076038+1026667174
2476+1025620327+1025200972+1024909104+1024563539+1024643069+1025446844
2468+1026538287+1027242509+1027392469+1027422223+1027761627+1028282705
2459+1028562742+1028555601+1028533618+1028510725+1028352014+1028297197
2451+1028697160+1029372048+1029809395+1029855251+1029775371+1029792383
2442+1029901107+1030044906+1030231970+1030415674+1030422535+1030198856
2434+1030000450+1030087752+1030419525+1030878085+1031427097+1031840781
2425+1031768181+1031256484+1030738417+1030512637+1030659796+1031212799
2417+1031983180+1032494456+1032410165+1031861854+1031312772+1031180174
2408+1031451040+1031697612+1031665548+1031570756+1031588958+1031501306
2400+1031119126+1030575015+1029996110+1029359236+1028814285+1028731464
2391+1029292027+1030238201+1030924361+1030461110+1028198834+1024412179
2383+1020154502+1016156279+1012226105+1007884837+1003101391+998189688+993357586
2373+988497900+983310431+977795040+972420507+967411281+962510220+958034744
2363+955082458+954036661+954075306+954692017+956590946+960616822+966639780
2353+973636706+980193204+984932474+986868787+985651748+982027164+978078647
2343+975831353+975453023+975864537+976411869+977343621+978993807+980878313
2333+982059368+982366988+982560143+983103974+983580387+983597889+983564985
2323+984307712+986298072+989402769+993067608+996473764+998882289+1000181729
2313+1000920745+1001748534+1003049024+1005030843+1007754760+1010957259
2305+1014054464+1016536219+1018425626+1020225631+1022296012+1024433182
2296+1026136785+1027084989+1027336112+1027312798+1027510994+1028061896
2288+1028828847+1029897327+1031369269+1032713725+1033199379+1032964568
2279+1032741939+1032651907+1032278058+1031709584+1031463151+1031543872
2271+1031459511+1031027835+1030573405+1030469231+1030836429+1031520559
2262+1032131599+1032279038+1031914711+1031257115+1030356447+1029167131
2254+1028113843+1027852569+1028334512+1029033834+1030048196+1031713224
2245+1033233753+1033199799+1031501797+1029379329+1027611107+1025888672
2237+1024038260+1022800778+1022975171+1024417430+1026321399+1027998328
2228+1029047975+1029432536+1029750377+1030775031+1032537022+1034254767
2220+1034998964+1034353620+1032947556+1032151692+1032733748+1034289841
2211+1036138013+1037973093+1039673476+1041204226+1042488754+1043066400
2203+1042414964+1040580164+1038108701+1035818351+1034591231+1034574429
2194+1034815190+1034338568+1033096465+1031524059+1029874014+1028361256
2186+1027555590+1028317500+1031077891+1035088856+1038883352+1041428745
2177+1042203047+1040664245+1036853927+1032441109+1029967616+1030577466
2169+1032936354+1034737270+1035121830+1035271440+1037043652+1041183153
2160+1045865366+1047540755+1045263287+1042124426+1040635752+1040621960
2152+1041422374+1042837120+1044157702+1044468193+1043807867+1042747578
2143+1041377149+1039355074+1036446753+1033119498+1031022584+1032008033
2135+1035951789+1040471580+1043430657+1044672130+1045000473+1044737448
2126+1043718605+1042040205+1040471720+1040061326+1041030603+1042198146
2118+1042138988+1040884774+1039759657+1039603957+1039939861+1039946091
2109+1039507974+1039049414+1038900925+1039138816+1039719402+1040476691
2101+1041085280+1041230829+1040951563+1040701490+1040796423+1040879313
2092+1040406192+1039534227+1038916537+1038801162+1039019590+1039550470
2084+1040260993+1040534588+1040116284+1039866491+1040629521+1041813236
2075+1042200456+1041816526+1041768850+1042510387+1043514388+1044429618
2067+1045332666+1045954907+1045716036+1044500537+1042669868+1040556291
2058+1038637620+1037877321+1038920597+1040687838+1040772900+1038261881
2050+1035447023+1035458574+1038524485+1042198286+1044848623+1046911373
2041+1049010877+1050423312+1049790639+1046984182+1043674849+1041541810
2033+1040723053+1040926430+1042431276+1044665199+1045987952+1046333377
2024+1047667962+1050560320+1052656744+1051810824+1048907894+1046660460
2016+1046937276+1049627028+1052696300+1053311190+1050666314+1047501060
2007+1046867477+1048145494+1048391366+1046571058+1044435429+1044126128
1999+1045907791+1047722429+1047356841+1045300952+1044261246+1045608712
1990+1047775566+1048636188+1047623086+1045256776+1042345165+1039798022
1982+1038619208+1040000838+1044713995+1051405051+1056493736+1057535963
1973+1055439538+1052285696+1048866168+1045358499+1042961386+1043136059
1965+1045411496+1047658650+1048591382+1048696466+1048753944+1048561349
1956+1047391145+1044989901+1042087532+1040241600+1040701980+1042937863
1948+1044717146+1044273428+1042132267+1040311889+1040026602+1040756097
1939+1041591657+1042311421+1042874785+1042968527+1042312751+1041025843
1931+1039785210+1039543469+1040461429+1041394441+1041344524+1040912148
1922+1041182243+1041810785+1041839769+1041571284+1041966276+1042674838
1914+1042445768+1041040755+1039509584+1038732833+1038429973+1038054094
1905+1037821033+1038079087+1038387127+1037970363+1036754374+1035428050
1897+1034758273+1035047410+1035883810+1036445983+1036289443+1035806940
1888+1035991344+1037611146+1040454288+1043254584+1044610942+1044439279
1880+1043938504+1043948095+1044136280+1043909730+1043347136+1042931632
1871+1042832429+1042735956+1042339074+1041941212+1042100903+1042881225
1863+1043814447+1044245144+1043818648+1042899988+1042349436+1042759479
1854+1044057729+1045740819+1047171737+1047829193+1047659771+1047112299
1846+1046679432+1046622375+1046982992+1047532564+1047966411+1048184419
1837+1048210883+1047979642+1047407248+1046524572+1045425498+1044472113
1829+1044362059+1045277919+1046554116+1047479847+1047869028+1047870568
1820+1047656410+1047511211+1047745742+1048261989+1048600974+1048501701
1812+1048097048+1047678253+1047530884+1047863357+1048562819+1049097549
1803+1049005837+1048474467+1048130862+1048218654+1048415309+1048345370
1795+1047760724+1046597522+1045368441+1044925843+1045315234+1045831201
1786+1045798437+1044922342+1043457611+1041975797+1040911518+1040383929
1778+1040222978+1040110963+1039758257+1039102341+1038579443+1038841347
1769+1039910317+1041257083+1042305400+1042685690+1042410414+1041898367
1761+1041647314+1041683299+1041756388+1041829828+1041886815+1041613359
1752+1040566372+1038679696+1036817032+1036066954+1036391376+1037086987
1744+1037767826+1038372495+1038780019+1038897494+1038844917+1038604086
1735+1037949080+1037169878+1037226586+1038264471+1039723812+1041151859
1727+1042138708+1042521658+1042561634+1042506536+1042103354+1040875043
1718+1038979615+1037869410+1038669684+1040483692+1042285587+1043720005
1710+1044455941+1044177305+1043198227+1042630663+1043143200+1044105336
1701+1044621863+1044537572+1044468893+1044948736+1046186988+1047910963
1693+1049371004+1050138585+1050281824+1050020689+1049349022+1048176648
1684+1047332758+1048277041+1050397479+1052249221+1053313010+1053617130
1676+1053536199+1053556292+1053633302+1053495314+1053763379+1055568775
1667+1058356050+1060513242+1061532016+1062020049+1062813743+1063926469
1659+1064725483+1064767699+1063904486+1062384867+1061671054+1062681916
1650+1063463288+1063054715+1062160488+1062117852+1062853368+1062940600
1642+1061739383+1059456244+1056542953+1053586536+1051740674+1051428154
1633+1050198443+1045680052+1037387537+1026608156+1016727624+1011027058
1625+1010156494+1012958960+1017436956+1021613073+1024896712+1027874902
1616+1031063119+1033653878+1034389604+1032848703+1029218518+1024063953
1608+1017948233+1010889350+1002458427+992448307+981476541+971049447+963020237
1598+959037556+960213780+966562840+976456815+987260628+996823669+1004053445
1588+1008399544+1009534392+1007715064+1004126185+1000534925+998284621+997489947
1578+997481335+997984771+999218683+1000479898+1000650440+999719668+999178778
1568+1000629297+1003665595+1007070560+1010060371+1012003545+1012623407
1560+1013154426+1016434985+1020864395+1023002405+1022661390+1020413466
1551+1016661675+1012122701+1007947215+1004790992+1002698698+1001899684
1543+1002679516+1005656725+1012276371+1020309222+1025451605+1026660943
1534+1024719239+1021702194+1019714914+1018633973+1017594407+1016706901
1526+1016384229+1015706820+1012583921+1006277286+999901132+997862535+1002411310
1516+1012565299+1024057443+1033126919+1038549059+1040243000+1038781069
1507+1036776147+1037619337+1039186422+1038165478+1033639666+1025330279
1499+1012866688+996204368+977706128+960858634+945716703+930582123+918259180
1489+918248259+933886205+954093159+965251849+959560734+938001203+911618532
1479+894506823+893534466+906348242+925754991+944385549+956596476+960184516
1469+956354735+945552601+925919023+897479342+866660329+839677889+815790974
1459+789803854+757494697+725703817+704527237+690895123+679396959+668440875
1449+658444548+650605622+646523388+646934622+651121659+657826577+666130083
1439+676233735+689715049+707073050+724583741+738950671+751147036+763085138
1429+775000767+785847356+795297193+803995621+812241860+819618445+826098983
1419+832776946+840752670+849380529+857372984+864327694+870569221+876723236
1409+883008378+888971829+894263891+899019893+903240535+906715020+909867883
1400+913868206+919510034+926336487+933450958+940257389+946154400+950684133
1390+953950620+956589475+959273837+961923333+963792298+964379395+963856216
1380+962921804+962265608+962186988+962913963+964879680+968100591+971841391
1370+975425720+978638650+981386510+983573666+985306253+986923184+988615936
1360+990050843+990625408+989931548+987957709+984993662+981198115+976319597
1350+970040335+962440701+953943549+945032853+936046618+926602102+914961399
1340+898691270+877161703+853227112+831469525+816289579+811524966+819157925
1330+837575934+862023483+887190376+909282606+926174976+936639945+939905032
1320+935802776+925109717+909229679+889043868+864721636+837487163+811151327
1310+791137038+781962618+785092798+797784338+814026183+827615031+834984615
1300+836011860+833040531+829309813+827680770+829835372+836064436+845657792
1290+857415200+870004387+882317878+893712709+903867467+912516469+919455707
1281+924723756+928646089+931622739+933759068+934695371+934026083+932057146
1271+929977384+929018538+929568110+931368256+934350786+938827942+944925459
1261+952219784+960031476+967860250+975415498+982392891+988448404+993398961
1251+997344328+1000609485+1003610357+1006641544+1009682392+1012444813
1242+1014559510+1015581294+1014863630+1011542605+1004566682+992646713+974338408
1232+948505238+915113949+875996751+835096700+797790639+769139810+751622399
1222+744067150+743189235+746377522+752882003+762741883+775380777+789385759
1213+803181904+815788594+827165642+837868433+848282505+858259300+867467255
1203+875811227+883354574+890059211+895817534+900640815+904724380+908417713
1193+912155782+916283732+920853300+925592360+930060764+933840839+936619923
1183+938114758+937996583+936076442+932702560+928900083+925955217+924773883
1173+925547904+927874028+931125954+934817747+938714597+942549208+945604688
1163+946733936+945034044+940530844+933819976+924806927+912520040+897114524
1153+881752414+871386998+869376685+875545892+887109585+900703894+913767603
1143+925018705+934254943+941690336+947367939+951203041+953524334+955343522
1133+957779141+961079933+964400467+966577612+966556819+962716327+952937868
1123+937018555+918914116+905141564+900327874+904386795+913480985+923196716
1113+931346553+938352089+945114274+951186098+955620199+958745968+961937545
1103+965910355+970098583+973584689+976049921+977813662+979320049+980716802
1094+981817486+982359077+982259594+981711842+981137627+981002930+981535489
1084+982589337+983795945+984836491+985665260+986618854+988184259+990411530
1074+992607648+993763919+993263074+991208165+988324347+985687242+984344607
1064+984876956+987110949+990275293+993574474+996620433+999296253+1001494891
1054+1003230558+1004766629+1006376979+1008087303+1009711866+1011057932
1045+1012141043+1013222405+1014517224+1015938900+1017253742+1018236811
1037+1018439348+1016877513+1011767825+1000570560+981658565+957376168+934530989
1027+919896485+915199920+917267431+921990739+926817380+930613697+933349235
1017+935998661+939483997+943529827+947021043+949149952+949697914+948715125
1007+946837689+945829558+947857443+953764116+962347939+971441219+979402030
997+985630745+990137305+992893075+993574614+991955863+988549497+984656778
987+981503145+979212655+976651020+972228261+964968452+955404570+945959565
977+939981062+939458094+943525276+949460653+954842327+958582986+960735908
967+962109208+963780816+966437874+970063438+974156524+978080187+981285276
958+983340605+983686171+981331693+975087576+964701367+952206902+941746203
948+937115027+939122050+945505275+953101549+959738837+964649280+968016720
938+970308190+971641235+971566045+969590316+966081317+962443641+960044287
928+959003671+958312611+957124345+955876432+956184402+959293509+964322407
918+968527857+969843609+968859351+968084209+969683639+973982201+979671915
908+985171625+989751764+993494734+996646546+999272730+1001250699+1002392338
898+1002809453+1003151377+1004149778+1005839519+1007502727+1008554824
890+1009267588+1010327316+1011915684+1013629998+1015088569+1016196394
881+1017013261+1017642783+1018087762+1018250113+1018300659+1018727225
873+1019650786+1020455751+1020415286+1019434248+1018004731+1016608258
864+1015189242+1013192021+1010261438+1006843660+1003832216+1001714789
856+1000415349+999880759+1000292623+1001536756+1002941000+1003951232+1004859811
846+1006501876+1009195618+1012155955+1014165008+1014991746+1016035863
837+1019162682+1024719449+1031012362+1036016827+1039324130+1041992949
829+1044765102+1047123290+1048185819+1047966691+1047436231+1047569109
820+1048547067+1049744223+1050277133+1049562059+1047648569+1045421368
812+1044439349+1046049980+1050300656+1055786224+1060634078+1063643422
803+1064787161+1065051656+1065697210+1067263245+1069292531+1071168496
795+1072770026+1073741823+1072547047+1067462001+1059207851+1051903726
786+1050106941+1054627082+1061991976+1068079412+1071286112+1072170747
778+1071475767+1069084184+1064136286+1056073331+1046041159+1036571790
769+1028948983+1021493777+1011481557+998633056+986259847+978943260+978722731
759+982690570+983752259+973994313+948851083+909803124+862854912+813336453
749+762994686+712612105+665153105+624861154+595124763+578441195+576323698
739+587505456+607559510+631400919+655471119+677666613+696455741+710782135
730+720557514+725712499+723656470+709851713+683756219+653254699+630974774
720+625938735+638708825+663328387+692290686+719967337+743705413+763113842
710+778236381+788649193+794609423+798016418+800977526+803962156+806455253
700+808837804+812554871+818717147+827070150+836145857+843975682+848304838
690+846926358+839861313+831420239+827716614+831349810+839930692+849531188
680+858143365+865891209+873384289+880731541+887298820+891573439+892160256
670+890118579+890973390+899524099+910264134+916755454+919127854+919989387
660+921233730+922989279+924535082+925794896+927424360+929675224+931990777
650+934042395+936448750+939864987+943863140+947266636+948988511+948057599
640+944049365+938697164+935816428+938032848+944287536+951415028+957334583
630+962043959+966398039+970873234+975188319+977189041+970921050+949550054
620+914935426+881847346+866953948+873762059+891842344+908684728+917801181
611+919112312+917260010+918132954+924256025+933562973+941834205+945278305
601+942076297+933215587+921929831+911964027+906269202+906476989+912404384
591+921831608+931601526+939390955+944152138+945555052+943863490+939461874
581+931748965+919958723+906138285+895763417+893719570+899937993+910099893
571+919669445+926680792+932250301+938292722+943602706+943029261+932143747
561+913101396+894646491+885438746+887749609+897228289+907165249+911997351
551+908602887+898065038+887076401+884239770+892802730+908336642+924170054
541+936963458+946530279+953475538+958317721+960509428+957171602+944650043
531+922902958+897981797+879422789+875028244+886060428+905831294+925080943
521+938128340+944066657+945877234+947988290+952323467+957336893+960720086
511+961509999+960097354+957459899+954834206+953470217+953518804+953354562
501+951530684+949426208+949666270+952467196+955661434+957677418+958702352
492+958445558+954871241+946696061+936093804+928217213+927854566+935668078
482+947950695+959963637+968537659+972776713+974001453+974545075+976095007
472+979002908+982529129+985610302+987658280+988880220+989544467+989091718
462+986932005+983850832+981291647+978885572+973906451+964576890+952229935
452+939941787+929703998+920467829+909893926+897248662+883616758+870552489
442+860085349+854775505+856072494+863368849+874105944+883832176+887580257
432+883049334+872926359+862372408+852970178+842068912+828568206+815385341
422+805204189+799946291+806603602+830645728+861070658+884955753+899298460
412+906080247+908756977+909486473+908215666+905282493+902707626+902228693
402+903473736+904015257+901071442+896104152+896200064+903648619+913682542
392+922917590+929747754+930578972+921705031+905097248+890280930+887720485
382+897699030+910967656+919515145+920966925+916721009+910617961+908138096
##END=
