##TITLE=X7657
##JCAMP-DX=4.24
##DATA TYPE=INFRARED SPECTRUM
##DATE=29/10/2018
##SAMPLING PROCEDURE=Diamant-ATR
##ORIGIN=ComPlat
##XUNITS=1/CM
##YUNITS=TRANSMITTANCE
##RESOLUTION=4
##FIRSTX=3997.453
##LASTX=373.96442
##DELTAX=-1.4165319
##MAXY=0.96588999
##MINY=0.65422714
##XFACTOR=1
##YFACTOR=8.9955515e-010
##NPOINTS=2559
##FIRSTY=0.93905371
##XYDATA=(X++(Y..Y))
3997+1043908993+1044154752+1044608766+1044799595+1044642758+1044203784
3989+1043603401+1043196166+1043385869+1044083191+1044701663+1044904353
3980+1044958487+1045122812+1045181983+1044906407+1044531706+1044433309
3972+1044563643+1044549662+1044263220+1044026870+1044148391+1044467235
3963+1044613206+1044566625+1044648191+1045027729+1045490821+1045609493
3955+1045072852+1044045157+1043107643+1042702860+1042840084+1043319410
3946+1043899915+1044403161+1044979757+1045902495+1046853461+1047142819
3938+1046646729+1045735255+1044633349+1043547279+1043025878+1043383484
3929+1044060066+1044360423+1044269779+1044220349+1044473065+1044771170
3921+1044651769+1044019250+1043269119+1042923175+1043168536+1043866454
3912+1044896733+1046114461+1046943707+1046534551+1044740955+1042710745
3904+1041990828+1042678741+1043561856+1044234993+1045135733+1046184366
3895+1046825764+1046759703+1046153290+1045449342+1044812119+1043949345
3887+1042743013+1041546488+1040678215+1040062460+1039943920+1041029394
3878+1043103601+1044917406+1045642027+1045087694+1043458623+1041530320
3870+1040710086+1041841213+1043850088+1045119499+1045035548+1044060795
3861+1043098764+1042649984+1042726912+1043092337+1043337566+1043007855
3853+1042364469+1042619173+1043829348+1045147064+1045920253+1045813243
3844+1044892360+1043617846+1042542709+1041997786+1042088429+1042708691
3836+1043510041+1044156541+1044426021+1044219952+1043801585+1043701930
3827+1044168799+1044876391+1045263483+1045115325+1044662569+1044246920
3819+1043919263+1043712134+1044003215+1044893287+1045667736+1045647858
3810+1044837032+1043810464+1043480091+1044129573+1044551186+1043578156
3802+1041712204+1040817229+1041825377+1043874339+1045966503+1047415943
3793+1047891492+1047587822+1046952056+1046461267+1046438871+1046757118
3785+1046928335+1046646332+1045985453+1045137191+1044425888+1044244600
3776+1044555294+1044982871+1045347235+1045691192+1046005927+1046089283
3768+1045792901+1045431585+1045551714+1046153687+1046560260+1046232868
3759+1045324508+1044482011+1044140175+1044104262+1043824114+1042875600
3751+1041547548+1040708032+1040332470+1039755344+1038936170+1038442863
3742+1038453067+1038383958+1037798947+1036760717+1035788018+1035612230
3734+1036557696+1038372826+1040600227+1042683909+1044143421+1044756659
3725+1044534356+1043658927+1042517596+1041651643+1041478240+1041974793
3717+1042690071+1043075440+1042894418+1042492086+1042616059+1043551122
3708+1044786012+1045808075+1046337824+1046238765+1045652628+1044991021
3700+1044634409+1044733799+1045224124+1045905941+1046731145+1047894871
3691+1049300381+1050023279+1049111142+1047225180+1045661507+1044663895
3683+1043931389+1043350685+1043044696+1043010042+1043038732+1043269848
3674+1044041513+1044663762+1044262424+1043267065+1043388785+1045231280
3666+1047329739+1048352397+1048020964+1046830270+1045434831+1044256063
3657+1043759709+1044359562+1045425687+1045662236+1044665882+1043160055
3649+1042202397+1042000171+1042323322+1043314905+1044777995+1046074374
3640+1046822451+1047157595+1047104719+1046344782+1044918797+1043365063
3632+1041830943+1039985134+1038411655+1038732287+1040533172+1042026344
3623+1042720816+1042997121+1043164428+1043272498+1043402500+1043642097
3615+1043890308+1044069674+1044289856+1044681454+1045444306+1046835438
3606+1048413821+1049042894+1048266524+1046722531+1045293233+1044325769
3598+1043651307+1043038666+1042511633+1042426820+1042935234+1043522299
3589+1043594787+1043295954+1043498180+1044648125+1046185492+1047299524
3581+1047567745+1047241414+1046843654+1046438937+1045911440+1045577423
3572+1045608367+1045455703+1044715776+1044087696+1044609363+1045723659
3564+1046045418+1045653357+1045520307+1046076958+1046920649+1047470873
3555+1047490022+1047091070+1046650638+1046539520+1046710604+1046835305
3547+1046727301+1046398850+1046081199+1046333054+1047539121+1049177402
3538+1050123597+1049844907+1048888376+1048018910+1047437875+1047030110
3530+1046723657+1046426613+1046030377+1045703649+1045952455+1047075565
3521+1048551774+1049398181+1049270564+1048838681+1048907724+1049406000
3513+1049539580+1048867570+1047945825+1047681315+1048131089+1048479882
3504+1048240617+1047871614+1048012085+1048514934+1048774938+1048623865
3496+1048467028+1048732731+1049397651+1050063102+1050404143+1050471330
3488+1050533018+1050660172+1050606832+1050140825+1049351402+1048535209
3479+1047833183+1047212789+1046863665+1047216831+1048253272+1049164945
3471+1049183763+1048402026+1047454308+1046824439+1046668860+1046819602
3462+1046848889+1046605780+1046575963+1047242805+1048388112+1049372207
3454+1049804687+1049749757+1049550977+1049529973+1049671703+1049644338
3445+1049234187+1048646924+1048324171+1048497838+1048826356+1048689595
3437+1048037331+1047548596+1047677273+1048025271+1047998833+1047643745
3428+1047473324+1047739955+1048122939+1048089941+1047539054+1046991348
3420+1046958218+1047330070+1047710668+1048013344+1048335965+1048560123
3411+1048491676+1048238828+1048148780+1048404080+1048872208+1049314163
3403+1049566614+1049531430+1049182306+1048605710+1047889769+1047063108
3394+1046309730+1046012421+1046284087+1046710008+1046861412+1046736909
3386+1046489958+1046159651+1045958021+1046339481+1047348159+1048280174
3377+1048446222+1048018513+1047711264+1047883276+1048284083+1048510825
3369+1048498170+1048560918+1048871877+1049015330+1048560852+1047987304
3360+1048213317+1049162361+1049704170+1049205563+1048284547+1047759833
3352+1047706958+1047869361+1048223058+1048758373+1049253734+1049530966
3343+1049557272+1049268974+1048660971+1047936019+1047278983+1046735319
3335+1046490488+1046868104+1047829075+1048788058+1049161566+1048953907
3326+1048682505+1048838946+1049516058+1050377638+1050852392+1050584304
3318+1049842522+1049267185+1049219875+1049612069+1050122139+1050262942
3309+1049615316+1048345970+1047199007+1046808073+1047193574+1047819732
3301+1048043559+1047675749+1047046344+1046458815+1045987242+1045869166
3292+1046490885+1047778850+1049089807+1049887645+1050200591+1050296867
3284+1050262611+1050159444+1050267647+1050716890+1051086556+1050923291
3275+1050469939+1050313035+1050507243+1050601863+1050366175+1049986770
3267+1049643079+1049323241+1049107299+1049239024+1049711989+1050105111
3258+1050079335+1049774738+1049478356+1049138044+1048488164+1047583051
3250+1046976903+1047214313+1048159580+1049022221+1049196287+1049003072
3241+1049320259+1050391884+1051344043+1051232858+1050302963+1049614786
3233+1049667330+1049994257+1049923425+1049281431+1048510560+1048310124
3224+1048975044+1050034345+1050769368+1051024669+1051207348+1051512873
3216+1051621209+1051348813+1051097422+1051255386+1051570718+1051552364
3207+1051159839+1050734781+1050510821+1050425810+1050297397+1050116242
3199+1050093382+1050357363+1050774007+1051155267+1051411032+1051466889
3190+1051235310+1050649040+1049774870+1049047069+1049073175+1049870351
3182+1050735311+1051143473+1051279373+1051468015+1051600469+1051390491
3173+1050833111+1050195026+1049774009+1049787990+1050260358+1050874523
3165+1051222058+1051303823+1051416332+1051560051+1051441047+1050945885
3156+1050207549+1049515727+1049340402+1049863725+1050487365+1050491341
3148+1049966627+1049479482+1049259896+1049198871+1049124991+1048877045
3139+1048563171+1048611342+1049154874+1049696683+1049724247+1049332120
3131+1049028383+1049195624+1049839937+1050625650+1051084104+1050929387
3122+1050306873+1049727627+1049611207+1049865116+1050061644+1049964639
3114+1049636386+1049108558+1048297402+1047312180+1046633941+1046765401
3105+1047604586+1048360680+1048391557+1047944368+1047655738+1047624199
3097+1047562775+1047511821+1047702982+1047965173+1047920646+1047635595
3088+1047609489+1048152226+1049002012+1049570988+1049483723+1048844710
3080+1048003140+1047138114+1046161904+1045038529+1044069674+1043632556
3071+1043611419+1043412307+1042672115+1041678942+1041074914+1041357050
3063+1042501429+1043884212+1044855055+1045369698+1045667669+1045627781
3054+1045116253+1044594255+1044635867+1045134143+1045534420+1045623805
3046+1045692252+1045983001+1046283226+1046247711+1045963521+1045799660
3037+1045776071+1045605716+1045279054+1045053902+1044975516+1044838358
3029+1044485324+1043921715+1043322988+1042941860+1042845584+1042926554
3020+1043166018+1043494470+1043524750+1042993145+1042284758+1041967372
3012+1042044433+1042127324+1042001960+1041660190+1041114008+1040460484
3003+1039898201+1039534366+1039268531+1038883493+1038303783+1037797158
2995+1037714333+1037988782+1038204393+1038156619+1037996270+1037918017
2986+1037982819+1038084330+1037941141+1037311206+1036210228+1034777021
2978+1033165509+1031637219+1030320298+1028809965+1026485096+1023259287
2969+1019584964+1015760827+1011667342+1007212806+1002674450+998419357+994530351
2959+990934480+987711653+985028051+982952652+981539522+980908195+981131359
2949+982236645+984290576+987174283+990274794+992726949+994109202+994716674
2939+995094424+995568780+996345481+997594816+999070959+1000016226+999898615
2929+999036371+998252779+998121253+998629932+999447383+1000495287+1002109980
2919+1004431470+1006925369+1008900849+1010250700+1011349426+1012482607
2911+1013625395+1014613135+1015410112+1016234123+1017306874+1018485510
2902+1019370347+1019783943+1019916066+1020037720+1020332246+1020949260
2894+1021930109+1023069452+1024066336+1024808515+1025378021+1025882990
2885+1026387296+1026858008+1027135770+1027082828+1026691098+1025888291
2877+1024432887+1022257765+1019802165+1017815023+1016838349+1016864787
2868+1017428661+1018041766+1018570588+1019198005+1020144398+1021490274
2860+1023120075+1024707999+1025873117+1026499872+1026852177+1027220782
2851+1027544529+1027591772+1027447590+1027540156+1028238471+1029611845
2843+1031414452+1033173791+1034571350+1035781922+1037143303+1038616796
2834+1039929476+1041037212+1042049270+1042902965+1043461472+1043811458
2826+1044220879+1044825834+1045484195+1045945962+1046059134+1045785016
2817+1045244400+1044835840+1045001888+1045716967+1046481013+1046910378
2809+1047071390+1047212458+1047458813+1047814696+1048216432+1048468949
2800+1048307208+1047711794+1047085901+1046918594+1047309264+1047957090
2792+1048489158+1048687873+1048601668+1048543160+1048791305+1049241476
2783+1049521823+1049443371+1049145399+1048836163+1048610945+1048513078
2775+1048549786+1048623335+1048632214+1048629100+1048713780+1048885593
2766+1049170776+1049669980+1050283615+1050664677+1050634529+1050410106
2758+1050293289+1050332383+1050346629+1050152752+1049759961+1049388772
2749+1049264269+1049400898+1049651891+1049936478+1050269303+1050549915
2741+1050543355+1050239751+1050043356+1050331853+1050950855+1051398508
2732+1051414808+1051124589+1050698470+1050212982+1049804687+1049627971
2724+1049637248+1049679654+1049757311+1049957218+1050225505+1050463048
2715+1050686344+1050908846+1051046733+1051097224+1051231533+1051608553
2707+1052167656+1052634856+1052731530+1052412288+1051865245+1051267645
2698+1050667990+1050162757+1050002076+1050317541+1050850802+1051213444
2690+1051362529+1051488357+1051530631+1051271289+1050867698+1050781626
2681+1051144533+1051612131+1051854974+1051849144+1051684686+1051396388
2673+1051061443+1050849013+1050857693+1051010489+1051187536+1051355108
2664+1051509428+1051610276+1051604842+1051449595+1051158050+1050877041
2656+1050845766+1051224642+1051950588+1052711320+1053145987+1053200121
2647+1053173617+1053303288+1053494184+1053563691+1053492329+1053339798
2639+1053124386+1052836751+1052445153+1051947540+1051538383+1051576085
2630+1052186938+1053022080+1053624451+1053917520+1054051365+1053951180
2622+1053459530+1052841654+1052621405+1052874585+1053153673+1053192303
2614+1053215096+1053412816+1053615771+1053702903+1053826876+1054011278
2605+1054069521+1054097350+1054416989+1054876834+1054888827+1054331513
2597+1053814552+1053867427+1054349403+1054821639+1055105034+1055255577
2588+1055291821+1055227947+1055223375+1055454622+1055886904+1056265580
2580+1056315540+1056020550+1055705218+1055641609+1055724301+1055875573
2571+1056392203+1057327200+1058073157+1058275979+1058545658+1059467932
2563+1060479460+1060492513+1059280151+1057616624+1056339527+1055769557
2554+1055803747+1056133590+1056476552+1056774524+1057017765+1056964691
2546+1056461048+1055941568+1056067462+1056912345+1057894188+1058360129
2537+1058043472+1057237020+1056604037+1056564612+1056980461+1057574218
2529+1058231121+1058739336+1058790290+1058390145+1057798641+1057095157
2520+1056286253+1055699917+1055746962+1056349466+1056976618+1057229135
2512+1057237616+1057525185+1058467603+1059807118+1060859727+1061252318
2503+1061137224+1060654121+1059747418+1058648228+1057955214+1058003252
2495+1058528960+1059023526+1059129674+1058770280+1058208394+1057955412
2486+1058406114+1059539162+1060968658+1062143053+1062510001+1061833486
2478+1060554930+1059533132+1059182285+1059133120+1058946863+1058778098
2469+1058986818+1059390077+1059373909+1058768093+1058245234+1058514052
2461+1059287241+1059560034+1058923539+1057990928+1057423741+1057271740
2452+1057433614+1058002921+1058842437+1059416581+1059356748+1058829052
2444+1058230922+1057824880+1057663338+1057600457+1057387894+1056943223
2435+1056523995+1056529296+1057148496+1058204617+1059247883+1059803209
2427+1059720516+1059343562+1059109068+1058984764+1058680497+1058346811
2418+1058432419+1058888024+1059228336+1059354031+1059587267+1060013850
2410+1060421880+1060718195+1060941094+1061094221+1061189835+1061226808
2401+1061116021+1060841505+1060529884+1060232972+1059905183+1059640275
2393+1059641468+1059969986+1060487278+1060849788+1060459515+1058834419
2384+1056243118+1053585490+1051471063+1049751083+1048015929+1046134406
2376+1044167805+1042109434+1039854469+1037284172+1034465665+1031706792
2367+1029140669+1026634976+1024583165+1023927587+1024729600+1025840650
2359+1026677383+1028026108+1030470179+1033356603+1035769134+1037433125
2350+1038356791+1038380645+1037349969+1035561011+1033950824+1033406298
2342+1033867270+1034614286+1035164908+1035646354+1036359976+1037177493
2333+1037722218+1038025623+1038354936+1038479836+1037993222+1037224869
2325+1036975466+1037533112+1038601291+1040002295+1041734335+1043468429
2316+1044674960+1045167074+1045199343+1045172242+1045409454+1046129569
2308+1047467825+1049336294+1051231334+1052482193+1052930111+1053190580
2299+1054016247+1055470260+1056807787+1057163074+1056384517+1055228675
2291+1054670699+1055078596+1056130343+1057333694+1058349329+1058928641
2282+1058969192+1058728999+1058661348+1058901342+1059136300+1059047711
2274+1058633519+1058065404+1057491194+1057040559+1056836411+1056929772
2265+1057288173+1057756102+1057950178+1057427650+1056221849+1054959725
2257+1054145057+1053732853+1053708535+1054337609+1055416788+1056282344
2248+1056958595+1058135176+1059725618+1060753975+1060932878+1061098131
2240+1061772526+1062297174+1061785248+1060401140+1059259942+1059224758
2231+1060087398+1060897694+1060971309+1060651206+1060950039+1062277031
2223+1063970905+1065227860+1065668357+1065005491+1063347662+1061743968
2214+1061388217+1062536174+1064590503+1066606534+1067732824+1067859447
2206+1067538218+1066960430+1065807570+1064103558+1062370060+1061116087
2197+1060432680+1059698054+1057996891+1055381736+1053102123+1052185414
2189+1052389362+1052734776+1052722386+1053026652+1054784335+1057948323
2180+1061061224+1062919953+1063417500+1062550486+1059965347+1056252129
2172+1053586948+1053792885+1056079323+1057815338+1057578657+1056526976
2163+1056949451+1060071231+1064538688+1067167426+1066651922+1065034844
2155+1064397885+1065038024+1066305249+1067183527+1066943732+1066009597
2146+1065277555+1064790278+1064064729+1062781204+1060580506+1057622389
2138+1055584559+1056399426+1059768886+1063352234+1065473552+1066246079
2129+1066207980+1065341562+1063574934+1061376953+1059726943+1059628415
2121+1061149615+1062925916+1063524444+1063231906+1063343156+1063981440
2112+1064011787+1062940957+1061601443+1060935263+1061008348+1061284388
2104+1061371586+1061320632+1061298567+1061235422+1061002252+1060785780
2095+1060929167+1061385700+1061700501+1061632121+1061388814+1061162535
2087+1060985024+1061098926+1061674660+1062166774+1061924659+1061366550
2078+1061489595+1062402064+1063324802+1063787563+1063914054+1063862039
2070+1063749066+1063847197+1064329173+1064983426+1065384697+1065198771
2061+1064242505+1062513314+1060509277+1059439904+1060343030+1062371518
2053+1062752381+1059736882+1055254583+1053432363+1056245106+1061707658
2044+1066703407+1070133892+1072546623+1073741823+1072400188+1068435181
2036+1064116147+1061756690+1061534586+1062663062+1064944001+1067624091
2027+1068772379+1067867067+1067304386+1069157814+1071770717+1071703396
2019+1068144366+1063619660+1061247812+1062619132+1067018937+1071504881
2010+1073248450+1072529461+1071615668+1070967710+1069253030+1066652386
2002+1065282789+1066427499+1068908875+1070241896+1069075122+1066469840
1993+1064646493+1064519340+1064830763+1063812941+1060873906+1056767236
1985+1053098942+1051426669+1052322042+1055473705+1060432945+1066202480
1976+1070402246+1070870639+1068073070+1064234024+1060706533+1057814543
1968+1056490666+1057651543+1059956733+1060886098+1060227804+1060346012
1959+1062723624+1065791203+1066728453+1064471235+1060780082+1058691695
1951+1059863903+1063272921+1066284576+1067034906+1065877408+1064484288
1942+1063867142+1063875755+1064360581+1065461493+1066809158+1067580359
1934+1067365147+1066480773+1065665508+1065553992+1066015096+1066196782
1925+1065651593+1065017881+1065056643+1065426706+1065317377+1064884897
1917+1065026561+1065773313+1066279342+1066362167+1066724345+1067591955
1908+1068106332+1067624621+1066770727+1066562272+1067104413+1067637078
1900+1067605074+1067160336+1066741307+1066633237+1066816844+1067035900
1891+1067074066+1066951750+1066968513+1067618393+1069038480+1070422455
1883+1070640517+1069714598+1068778276+1068568364+1068889593+1069283377
1874+1069489380+1069471291+1069258331+1068688494+1067672461+1066796038
1866+1066756613+1067493426+1068411394+1068856000+1068506146+1067674051
1857+1067082083+1067266816+1068232425+1069445516+1070162981+1070066506
1849+1069529666+1069159670+1069268204+1069721688+1070091685+1070194322
1840+1070237855+1070355135+1070356261+1069847715+1068577111+1066727326
1832+1064905305+1063924589+1064325794+1065861903+1067692935+1068952408
1823+1069306370+1068994086+1068361169+1067864880+1067960693+1068456583
1815+1068696578+1068425242+1067868724+1067348449+1067130056+1067268672
1806+1067551072+1067705194+1067557765+1067169149+1066937305+1067173920
1798+1067662655+1068023176+1068009924+1067484348+1066742169+1066437770
1789+1066639929+1066949563+1067054055+1066664644+1065742038+1064753503
1781+1064087722+1063617142+1063080104+1062274579+1060906374+1058712169
1772+1055718603+1052264727+1048467094+1043772630+1037483483+1029129140
1764+1017634199+1001735610+982734192+963305197+943395551+922623396+903212424
1754+886640565+871667962+857292892+844870972+835874436+829264325+822681580
1744+814381968+803784587+791242008+778774170+769778429+766424142+770090382
1734+781987389+798822565+816298807+835095747+855550449+875675176+894568789
1724+912453791+928239075+940796696+951304360+962428840+975031783+986184357
1714+994058115+999933997+1005057297+1009562655+1013285746+1016504199+1019620811
1704+1022422819+1024503255+1026133321+1027999405+1030065661+1032012847
1696+1034187439+1036457842+1038105069+1038988979+1039414966+1039527475
1687+1039183718+1038153770+1036500116+1034838974+1033208379+1030924458
1679+1027469854+1022282812+1014747842+1005384755+995539162+984845969+971896684
1669+957837477+945552119+934764240+923251211+910261044+897825276+888545942
1659+882842203+879891242+879696570+885547207+901680887+918183238+924916991
1649+924768767+919524145+909342347+897599462+887754200+881403563+880058218
1639+884999965+898179238+921932767+950065826+970838974+983524543+992587538
1629+1000366080+1007135679+1012611151+1016933565+1020443298+1022956810
1621+1024017966+1023597545+1022039107+1020197075+1019252073+1019627569
1612+1021358085+1024643859+1029211170+1033851301+1037350697+1039509188
1604+1040824186+1041703458+1042155882+1041945109+1041015082+1039780523
1595+1038789801+1038063988+1037136478+1035817902+1034607197+1034279474
1587+1035185382+1037056039+1039372095+1041627391+1043311393+1044041182
1578+1043756396+1042864137+1042161779+1041842671+1041528333+1041514219
1570+1042795028+1045408791+1048066286+1050050910+1051223383+1051238424
1561+1049884266+1048342856+1049547929+1052559850+1054475099+1055319120
1553+1055744378+1056033007+1056230197+1056200844+1055682822+1054563424
1544+1053045338+1051448071+1050320787+1051018838+1053343044+1055074090
1536+1055427721+1055124382+1055350594+1056234637+1056853241+1056767699
1527+1056234107+1055607352+1054829591+1053746569+1052733716+1052196678
1519+1051913283+1051947209+1052741005+1053989810+1054803484+1054625112
1510+1053298186+1051180181+1050227095+1052365575+1055070711+1056155920
1502+1055683154+1054001471+1051190186+1046758974+1040017270+1031039287
1493+1019783744+1005816241+991663673+985135923+990240140+1000793988+1009695705
1483+1014280973+1014892024+1012851344+1009136006+1004245942+999157760+995899550
1473+996539292+1000420479+1003960692+1004994681+1003442803+999384105+992912809
1463+985018841+976807289+968327450+959437791+952031167+949652031+951025405
1453+952447480+952607829+951229354+948304565+944335185+940069689+935613165
1443+930241788+923329464+915001095+905438102+894585089+884402762+878988713
1434+879387599+883981745+891350336+899208655+904299951+904630192+899918036
1424+891286726+880843864+870148021+860870939+856582385+859077741+866268887
1414+876313725+888761751+903107666+917998638+932039955+945093930+957693825
1404+969212619+978432120+985424155+990969929+995129806+997363436+997512388
1394+995953817+993076537+989046927+984307274+980189074+978346843+978823850
1384+979912769+980085576+978739899+975827766+971326715+964838986+955810182
1374+944681792+933597134+924729408+918916738+916419062+917239694+920953376
1364+927189846+935398085+943869310+950754268+955870810+960429838+965924592
1354+973071013+981196228+988911757+995265507+1000089576+1003678358+1006384952
1344+1008313320+1009198291+1008592739+1006194917+1001977592+995982376+988284472
1334+979415818+970560549+963071166+957694686+954131084+951154546+947170258
1324+940976923+932374436+922367367+913076636+907192935+906485939+910495141
1315+917161176+924397379+930863573+935982168+939735937+942441868+944521376
1305+946237514+947526671+948086304+947574908+945716245+942419207+937926042
1295+932677775+926958863+920880423+914758186+909406554+906071747+905895694
1285+909054977+914311261+919545480+922870944+923459400+921627838+918403487
1275+914946431+912030985+909722813+907499918+904902852+902195927+900304333
1265+900019944+901242907+902944269+903815656+902988464+900257752+895841050
1255+890226961+884281572+879134087+875621571+873772251+872832815+871798892
1245+870040149+867610059+865046189+862884982+861432560+860925736+861683819
1235+864028301+868173336+874175047+881835844+890613589+899688644+908148406
1225+915091209+919593652+920847625+918707422+914130901+908696709+903397886
1215+897916781+890968545+881162443+867712298+850727175+831075745+810169745
1205+789937677+772685460+760537459+754802579+755758514+762766252+774346005
1196+788314569+802356218+814804178+824950128+832694944+837967992+840349381
1186+839123303+833715880+824081855+810746606+794714503+777363492+760211923
1176+744818170+733079525+727278517+729140824+738600982+753671187+771609329
1166+790160642+807852827+823703179+837151335+848198622+857338280+865262528
1156+872553131+879470954+886030972+892391216+899137956+907050409+916506658
1146+927102515+937845668+947741751+956269298+963401208+969258537+973779731
1136+976753552+978210546+978695239+978998114+979627055+980648919+981991615
1126+983705102+985837021+988142079+990040233+990875707+990142936+987488555
1116+982696159+975807689+967092758+956682894+944380574+930157902+914971411
1106+900981312+890890822+886895733+889823702+898793999+911613546+925768698
1096+939331618+951252015+961190372+969242502+975606324+980297674+983161106
1086+984117240+983310655+981080140+977919466+974463801+971366603+969034313
1077+967426047+966192813+965122712+964487609+964957459+967123304+970962483
1067+975747458+980594983+985065356+989064354+992380541+994645842+995529885
1057+994608869+991364177+985839341+979226314+973434052+969940950+968964939
1047+969566581+970443865+970597124+969384630+966392323+961547647+955232923
1037+948252485+941909203+937813267+936882511+938458375+940963671+943413507
1027+945669201+947319476+947237446+944645349+940138865+935380195+932041479
1017+931103501+932725814+936293127+940507536+943781847+944984137+944023432
1007+941763762+939448103+938192540+938813861+941878591+947695634+956051435
997+965940826+975822067+984385792+991097281+996045919+999458515+1001457980
987+1002117534+1001507609+999747608+997339648+995478931+995554136+998046776
977+1002092488+1006181003+1009111622+1010397798+1010090682+1008319217
969+1004959232+999784515+992870866+984767583+976359636+968622639+962378748
959+958115902+955855106+955076019+954996242+955299912+956557795+959622525
949+964646964+970933726+977600622+984049522+989825219+994421154+997414257
939+998662002+998325930+996776304+994311295+990729935+985349612+977744207
929+968445724+958820181+950433636+944583595+941997859+942505876+945003551
919+948125133+951196157+954465432+958471056+963445536+969237201+975354668
909+981031572+985612930+989016116+991743450+994480192+997570498+1000706591
899+1003262509+1005128196+1006995936+1009624277+1013010634+1016484586
891+1019517312+1022192300+1024771542+1027069775+1028603763+1029215079
882+1029246222+1029215278+1029381260+1029328981+1028088061+1025138756
874+1021220330+1017777321+1015802041+1015377777+1015969281+1016933234
866+1017953441+1019064424+1020245578+1021257370+1021968606+1022490935
857+1022800038+1022534534+1021378692+1019397448+1016857299+1014034485
849+1011397531+1009634348+1009175431+1009823720+1011044762+1012490425
840+1014082789+1015705632+1016902555+1016648249+1013423103+1006269858+996464219
830+987643737+983295084+983930651+987073634+989880546+991309777+991775188
820+991463965+989817466+986819858+984114722+984033156+987483983+993273860
810+999462424+1004751175+1008332469+1009041585+1005405693+996763185+984322447
800+970993691+959794337+952214045+948330937+948243142+952384334+960286319
790+969974478+978920987+985142483+987582115+986246377+982271232+977516538
781+973515751+970317838+966322087+959605032+949556351+937227461+924430376
771+912852743+903843220+898292344+895936067+894762666+891784406+884799991
761+873479381+859032883+843202410+827786923+815115136+808169219+809003832
751+816985461+829426862+843791992+858684487+873322544+887128041+899805990
741+911430801+922637642+934611047+948101875+962217537+974749051+983856042
731+988956814+989995574+986773807+979715977+970756149+962515243+956755846
721+954319726+956010221+962218199+971679219+981777727+990468804+997427377
711+1003127338+1007471816+1009980889+1010758915+1010353403+1008878917
703+1006040399+1001955727+997501853+993864569+991773929+990752198+988964831
693+984523149+977662177+971429219+969437108+972690083+979041581+985474380
683+989925802+991535592+990899031+990123853+991294670+994608670+998439898
673+1000862434+1001017218+1000047302+1001814195+1009066963+1017461857
664+1022648170+1025015645+1026623579+1028826861+1031303334+1032788356
656+1032531465+1030736942+1027837597+1023956410+1019383600+1015170648
647+1012672839+1012540120+1014545020+1018080196+1022211383+1025412145
639+1026023064+1023455152+1018851928+1014495523+1012493341+1013689270
630+1017407126+1022013530+1025940239+1028498741+1029799560+1029929960
622+1028596276+1025879279+1022874250+1020822637+1019616835+1017915474
613+1014912697+1011277732+1008309345+1006920532+1007594795+1010527270
605+1015057144+1019148310+1020316476+1017625718+1012450669+1006966583
596+1002555580+999985415+999961363+1002712682+1007690011+1014067350+1020957874
586+1027125500+1031410410+1033738725+1035087052+1036373095+1037740307
578+1038666822+1038484475+1037137539+1035522183+1034689889+1034808429
569+1035241902+1035598581+1036192006+1037059087+1037205389+1035801469
561+1033798624+1033084207+1034042594+1035380452+1036463607+1038150457
552+1040683781+1042233274+1040724001+1036498791+1031916770+1028659091
544+1026743245+1025893128+1026408698+1028409290+1031282329+1034245880
535+1036730768+1038041724+1037352288+1034489386+1030680356+1028191493
527+1028822091+1032317644+1036414839+1038730432+1037898934+1033678693
518+1027472438+1021939584+1018838742+1018022351+1018725835+1020481132
510+1022689715+1024466149+1025532739+1026652270+1028127883+1028305129
501+1025352776+1020571180+1017292297+1016942377+1018332449+1019842517
493+1021038513+1022452703+1024852313+1028502120+1032262582+1033789812
484+1031736079+1027562750+1023758425+1020954561+1018294018+1015637715
476+1014039256+1014431251+1016734321+1019905133+1022745837+1024946668
467+1026940634+1028928571+1030403521+1030559232+1029030015+1026544862
459+1024883721+1025219262+1026030419+1024967805+1022141876+1018957083
450+1015277989+1009924965+1003722354+999564067+998943541+1000492769+1002502969
441+1004724009+1007273102+1010057419+1013606710+1018590068+1023985962
432+1027386565+1027531277+1025341578+1022015452+1017181576+1009799800
424+1000208778+989820051+979829878+973413246+975498387+983967889+991886307
414+996050027+997396897+998213686+998955799+998313672+996284190+994936261
404+995836868+998088388+998505893+993245236+983255063+977609236+980413696
394+984916867+985314759+981674494+975269259+965627018+953751744+944968102
384+944290857+949170386+952701588+950774345+942235998+927199785+909672389
374+898702096
##END=
