##TITLE=SG-X10421
##JCAMP-DX=4.24
##DATA TYPE=INFRARED SPECTRUM
##DATE=5/4/2019
##SAMPLING PROCEDURE=Diamant-ATR
##ORIGIN=Angelika Moesle
##XUNITS=1/CM
##YUNITS=TRANSMITTANCE
##RESOLUTION=4
##FIRSTX=3997.453
##LASTX=373.96442
##DELTAX=-1.4165319
##MAXY=0.9126206
##MINY=0.59255415
##XFACTOR=1
##YFACTOR=8.4994417e-010
##NPOINTS=2559
##FIRSTY=0.88063622
##XYDATA=(X++(Y..Y))
3997+1036110659+1034989807+1034041330+1033586692+1033859699+1034821290
3989+1035958902+1036523851+1036125736+1035079080+1034109284+1033646721
3980+1033569581+1033717550+1034207953+1034919680+1035235605+1034836578
3972+1034275486+1034237968+1034680193+1035083358+1035181957+1035132938
3963+1035189741+1035376351+1035429789+1035108744+1034520022+1034011736
3955+1033830736+1034010053+1034464200+1035035671+1035489958+1035570325
3946+1035140442+1034365951+1033734100+1033683398+1034131654+1034604175
3938+1034750602+1034515253+1034088806+1033844552+1034097783+1034757614
3929+1035355103+1035429508+1034758035+1033483464+1032220744+1031712178
3921+1032273130+1033649106+1035102643+1035787300+1035565626+1035127678
3912+1035068771+1035334695+1035521656+1035365201+1034865331+1034204447
3904+1033676946+1033479887+1033632205+1034173240+1034999275+1035597604
3895+1035531965+1035025643+1034843451+1035441780+1036241657+1036468029
3887+1036133801+1035696835+1035428456+1035316673+1035373406+1035495078
3878+1035326070+1034796185+1034204447+1033640901+1032903227+1032181403
3870+1032172146+1032964308+1033791254+1034334324+1034915191+1035563452
3861+1035820470+1035532526+1035042193+1034641623+1034259427+1033731085
3853+1033399381+1033722179+1034356624+1034972065+1035639961+1036388505
3844+1036849665+1036483948+1035312605+1034187125+1034081092+1035069823
3836+1036221881+1036827504+1036892583+1036597836+1036154418+1035925031
3827+1036053364+1036037796+1035255942+1033972465+1033340333+1034073308
3819+1035345986+1036264869+1036839636+1037191046+1037218817+1036864391
3810+1036177280+1035350334+1034769115+1034605928+1034499474+1034251362
3802+1034296104+1034980130+1035805112+1036273355+1036545170+1036824559
3793+1036926244+1036691106+1036349514+1036215289+1036273565+1036304562
3785+1036180716+1035870682+1035453141+1035213445+1035435048+1036001680
3776+1036483387+1036577639+1036263607+1035795014+1035566257+1035660859
3768+1035681407+1035440658+1035305803+1035537715+1035866334+1035987164
3759+1036055889+1036402250+1036914392+1037134664+1036795666+1036098246
3751+1035724886+1036024892+1036373357+1036371253+1036318377+1036419571
3742+1036342781+1035979309+1035580844+1035291146+1035256713+1035686386
3734+1036234083+1036091303+1035239392+1034463920+1034372754+1034964561
3725+1035697256+1035970403+1035827132+1035844033+1036301476+1036819299
3717+1036830660+1036209118+1035458681+1035405034+1036396710+1037685166
3708+1038424943+1038584694+1038401591+1037949688+1037263909+1036607654
3700+1036354843+1036455547+1036461858+1036099298+1035475863+1034793590
3691+1034296525+1034443933+1035283713+1035903291+1035892702+1036008623
3683+1036916075+1038360286+1039489132+1039773780+1039415708+1038887436
3674+1038357691+1037813430+1037481936+1037590914+1037878929+1037857260
3666+1037545963+1037250444+1037068814+1036773716+1036063393+1035056218
3657+1034510344+1035088758+1036184573+1036601903+1036167041+1035840667
3649+1036627991+1037936364+1038418071+1037979212+1037298412+1036914743
3640+1036936833+1037142798+1037330811+1037499468+1037626189+1037475414
3632+1036847771+1035981343+1035518500+1035686877+1035890528+1035907499
3623+1036008763+1036236818+1036482195+1036990621+1038066030+1039270543
3615+1039797693+1039241370+1037856839+1036411927+1035627829+1035669836
3606+1036095160+1036375671+1036390749+1036390819+1036698469+1037281511
3598+1037705784+1037749473+1037718968+1037867148+1037928650+1037641897
3589+1037227863+1037119095+1037440140+1037861888+1038021569+1037852842
3581+1037621210+1037685306+1038010909+1038125218+1037759291+1037220921
3572+1036947282+1036965305+1036989780+1036812076+1036457931+1036054486
3564+1035688770+1035456998+1035469551+1035706092+1035965985+1036040531
3555+1035878325+1035563242+1035255661+1035123541+1035217512+1035472005
3547+1035854272+1036354773+1036789565+1036864391+1036543136+1036130154
3538+1035919561+1035874539+1035760441+1035523339+1035338763+1035295704
3530+1035309099+1035348440+1035436100+1035395707+1035072768+1034817293
3521+1035158815+1036007711+1036732411+1036935220+1036728834+1036389627
3513+1036077348+1035826501+1035629863+1035532456+1035618572+1035838844
3504+1035974961+1035875591+1035659457+1035587225+1035762615+1036059255
3496+1036308910+1036454074+1036457019+1036215009+1035722922+1035189531
3488+1034843100+1034762453+1034921363+1035164215+1035174804+1034782019
3479+1034268263+1034073729+1034298488+1034700320+1035041351+1035282380
3471+1035480210+1035650971+1035800764+1035967528+1036119845+1036111781
3462+1035884497+1035591363+1035416394+1035412748+1035479299+1035333433
3454+1034720096+1033831578+1033208563+1033137734+1033518528+1034211670
3445+1035049767+1035667662+1035769277+1035421654+1034896818+1034397158
3437+1033978916+1033571474+1033139417+1032893199+1033146570+1033882841
3428+1034629561+1034835106+1034353258+1033603102+1033199096+1033351133
3420+1033726667+1033915801+1033808857+1033515092+1033220625+1033122306
3411+1033238578+1033348959+1033307443+1033261720+1033357094+1033442650
3403+1033278691+1032841164+1032285963+1031801381+1031545344+1031542749
3394+1031643944+1031704324+1031694436+1031572343+1031284820+1030985865
3386+1030992738+1031398707+1031929153+1032233578+1032138414+1031685319
3377+1031121703+1030753883+1030702549+1030935303+1031426828+1032001455
3369+1032220885+1031820455+1031115391+1030702900+1030899468+1031552567
3360+1032227617+1032586180+1032652240+1032596769+1032406372+1032043602
3352+1031743665+1031770244+1032032241+1032254896+1032413806+1032685691
3343+1033002809+1033011014+1032599574+1032146058+1032032311+1032209243
3335+1032403918+1032493681+1032565632+1032788288+1033231425+1033758365
3326+1034162020+1034326680+1034179902+1033737326+1033294610+1033232757
3318+1033527715+1033752404+1033658362+1033512847+1033742305+1034326750
3309+1034699338+1034349050+1033460953+1032766338+1032785623+1033391807
3301+1034124852+1034696042+1035061267+1035249841+1035369970+1035589610
3292+1035857918+1035866264+1035510085+1035138408+1035087635+1035202855
3284+1035086093+1034671217+1034278572+1034151851+1034241124+1034423456
3275+1034605578+1034621006+1034420651+1034321350+1034648426+1035237919
3267+1035671308+1035838773+1035923067+1036023490+1036091233+1036079312
3258+1035986252+1035866965+1035841579+1035968440+1036140253+1036227211
3250+1036276931+1036413330+1036614035+1036796578+1037057733+1037522330
3241+1037969744+1037977669+1037506340+1037010047+1036884378+1037098548
3233+1037438737+1037793093+1038117363+1038382376+1038598439+1038707348
3224+1038526839+1038000530+1037406969+1037161522+1037443927+1038053056
3216+1038585536+1038799846+1038801740+1038798514+1038800197+1038722495
3207+1038599912+1038525226+1038520317+1038575087+1038662817+1038682943
3199+1038543950+1038367088+1038470526+1038994942+1039606245+1039787665
3190+1039465148+1039116403+1039197050+1039620902+1039873291+1039570269
3182+1038885122+1038384339+1038453906+1038984282+1039599583+1040020910
3173+1040177295+1040137603+1040004430+1039850710+1039725883+1039636189
3165+1039471880+1039071872+1038462462+1037974864+1038025776+1038709662
3156+1039624198+1040198754+1040219652+1039941666+1039702670+1039595024
3148+1039561714+1039606946+1039743765+1039869504+1039902815+1039896714
3139+1039811439+1039396212+1038527751+1037441192+1036456038+1035693609
3131+1035122910+1034689871+1034440497+1034588466+1035253488+1036116339
3122+1036645032+1036693420+1036629043+1036860043+1037421556+1038063926
3114+1038617725+1039098450+1039479244+1039646428+1039614730+1039539273
3105+1039500983+1039477280+1039430715+1039280431+1038951743+1038553207
3097+1038322627+1038316526+1038242471+1037680468+1036524973+1035216460
3088+1034383974+1034178640+1034124992+1033722529+1033026301+1032503429
3080+1032422081+1032534636+1032342065+1031485806+1029829529+1027441049
3071+1024755158+1022603569+1021761616+1022375163+1023903106+1025634770
3063+1027188449+1028506991+1029599931+1030482559+1031235520+1031929364
3054+1032585759+1033270556+1034027585+1034681315+1034930058+1034660488
3046+1034029829+1033358496+1033037452+1033258214+1033673300+1033572246
3037+1032574819+1030991756+1029427838+1028193730+1027205210+1026345234
3029+1025724744+1025504963+1025619973+1025816050+1025904200+1025878534
3020+1025843961+1025889404+1025965983+1025802515+1024932090+1022919775
3012+1019773706+1016133796+1012738703+1009588496+1006053077+1002126626
3003+999197392+999029296+1002090791+1007202120+1012576638+1016894191+1019691235
2993+1021234115+1022056854+1022511912+1022755396+1022941585+1023190398
2985+1023502887+1023856822+1024237195+1024517355+1024444632+1023752822
2976+1022228176+1019729525+1016201189+1011687419+1006458205+1001187125
2968+996850357+994253668+993565996+994238591+995349694+996100832+996087368
2958+995142677+993069702+989808833+985969200+982858195+981635939+982477331
2948+984657251+987272384+989750837+991785523+992926992+992365199+989264712
2938+983203854+974100575+962106491+948133614+934219223+922715822+915023864
2928+911208916+910431761+911423998+912956148+914473782+916400471+919590721
2918+924368242+930123343+935835666+940857653+945120646+948745618+951735303
2908+954110108+956075998+957833048+959316530+960312063+960783392+960970282
2898+961264187+962107964+963890400+966684429+970081275+973484573+976596420
2888+979466187+982196750+984864198+987570216+990257580+992588415+994244131
2878+995203127+995600962+995581116+995398363+995367857+995540862+995614216
2868+995253058+994297147+992541921+989550833+984962727+978941632+972226692
2859+965867651+960924418+958131302+957644685+959149205+962153407+966099914
2849+970400076+974622886+978586996+982110423+984777450+986132317+986005807
2839+984468607+981606485+977640412+973251469+969566748+967798828+968820098
2829+972701878+978480612+984646171+990060732+994393573+997823800+1000584728
2819+1002799782+1004574925+1006099292+1007552198+1008947318+1010194049
2810+1011293020+1012358681+1013439980+1014396593+1015000533+1015197942
2802+1015246050+1015502086+1016060233+1016694538+1017198125+1017647363
2793+1018195131+1018744932+1019101672+1019335828+1019641304+1019941661
2785+1020059827+1020135775+1020400367+1020710752+1020774989+1020673304
2776+1020741538+1021088390+1021536786+1021884550+1022022211+1021950260
2768+1021844787+1022006151+1022622925+1023573015+1024481870+1025003480
2759+1025086862+1024959861+1024847306+1024787907+1024770726+1024884263
2751+1025165826+1025441147+1025534768+1025555596+1025750831+1026139269
2742+1026484507+1026593907+1026513330+1026455895+1026577777+1026802116
2734+1026931081+1026958781+1027091884+1027391960+1027627589+1027590912
2725+1027349112+1027116849+1027036763+1027122038+1027285646+1027405565
2717+1027420783+1027355143+1027284665+1027339434+1027632849+1028083700
2708+1028415755+1028475153+1028446821+1028598297+1028913241+1029160441
2700+1029247119+1029279237+1029314652+1029276923+1029123483+1028923900
2691+1028757978+1028672282+1028718917+1028915064+1029181900+1029414443
2683+1029569075+1029631559+1029567182+1029375102+1029141787+1028992765
2674+1028981825+1029055179+1029144802+1029277203+1029518303+1029848885
2666+1030149101+1030273227+1030141037+1029853653+1029692921+1029832124
2657+1030084093+1030121120+1029901621+1029700424+1029752880+1030005269
2649+1030188653+1030102046+1029868380+1029865014+1030294336+1030912231
2640+1031339379+1031524727+1031686862+1031936727+1032212750+1032452516
2632+1032590458+1032538353+1032349990+1032270745+1032520681+1033097621
2623+1033737256+1034049184+1033874075+1033509832+1033385075+1033576243
2615+1033813906+1033842798+1033635150+1033374415+1033322381+1033653734
2606+1034341196+1035101381+1035502441+1035344864+1034895836+1034533837
2598+1034343791+1034310971+1034541130+1034926482+1034987914+1034453821
2589+1033672458+1033146500+1032971391+1032985768+1033168240+1033593494
2581+1034138878+1034504033+1034566657+1034559854+1034718133+1034876060
2572+1034727670+1034405784+1034348700+1034603193+1034721078+1034410763
2564+1033904651+1033616356+1033671827+1033856473+1033947359+1033990908
2555+1034152973+1034357185+1034289161+1033829965+1033356182+1033483464
2547+1034439094+1035742488+1036609828+1036649310+1036093407+1035486522
2538+1035279224+1035632177+1036421395+1037296098+1037804243+1037759291
2530+1037518613+1037620228+1038178865+1038916609+1039572443+1039971189
2521+1039986968+1039752672+1039643413+1039886475+1040374073+1040830254
2513+1041002137+1040790982+1040312641+1039810737+1039539974+1039701128
2504+1040261869+1040796873+1040777027+1040165794+1039513746+1039310236
2496+1039468233+1039640888+1039775112+1040024276+1040354718+1040603812
2487+1040812862+1041213432+1041872983+1042491860+1042668161+1042381339
2479+1042018288+1041833501+1041649837+1041242745+1040746802+1040497638
2470+1040629268+1040931589+1041064621+1040884533+1040528214+1040228137
2462+1040181502+1040540276+1041263924+1041984416+1042267522+1042057629
2453+1041687145+1041403338+1041093163+1040601357+1040118598+1039972171
2445+1040131361+1040254996+1040191531+1040097419+1040048400+1039900711
2436+1039624688+1039450281+1039577212+1039996786+1040638385+1041370939
2428+1041832309+1041679501+1041094495+1040627094+1040451073+1040177225
2419+1039534083+1038831263+1038497526+1038462321+1038344086+1038092398
2411+1038087839+1038640797+1039664591+1040824013+1041782518+1042285895
2402+1042220045+1041715546+1041117006+1040688666+1040365237+1039935494
2394+1039426157+1039117525+1039219000+1039682263+1040283468+1040774643
2385+1041017004+1041021492+1040849609+1040556265+1040298686+1040373723
2377+1040965951+1041864147+1042578328+1042843761+1042914169+1043222100
2368+1043883334+1044707475+1045413661+1045584212+1044844505+1043475261
2360+1042392840+1042199778+1042668722+1043286828+1043707524+1043644620
2351+1043026163+1042251112+1041839252+1041953420+1042287578+1042348309
2343+1042025581+1041720666+1041719333+1041798788+1041634549+1041334823
2334+1041287767+1041595277+1041937851+1041941007+1041506636+1040834532
2326+1040213270+1039770344+1039396212+1038930073+1038374662+1037824300
2317+1037290347+1036821754+1036684373+1037136627+1038070869+1039149222
2309+1040160955+1040978925+1041434474+1041536861+1041516313+1041501517
2300+1041494013+1041617578+1041985748+1042419138+1042621737+1042511636
2292+1042174743+1041664423+1040974507+1040129047+1039255115+1038584274
2283+1038379781+1038790379+1039660594+1040555774+1041092462+1041105225
2275+1040584807+1039890613+1039784930+1040583054+1041588826+1042018288
2266+1042048793+1042399993+1043371121+1044689312+1045911638+1046678625
2258+1046709481+1045873068+1044533629+1043538937+1043376591+1043608364
2249+1043615376+1043490058+1043705070+1044258307+1044634893+1044519252
2241+1044201153+1044125135+1044311674+1044507822+1044624725+1044719958
2232+1044834827+1045034411+1045306927+1045497674+1045614647+1045920404
2224+1046578343+1047506904+1048386726+1048559310+1047656696+1046582480
2215+1046742161+1048071993+1049056025+1048779652+1047680680+1046397904
2207+1045254471+1044713436+1045152786+1046305195+1047599472+1048773340
2198+1049826238+1050742807+1051424028+1051741145+1051680064+1051345344
2190+1050745822+1049970841+1049559542+1049955553+1050617629+1050595749
2181+1049892789+1049416972+1049836967+1051069041+1052419070+1052809681
2173+1051388192+1048315266+1044741066+1042012537+1041039796+1042113030
2164+1044815682+1048118908+1050903540+1052421033+1052579101+1052257005
2156+1052636255+1053725619+1054399126+1054009005+1053173083+1052727491
2147+1052531905+1051791847+1050372042+1049303365+1049583175+1050765388
2139+1051488966+1051275006+1050856484+1050880818+1051195061+1051335877
2130+1051064833+1050439505+1049723571+1049280784+1049437379+1050240903
2122+1051225987+1051679363+1051307125+1050375969+1049256590+1048298996
2113+1048025989+1048775374+1050042722+1050707042+1050137324+1048795360
2105+1047619108+1047116503+1047193994+1047516511+1047850459+1048358114
2096+1049528405+1051385598+1052983317+1053313198+1052441370+1051216590
2088+1050239500+1049619010+1049394531+1049555685+1049767330+1049671746
2079+1049490256+1049819996+1050749048+1051691425+1052194731+1052348802
2071+1052268295+1051794723+1051001157+1050546169+1050975982+1051696684
2062+1051318485+1049333310+1046830311+1045197949+1044678513+1044513993
2054+1044018190+1043170907+1042400554+1042071094+1042290734+1043044256
2045+1043955846+1044070645+1042826650+1041237135+1041148283+1043325679
2037+1046837675+1050105556+1052325099+1053899326+1055299916+1056119779
2028+1055929172+1055115200+1054115670+1053032898+1052504485+1053320211
2020+1054834689+1055448797+1054833146+1054126890+1053925553+1053642167
2011+1052960526+1052718655+1053962721+1056457795+1058521654+1058701111
2003+1057236353+1055364153+1053764821+1052304762+1050968057+1050397007
1994+1051396327+1053928569+1056587391+1057628788+1056618388+1054435732
1986+1052168994+1050615385+1050092302+1050220496+1050627797+1051973548
1977+1055097107+1059053012+1061595632+1061601733+1059706391+1057214613
1969+1055315765+1054560279+1054293794+1053454435+1052429449+1052954495
1960+1055809114+1059635282+1062423350+1063177573+1062072641+1060089499
1952+1058345914+1057232636+1056541668+1056324903+1056823511+1057718060
1943+1058248857+1058091000+1057633276+1057322259+1057124990+1056825966
1935+1056596438+1056843918+1057503540+1058023186+1058154535+1058251382
1926+1058626425+1058949363+1058513028+1057076953+1055163308+1053361797
1918+1051823685+1050468818+1049227277+1048041417+1047004859+1046439700
1909+1046506251+1046836833+1046958575+1046918181+1047075057+1047405148
1901+1047483130+1047147008+1046712427+1046506111+1046578202+1046874001
1892+1047347994+1047891624+1048344930+1048627194+1048790802+1048862052
1884+1048717939+1048274872+1047761257+1047575629+1047879773+1048503909
1875+1049170964+1049705898+1050115725+1050483334+1050763144+1050856975
1867+1050942320+1051314698+1051948232+1052551190+1052883175+1052957300
1858+1053021186+1053304853+1053756405+1054130957+1054330962+1054485313
1850+1054680338+1054819612+1054782444+1054483349+1053673023+1052055598
1841+1049858777+1047845971+1046862851+1047411740+1049202872+1051271079
1833+1052806525+1053707035+1054343304+1054950540+1055395781+1055521450
1824+1055357211+1055066040+1054837845+1054783987+1054897804+1055094933
1816+1055281122+1055411560+1055543750+1055781273+1056061854+1056116974
1807+1055796350+1055257419+1054750255+1054403474+1054230679+1054156554
1799+1054021137+1053738453+1053422106+1053271121+1053400507+1053722954
1790+1053978430+1054050942+1054090213+1054266655+1054575637+1054913162
1782+1055287995+1055778608+1056356461+1056910189+1057350661+1057613500
1773+1057687134+1057659293+1057624861+1057616445+1057695339+1057871500
1765+1057996818+1057926410+1057690220+1057433412+1057226535+1057012014
1756+1056664742+1056084856+1055342835+1054716033+1054548077+1054905167
1748+1055393817+1055587019+1055394449+1055025787+1054765263+1054744014
1740+1054890791+1055080767+1055288836+1055550342+1055813672+1055961992
1731+1056053088+1056182824+1056249305+1056086539+1055739337+1055473412
1723+1055500271+1055781273+1056170201+1056596157+1057026952+1057366089
1714+1057543933+1057588815+1057561746+1057551647+1057705998+1058130832
1706+1058664223+1058979448+1059069492+1059304700+1059923858+1060574713
1697+1060907539+1060967428+1060781309+1060339084+1059775818+1059315289
1689+1059104065+1059145300+1059409471+1059739562+1059724765+1059268023
1680+1058630001+1057979496+1057306691+1056423503+1055187011+1053835159
1672+1052779526+1052281830+1052330989+1052617181+1052959754+1053536835
1663+1054566380+1055846913+1056900722+1057545055+1057890715+1058231606
1655+1059139409+1060760551+1061682310+1061429289+1060888534+1060610688
1646+1060660689+1060755993+1060667071+1060384737+1060000858+1059661089
1638+1059621397+1060232279+1061382935+1062415706+1063151696+1063883339
1629+1064899209+1066257442+1067768905+1069239553+1070393856+1070597086
1621+1068971666+1063252540+1047566933+1017281927+981603820+955870033+946790528
1611+953958211+971487686+990563407+1005755666+1016684019+1024491548+1029457923
1601+1031051435+1028418560+1020479190+1006604492+988621781+972114909+963834017
1591+966843338+978564415+993379877+1006810877+1017304719+1025236514+1031401863
1581+1036302528+1040333469+1044181798+1048358464+1052058894+1054214339
1572+1055201106+1055868231+1056720634+1057763994+1058695220+1059377422
1564+1059869088+1060328845+1061330479+1064021490+1067986091+1070552204
1555+1071738765+1072605684+1073267409+1073589716+1073630600+1073559631
1547+1073592170+1073741823+1073659774+1073131782+1072497757+1072049641
1538+1071622704+1071199132+1071018834+1071342754+1071868922+1071505941
1530+1069475533+1065231754+1057806632+1046378899+1028166380+994162362+937176859
1520+869626125+811342207+769318663+744751872+736241803+737699618+743056955
1510+750342594+762387450+783998358+809151698+824737233+831644322+836536642
1500+844437020+858443839+878120976+898262708+913823768+924967343+934631433
1490+944814329+954801988+962682520+968227309+972072271+974032762+973180289
1480+969122980+963250695+958347716+956916058+959857285+966094584+972594021
1470+976346065+976465492+971712165+958276957+934710467+909786796+894776659
1460+891685990+895593787+899822769+902083126+907271385+917646851+930693341
1451+943221588+952764287+955990934+948506763+930576929+910683449+899822980
1441+901750019+910488634+917450142+918724503+917616275+918946177+924012624
1431+932008236+941254856+950135550+958136982+965224860+970841950+974191390
1421+974997438+973855479+972531537+972812189+974782006+977224835+978516237
1411+977743079+975885676+975348989+978160759+984392659+991832088+998185659
1401+1003100700+1007023014+1009665987+1010452470+1009483024+1007532001
1392+1005625509+1004644492+1005250536+1007709424+1011189161+1014096516
1384+1015796903+1016796503+1017566155+1018134751+1018496189+1018943463
1375+1019940329+1021646256+1023661586+1025579439+1027387963+1029044940
1367+1030337254+1031358243+1032556656+1034157181+1035806164+1036999808
1358+1037686639+1038231040+1038902794+1039521110+1039783528+1039804005
1350+1040003308+1040605354+1041439453+1042197254+1042823073+1043578559
1341+1044707125+1046158768+1047645686+1048872431+1049724833+1050241464
1333+1050358156+1049739700+1047924795+1044541202+1039508908+1033358146
1324+1027256964+1022328318+1018662882+1014782435+1008393520+998522693+986687939
1315+975438963+966974196+963704071+968160687+980308982+994592245+1000856543
1305+991355991+969381541+949352293+945046241+957879122+978557051+997824010
1295+1012407560+1022865216+1030192370+1034968629+1037527940+1038020727
1286+1036654639+1034182637+1032138064+1032146689+1034614414+1038283426
1278+1041219813+1041930067+1039561012+1033537883+1023403376+1009131474
1269+991388179+971074354+948522752+923271374+894708705+863420523+832355066
1259+806028139+787574872+776613419+770208234+765647127+762456035+762177207
1249+766398545+775078253+786591681+798967330+811014711+822611802+834123056
1239+845512429+855705983+862368888+862637547+855274067+842729270+830482867
1230+823716453+824577271+832287323+844800211+859841976+875223509+889299194
1220+901380166+911530522+920045008+927100067+932592891+936186305+937658707
1210+937356947+936403491+936400195+938602205+943164504+949239177+955761125
1200+962084471+968008931+973330853+977455555+979634423+979541995+977366844
1190+973173136+965876627+952890938+932317780+907038841+885423094+875526881
1180+878560887+889232152+901107158+909440996+910720897+904119004+894382612
1170+889887004+895668964+909398429+924724911+937016828+945241336+950213041
1160+952853490+953868729+953915083+953621669+953698809+955080816+958542811
1150+963921537+970037726+975649766+980254282+983881288+986552803+988173595
1140+988638191+987840418+985882382+983550145+982325224+983495165+987130375
1130+991966873+996261565+998626482+997830953+992281817+981357251+968160547
1120+959172838+958726826+963771814+965549131+957280302+940650495+924957946
1111+919409020+925843448+938843164+951482913+959388201+960827923+956515138
1101+950292566+947653449+951591962+959948521+967054142+967543423+959170314
1091+943972656+927740473+917141861+915907333+923358894+936091212+950439343
1081+963865365+975226966+984348759+991404659+996700635+1000794270+1004389367
1071+1007905080+1011245193+1014127653+1016490466+1018248077+1018581254
1062+1015260706+1004318188+981676542+947950791+912122400+887420682+881484582
1052+891413194+908507947+925787416+940538361+952471223+961820370+968695832
1043+972772426+973165632+968709016+958175552+940442847+915646458+887288842
1033+862735305+849845270+851935987+866065670+886100248+906799706+925068327
1023+938276251+942497800+934249868+915814273+897452803+890761988+899184467
1013+916800970+935545829+951239290+963113525+969921384+968463779+957557727
1003+943016745+935113491+939252569+951555355+964625198+974626743+981800178
993+987395177+992077956+995953073+998833850+1000617899+1001697375+1002960375
983+1005120799+1007894491+1009753226+1007511944+995675017+969345635+931892315
973+898063054+883971801+893028516+914725050+936417656+952528097+963285619
963+969642626+971439789+968773183+963707717+959987232+960330647+964320493
953+969735335+975314135+981217346+987451841+993134500+997282905+999242905
943+997820013+991265105+979947544+968582716+963441022+966760377+975299829
933+984311101+991378852+996511570+1000399451+1003390889+1005110982+1004308159
924+999948389+993426301+988697239+988625007+991592882+992835055+988302069
914+976203775+956319482+930131408+901922043+878556399+866813232+869428084
904+882929353+899909798+914298533+924716356+933159943+941550444+950150066
894+958376959+965756288+971833136+975922072+977456467+976624612+974730112
884+973822659+975475078+979612473+984720156+989271585+992777900+995558464
874+997985585+1000219082+1002356786+1004454095+1006441024+1008186082+1009588005
864+1010622249+1011485591+1012607915+1014249254+1016158411+1017789652
856+1018682027+1018503622+1016940476+1013637811+1008036149+999190169+986070886
846+968450946+947772105+927183870+910230424+898334238+888557523+874037719
836+848004347+809048400+763697226+723910195+700521409+697168322+709712278
826+730970163+755374538+780030883+803535450+824967602+843769404+860045416
816+874429523+887389967+898967983+909219393+918470290+927017246+934416772
806+938800456+937710180+930384078+918241674+902916033+885793229+869244560
796+855350225+843867232+834658411+831005669+836836929+851418585+869670796
786+886915062+901340473+913085253+922892685+931374772+938702277+944864470
776+950038212+954526176+958532081+962082998+965130609+967820077+970548606
766+973524476+976451396+978920944+980963414+982957215+985062589+986991803
756+988458945+989630078+990794899+991734049+991866030+991006615+989671733
747+988702709+988753691+989916760+991618830+992963388+993246354+992146541
737+989519346+984954102+977253798+964450580+945132358+920562340+895451989
727+875862092+865676742+865091807+872107173+883937579+896681468+906118415
717+910335054+909591841+903043385+889222895+871896720+861617469+867235331
707+887188630+911746094+932238115+946158537+954960407+959899782+961287049
697+960796085+961990851+966983523+973891524+978746116+978507471+972303061
687+962485321+954660821+953614095+958152901+961078559+954941402+938907892
677+921118243+912967579+919220727+934396365+950048451+962759661+973412131
667+981942046+987163265+990141028+992557419+995101933+997579756+999523906
657+1000729752+1001209917+1000725054+998355859+992239670+979494729+957377008
647+926618921+894337449+871796648+867016322+879036213+899925086+921357449
637+938570647+950137233+956578744+959528807+960973578+962352710+963685417
628+962833505+955882797+939923551+916876708+894127557+880248791+879557121
618+890194234+906487778+923005941+937093056+948603750+958320156+966830294
608+974186271+979997404+983928834+986391720+988487557+990905841+993209116
598+994587406+994729835+993218583+988251787+976090519+951865671+912879358
588+863925372+819466644+796606480+802191592+828227840+860320177+888231780
578+909354809+925301852+937616981+946871735+953832472+959648164+965051014
568+969964092+973727355+975740792+976199427+975977333+975491348+973624548
558+967721057+955517291+938685026+924019427+918833903+924680661+936600129
548+948163698+956356299+962021567+967037381+972006281+976254758+978928798
538+979789826+979384278+978352559+976323904+971978440+964356118+953209738
528+937942584+917979396+895808659+878140471+871285557+876165114+887609747
518+895989097+890817108+867289960+831700564+799518744+785852325+795290183
509+820558182+849982439+874995874+893009721+905934260+916465970+925429344
499+932224931+936145841+936122629+930655683+920064504+908936147+904063042
489+908588243+919775718+932486928+943034487+950082463+954120627+956996144
479+960544607+964808162+968311181+970136185+970692368+970548115+969627128
469+967716849+965009358+962375151+961542103+964159831+969660298+974664753
459+976018778+974666225+974777588+978405084+984219654+989935484+993376581
449+993249930+990373572+987439779+986668444+987956269+989801820+991273731
439+992394232+992921452+991472192+986689061+979466888+972680980+968566867
429+967411443+968589448+971613846+975555865+978506349+978996121+977487533
419+975665545+973935284+970874700+966647261+963646847+964130868+968223732
409+974134306+979522710+982425997+982771166+982710786+983864808+985368346
399+985795845+986010506+987716012+989674819+990030156+989609881+990549522
390+993597904+997047206+997607246+993222089+986867607+984383052+986656452
380+988941073+986423137+978831040+972820744+976547612
##END=
