##TITLE=X9377
##JCAMP-DX=4.24
##DATA TYPE=INFRARED SPECTRUM
##DATE=5/11/2018
##SAMPLING PROCEDURE=ATR platinum Diamond 1 Refl
##ORIGIN=ComPlat
##XUNITS=1/CM
##YUNITS=TRANSMITTANCE
##RESOLUTION=4
##FIRSTX=3997.453
##LASTX=373.96442
##DELTAX=-1.4165319
##MAXY=0.93595952
##MINY=0.32697353
##XFACTOR=1
##YFACTOR=8.7168023e-010
##NPOINTS=2559
##FIRSTY=0.93550068
##XYDATA=(X++(Y..Y))
3997+1073215441+1072572610+1071487640+1070675707+1070568079+1071028680
3989+1071655852+1072175465+1072598184+1073060836+1073528275+1073741823
3980+1073500513+1072826980+1071859895+1070808089+1069956360+1069516615
3972+1069544377+1070016397+1070787986+1071520120+1071823928+1071470340
3963+1070610406+1069922786+1070081699+1070883648+1071491059+1071482375
3955+1070933496+1069662262+1067264962+1064112278+1061776588+1061646189
3946+1063035172+1063994256+1063946254+1064163152+1065542289+1067337102
3938+1068508092+1068592677+1067295664+1064652883+1061876079+1060924380
3929+1062183443+1063720467+1063654070+1062311995+1061659933+1062363553
3921+1062835642+1061836282+1060439572+1060901951+1063775990+1067343529
3912+1069887708+1070930830+1070421474+1067807412+1062503662+1055269845
3904+1048829361+1045888516+1046532373+1049444499+1053691520+1057891291
3895+1060075249+1059198493+1056540737+1055487085+1057410929+1059346602
3887+1058429366+1055363866+1053092451+1052350676+1052255150+1053900623
3878+1057825100+1060885609+1059910456+1055122419+1049510553+1045787041
3870+1045282814+1047634711+1049954401+1049827421+1048349272+1049007967
3861+1052819345+1056880649+1058262316+1055944882+1049830156+1040908061
3853+1035351923+1039594158+1048721254+1056331292+1060253240+1060381177
3844+1057520745+1052918632+1047768392+1043094344+1040337165+1040917566
3836+1044145740+1047865353+1051076569+1053924145+1056260999+1057336259
3827+1056895077+1055636698+1053784447+1050216361+1044946663+1041642520
3819+1042578014+1045084925+1047892773+1052403259+1057942439+1061795802
3810+1062460993+1060015417+1055956575+1052792814+1051051611+1048735066
3802+1045595512+1044644975+1047002547+1050406455+1053996764+1058230656
3793+1062369844+1065128186+1066339246+1066553751+1065922681+1064496842
3785+1063170904+1062697311+1062114175+1060307874+1058578979+1059292172
3776+1061996221+1064095457+1063998564+1061747663+1058581714+1056358712
3768+1055861186+1056393722+1057525464+1058806476+1058625614+1055777901
3759+1051799677+1049968966+1050640379+1050607763+1047033386+1039799158
3751+1033004608+1031977418+1034889681+1036720393+1036625346+1037616979
3742+1041438204+1045387981+1046433497+1042983023+1035456885+1028470053
3734+1028726201+1036745214+1046616752+1053224901+1054789687+1052107041
3725+1048011753+1045867387+1047017795+1050530631+1054679939+1057923429
3717+1059251760+1057931156+1053313931+1046081892+1040616425+1042185860
3708+1049345759+1056688983+1060929235+1061342586+1059234734+1057638562
3700+1058529268+1060573869+1061809683+1061789374+1060322234+1056330950
3691+1049400941+1042567483+1041323600+1046204495+1052449347+1057142746
3683+1059614306+1059445478+1056391466+1050441396+1041821468+1033662004
3674+1032051063+1035857860+1038562113+1039144908+1042299232+1049837336
3666+1057899018+1063238668+1065250789+1064960794+1063589931+1061426419
3657+1058512515+1055837732+1053788413+1050195369+1042437768+1031081106
3649+1023368909+1027007152+1037623816+1047350254+1053557360+1056923865
3640+1058834170+1059896096+1059815067+1058407826+1056176277+1053630526
3632+1050169727+1044758484+1039538908+1040489034+1047443728+1054035945
3623+1056663272+1054671938+1048982462+1042731319+1039764354+1040039442
3615+1041065401+1042368227+1044651676+1046927535+1047776803+1048403223
3606+1051026174+1054773071+1056780064+1055932506+1053718051+1052160650
3598+1051587771+1051328614+1051594609+1053138744+1055205295+1055370362
3589+1051919546+1046604854+1044652155+1048063174+1053082468+1056534925
3581+1058103882+1058519968+1058365979+1058198587+1058577475+1059433443
3572+1059666684+1057591996+1051940401+1043597955+1037439125+1038403201
3564+1044507328+1050629029+1054563968+1056921266+1058691736+1059687745
3555+1059084984+1056948686+1054761173+1053885922+1053593738+1052112033
3547+1049510074+1048261473+1050205762+1054135231+1057563687+1059087035
3538+1058832597+1057956183+1057652717+1058035024+1058116942+1057007561
3530+1054986892+1053356258+1052945231+1053160147+1053262578+1053696648
3521+1055090145+1056876136+1058013006+1058347106+1058522430+1058882719
3513+1058977287+1058273051+1057146165+1056638929+1056903488+1056728711
3504+1055228202+1053399473+1053202200+1054975131+1057047904+1057977791
3496+1058028870+1058320096+1059159996+1059839752+1059719268+1058917592
3488+1058096702+1057751730+1057712275+1057530797+1057346926+1057833511
3479+1059089087+1060287224+1060675138+1060321414+1059734585+1059173125
3471+1058594364+1058025656+1057706463+1057832485+1058231545+1058475453
3462+1058431622+1058550534+1059374090+1060814495+1062087302+1062404581
3454+1061692345+1060464668+1059098865+1057695522+1056554208+1056056545
3445+1056053537+1056134908+1056289923+1056578414+1056669700+1056359122
3437+1055970388+1055804295+1055750344+1055678614+1055681076+1055852776
3428+1056205270+1056674555+1056940754+1056522959+1055404278+1054366421
3420+1054251613+1054963780+1055665144+1055871922+1055906864+1056276110
3411+1056966055+1057575722+1057960286+1058358662+1058841486+1059039580
3403+1058685377+1058041999+1057520951+1057217348+1056998945+1056734250
3394+1056379158+1056102838+1056238023+1056824715+1057343780+1057211877
3386+1056523779+1056012031+1056168619+1056692881+1056960858+1056757635
3377+1056397483+1056329514+1056706556+1057265145+1057605399+1057558217
3369+1057225143+1056789568+1056387842+1056071110+1055833903+1055690581
3360+1055686615+1055885803+1056373414+1057077786+1057624134+1057691214
3352+1057447511+1057288120+1057282581+1057196150+1056917711+1056598176
3343+1056380867+1056186534+1055895376+1055621586+1055577755+1055737626
3335+1055900846+1055988303+1056059486+1056153917+1056245271+1056262845
3326+1056163969+1056026185+1055959652+1055971072+1056061537+1056329651
3318+1056785671+1057177688+1057176320+1056689393+1055912060+1055130830
3309+1054562464+1054312607+1054333394+1054459006+1054561780+1054550019
3301+1054292503+1053852074+1053634970+1053858296+1054125248+1054028013
3292+1053826842+1054015705+1054574567+1055104299+1055378431+1055404141
3284+1055212543+1054888495+1054632210+1054558224+1054522120+1054287101
3275+1053771387+1053114811+1052666655+1052807653+1053511546+1054217013
3267+1054436783+1054304675+1054282588+1054554053+1054899162+1054983815
3258+1054693888+1054236159+1053885785+1053764480+1053938437+1054366763
3250+1054619765+1054197251+1053323914+1052856749+1053200217+1053854809
3241+1054194721+1054128257+1053846809+1053489118+1053208491+1053134915
3233+1053146744+1053034671+1052891485+1052964788+1053181276+1053201789
3224+1052886904+1052400524+1051963787+1051710853+1051702374+1051986762
3216+1052605866+1053445424+1054146651+1054382764+1054209696+1053972626
3207+1053906093+1053922709+1053742052+1053203499+1052480938+1051958522
3199+1051867988+1052091246+1052301511+1052261031+1051995925+1051741829
3190+1051732734+1052041261+1052551505+1052984412+1053024277+1052599917
3182+1051987173+1051522879+1051380856+1051676048+1052408729+1053139838
3173+1053225312+1052626243+1052020884+1051877424+1051914623+1051676527
3165+1051144470+1050593677+1050238789+1050196600+1050517913+1051094279
3156+1051638987+1051864774+1051707776+1051371761+1051133050+1051109733
3148+1051224131+1051348991+1051401780+1051271655+1050797241+1049977923
3139+1049142058+1048698689+1048692329+1048779855+1048682688+1048476662
3131+1048336827+1048218805+1047999513+1047741040+1047557511+1047361605
3122+1046983196+1046381734+1045586691+1044632735+1043679395+1042989997
3114+1042691865+1042666838+1042678873+1042558252+1042271470+1041841982
3105+1041281479+1040703608+1040305437+1040020638+1039394423+1038036621
3097+1035994618+1033545486+1030928621+1028415965+1026332388+1024826750
3088+1023807766+1023197620+1023062982+1023419783+1024086205+1024810886
3080+1025430058+1025882317+1026123695+1026006767+1025245708+1023591688
3071+1021019338+1017713007+1014031959+1010551808+1007894120+1006359627
3063+1005855195+1006145874+1006982560+1008069855+1009158996+1010154116
3054+1011018016+1011685669+1012176494+1012639625+1013141869+1013465096
3046+1013190076+1011980725+1009869864+1007291291+1004679281+1001966890
3037+998692150+994666745+990338353+986486289+983770889+982529673+982760315
3027+984239559+986696212+989831322+993160629+995984204+997697030+998131168
3017+997500167+996131424+994400819+992731413+991405954+990451178+989759729
3007+989165037+988408560+987251587+985646594+983714271+981583376+979240026
2997+976492899+973169200+969327461+965139177+960659804+955874024+950789976
2987+945408204+939864785+934653825+930463968+927813666+926992981+928160210
2978+931278841+936043081+941920327+948210377+954240244+959722670+964774170
2968+969393242+973127215+975494223+976562988+976924371+977241581+977925713
2958+979069011+980565349+982314006+984284142+986371070+988293957+989697231
2948+990320848+990068871+988968994+987143958+984891553+982713407+981048925
2938+979944194+979130483+978418179+977884412+977741569+978171809+979239548
2928+980842215+982762230+984800062+986840150+988794423+990511283+991778415
2918+992476223+992700301+992627272+992294130+991634545+990663495+989509872
2908+988383396+987622133+987588558+988405209+989905787+991818690+993868693
2898+995868370+997906817+1000266167+1002962967+1005559729+1007592842+1009032836
2888+1010211349+1011425145+1012689678+1013791196+1014492696+1014718826
2880+1014562101+1014097124+1013275139+1012127671+1011022871+1010474882
2871+1010653419+1011321619+1012273729+1013496072+1014824198+1015864175
2863+1016428233+1016700587+1016887398+1017012669+1017062585+1017042482
2854+1016933417+1016814506+1016924255+1017479014+1018494374+1019763215
2846+1020979609+1022004816+1022962670+1023921959+1024730951+1025381714
2837+1026184826+1027310550+1028470327+1029233710+1029456215+1029381340
2829+1029461070+1029945809+1030595000+1030988111+1031068730+1031119672
2820+1031303612+1031518117+1031624583+1031597299+1031503073+1031466764
2812+1031587179+1031820215+1032026856+1032165871+1032322527+1032534160
2803+1032708800+1032753384+1032672902+1032520074+1032348990+1032245943
2795+1032293193+1032434327+1032464893+1032282389+1032083474+1032142691
2786+1032443353+1032707365+1032757691+1032674611+1032615805+1032624011
2778+1032654097+1032726237+1032943956+1033294604+1033562991+1033590138
2769+1033491125+1033461654+1033508356+1033523673+1033500083+1033508630
2761+1033537007+1033504869+1033426438+1033401685+1033421925+1033354025
2752+1033151213+1032920297+1032778342+1032783334+1032933084+1033131178
2744+1033258636+1033299527+1033289065+1033247285+1033274637+1033495159
2735+1033806352+1033953162+1033886971+1033786180+1033737495+1033644431
2727+1033419942+1033104100+1032834550+1032766102+1032948401+1033255696
2718+1033518340+1033700502+1033858867+1033956307+1033848884+1033486270
2710+1033023481+1032697860+1032656559+1032869696+1033119622+1033128374
2701+1032848567+1032572248+1032586402+1032812053+1033004471+1033154769
2693+1033381718+1033588565+1033584189+1033412899+1033242977+1033072372
2684+1032803300+1032504416+1032403420+1032636182+1033051926+1033309100
2676+1033219455+1032931374+1032730682+1032774102+1033016711+1033246328
2667+1033209472+1032854926+1032409232+1032132365+1032093458+1032225224
2659+1032478226+1032842345+1033258705+1033577898+1033661731+1033540426
2650+1033394232+1033347187+1033331939+1033212207+1032989086+1032792496
2642+1032708732+1032739639+1032889390+1033150597+1033474167+1033859961
2633+1034329999+1034700818+1034613977+1033972240+1033189915+1032837763
2625+1033090287+1033609626+1033953299+1033993984+1033919930+1033944409
2616+1034096484+1034221003+1034148658+1033904339+1033682586+1033570855
2608+1033440319+1033179453+1032893287+1032786616+1032956401+1033355461
2599+1033858457+1034269757+1034321930+1033833499+1032943409+1032083748
2591+1031618292+1031558529+1031701304+1031925861+1032188778+1032347828
2582+1032269328+1032073012+1031996770+1032050516+1032069867+1032071234
2574+1032243344+1032549683+1032603770+1032120604+1031372674+1031007872
2565+1031396197+1032271038+1033024301+1033259183+1033083244+1032877628
2557+1032756939+1032430019+1031800180+1031393598+1031783632+1032769248
2548+1033538717+1033588839+1033157777+1032782787+1032714202+1032868876
2540+1033140751+1033461790+1033626242+1033431157+1033079005+1033061978
2531+1033487022+1033869671+1033801702+1033462132+1033202634+1033004882
2523+1032744221+1032633584+1032884261+1033170906+1032998933+1032418600
2514+1031864251+1031485363+1031139502+1030829882+1030700714+1030738117
2506+1030817710+1030929441+1031086303+1031101004+1030766426+1030297824
2497+1030223565+1030685192+1031228942+1031470046+1031525160+1031639216
2489+1031845789+1032049216+1032064328+1031710398+1031170956+1030971358
2480+1031345938+1031908082+1032077867+1031606599+1030689294+1029743818
2472+1029076165+1028702952+1028541783+1028678541+1029225436+1029871344
2463+1029917158+1029077943+1028005623+1027629196+1028187784+1029215111
2455+1030137818+1030585700+1030496055+1030213240+1030211667+1030523954
2446+1030664336+1030256455+1029557143+1029146185+1029233573+1029583606
2438+1029967212+1030255703+1030250985+1029917979+1029565280+1029393649
2429+1029200478+1028801418+1028330013+1027944082+1027683899+1027719320
2421+1028306217+1029292174+1029955382+1029654515+1028599016+1027663249
2412+1027405734+1027595485+1027712960+1027554526+1027280395+1027154509
2404+1027296259+1027546526+1027618392+1027459001+1027364569+1027637470
2395+1028194486+1028631633+1028661719+1028395315+1028146962+1028083917
2387+1028144227+1028206862+1028234487+1028290627+1028548689+1029276242
2378+1030634728+1032407523+1034140999+1035744419+1037685289+1040304001
2370+1043223238+1045737193+1047526399+1048819446+1050111331+1051680083
2361+1053160215+1053800790+1053158505+1051170112+1047840327+1043404443
2353+1038673571+1034823217+1032733417+1032637481+1034214712+1036679571
2344+1038994269+1040493206+1041121267+1040968782+1040139754+1039004184
2336+1038134471+1037845706+1037848852+1037550241+1036739607+1035713785
2327+1034764958+1034039388+1033756299+1034011694+1034381351+1034171428
2319+1033139862+1031719630+1030558075+1029896713+1029359391+1028504243
2310+1027552201+1027131055+1027350552+1027698396+1027832897+1027945244
2302+1028267514+1028610709+1028552928+1027960493+1027217691+1026858291
2293+1027003665+1027326004+1027519516+1027558903+1027529910+1027464061
2285+1027368535+1027293455+1027337560+1027555689+1027847462+1028042274
2276+1028104157+1028115508+1028075916+1027884455+1027496267+1026966193
2268+1026382715+1025878898+1025724840+1026202126+1027204494+1028116465
2259+1028369468+1028002204+1027406417+1026776099+1026185647+1025938320
2251+1026303464+1026974809+1027245043+1026822666+1026187630+1025931482
2242+1026029469+1026138328+1026385860+1027238068+1028571322+1029535877
2234+1029592973+1029219214+1029155006+1029320893+1029088678+1028417264
2225+1027979981+1028201392+1028870412+1029626753+1030144861+1029985264
2217+1028937629+1027444026+1026278574+1025938183+1026442888+1027451206
2208+1028437915+1028904123+1028674233+1028166177+1028124124+1028738441
2200+1029394606+1029753322+1030446822+1031921279+1033327562+1033498236
2191+1032448140+1031100321+1030125373+1029731783+1029952305+1030557801
2183+1031290688+1032369709+1033896066+1035016729+1035005789+1034725298
2174+1035516307+1037149129+1038379678+1038824621+1038964661+1039178892
2166+1039862204+1041548431+1043897387+1045137919+1043370595+1038741267
2157+1033920545+1031465260+1031489602+1032449712+1032944503+1032441439
2149+1031165212+1029662310+1028170553+1026573903+1025250153+1025158594
2140+1026463402+1027913243+1028196742+1027173245+1025467872+1023759012
2132+1022624262+1022223561+1021985944+1021240749+1020214311+1019903324
2123+1020836150+1022355532+1023347028+1023358311+1022717189+1021882691
2115+1021124915+1020657407+1020668827+1021141189+1021724189+1021877973
2106+1021365746+1020583627+1020137317+1020197764+1020575900+1021119103
2098+1021632082+1021764737+1021432621+1021074520+1021199722+1021907103
2089+1022928822+1023840246+1024246076+1024087573+1023799971+1023897137
2081+1024422152+1025023066+1025450914+1025669590+1025621793+1025335969
2072+1025247965+1025887651+1026972621+1027242855+1025787749+1023493769
2064+1022415501+1023399885+1025171722+1026124447+1026108447+1025909669
2055+1025779817+1025326806+1024420169+1023458486+1023005543+1023575551
2047+1025334123+1027669813+1029551262+1030530655+1031023736+1031613984
2038+1032434532+1033141024+1033262739+1032709279+1031741989+1030239155
2030+1027800896+1025125361+1024085932+1025474368+1027704892+1028702679
2021+1028152911+1027102814+1026390579+1026084856+1025747816+1025054042
2013+1024433024+1024721447+1026107011+1027947364+1029400418+1029543877
2004+1027622769+1024200672+1021364310+1021016329+1023277692+1026630042
1996+1029175861+1029775272+1028482361+1026137850+1023709437+1022255767
1987+1022908582+1025671641+1028606948+1029653557+1029021598+1028426906
1979+1028480036+1028466908+1028398871+1029141056+1030452429+1030900107
1970+1029603709+1026889267+1023842092+1021856023+1021722274+1022720266
1962+1023298547+1022753430+1021665793+1020631970+1019420089+1017607498
1953+1015351400+1013368340+1012414179+1012634018+1013188845+1012772349
1945+1010928235+1008851632+1008423511+1010132645+1012762092+1015048755
1936+1016502082+1017108399+1017101903+1016919263+1017044328+1017664663
1928+1018247867+1017719981+1015763863+1013723569+1013170725+1013759810
1919+1014135690+1014316962+1015404052+1017269295+1018408148+1017822208
1911+1015992180+1014356417+1014009735+1014892440+1016116288+1016731152
1902+1016285389+1015010873+1013413197+1011764784+1010325132+1009654470
1894+1009866650+1009993562+1009162620+1008006330+1007878735+1008867975
1885+1009994451+1010731098+1011129337+1011217751+1011083865+1011092686
1877+1011443471+1011764852+1011356561+1009612143+1006381166+1002747368
1868+1001421020+1004153036+1009080838+1013117047+1014880269+1014937228
1860+1014672807+1015026737+1015998676+1016995711+1017482638+1017303348
1851+1016497022+1015133476+1013359519+1011293584+1009262316+1008577500
1843+1010440897+1013518706+1015538827+1015927357+1015666559+1015707040
1834+1015667311+1014226907+1010845017+1007181885+1005709547+1006260546
1826+1007064683+1007888240+1009355517+1010910866+1011443197+1010808093
1817+1009801690+1008938678+1007707788+1005441023+1002655945+1000897373
1809+1000930469+1001939470+1002593242+1001875330+999537998+996680371+995194836
1799+995696533+996872447+997112458+995690516+993409938+993071873+996573152
1789+1001655834+1005121830+1005977661+1005109863+1003726350+1002403558
1781+1001595250+1001534461+1001284399+999386607+995392178+990594706+987881631
1771+988967285+992166945+995218290+996989239+996666900+993860761+989764516
1761+986631115+984770659+982796693+980342980+977438239+972727061+964510569
1751+953209089+942298121+934327520+927268480+917581428+903597507+884650089
1741+859063752+827279061+794103199+759937824+715628762+655912949+597151775
1731+551978813+513506858+477260470+444882215+417474295+395858112+381663823
1721+375107197+376120780+387572831+412947261+448199863+485336956+521500606
1711+556790713+590612894+622409961+653612063+684516511+710924901+730612590
1701+747651002+766027592+783460072+799168991+816289253+832695364+843842991
1691+849855149+853240252+855388311+855829561+854467861+855221603+862806341
1681+873718813+883251396+890262435+894933201+898419095+902029508+905058357
1672+906433185+908228613+913855045+921582490+926854034+928439060+928695550
1662+931035480+935348692+938305948+937494016+932252011+923968439+920032611
1652+925257042+930087542+929923090+928462309+932095697+940362721+947370819
1642+950734725+950475774+946857361+941034408+937543112+941672727+949743982
1632+955312359+956910924+955923668+954406816+953239039+952181284+952026200
1622+953786208+955787388+955424432+952716213+951228559+952907947+953902315
1612+949751777+938192781+919821730+899114305+882572256+875061025+878037769
1602+889372482+904192473+917628883+927478608+934289364+939667101+944597092
1592+949037968+952690912+955383952+956651084+955877238+953423936+951111015
1582+950742452+951991600+952629166+951337144+950429345+953577241+958458205
1572+960328576+958580945+956653750+957874726+960780083+962588776+962340150
1562+959168252+951020823+938247689+932500774+939712026+948921450+955405013
1553+959124968+960792049+961688977+962025675+959964936+953861151+944459650
1543+934383454+927741936+931291081+943053094+952383822+955905889+956350490
1533+958154191+961942048+964132296+962872413+959601160+956544481+953662647
1523+950296552+948336057+949167410+950757701+952435722+955560507+958975150
1513+959154098+953876810+943023349+928052650+915549751+914702056+917794019
1503+913527646+899503997+878214461+857706018+850782779+862588007+882023514
1493+897315731+906148934+912057429+919562300+928608982+935121811+936339504
1483+931985265+923650956+913998162+904930761+896704559+889046861+882312074
1473+877838991+876376296+875190740+870321948+859822964+844234188+827338004
1463+813437847+802060740+790112462+777334405+770970028+780066831+796892790
1453+810549380+818910152+822174020+821108196+818173642+816135195+815327707
1443+814096884+810995690+805986516+800966607+800648439+810970390+830349895
1434+850369085+867228344+881635532+894058633+903175267+907542498+907312061
1424+903975780+898060652+887254510+868979189+846120970+824241186+802908708
1414+779475558+754731035+732256422+715205564+704519222+700073354+702236183
1404+710195775+720523743+730478157+739999047+749744426+759701574+769795207
1394+779147817+785349658+786551966+782752281+775738234+769075997+765731784
1384+765876611+769142530+776327866+787605003+800707929+812341595+820845279
1374+826468154+829191554+827649128+821033047+811307020+803109947+801166069
1364+808634904+825841666+847458806+865501159+876395442+881360921+883475611
1354+885606985+888790645+892006578+893434743+891476299+884928529+872914471
1344+854923744+830726458+800814669+768641517+741884394+727420315+725698326
1334+732629224+743109814+751818430+754078904+748135672+736737983+725928011
1324+721527069+725949482+737880665+754490819+773149404+791428211+807148686
1315+819020858+826677326+830246916+830330544+828246077+825901292+825075615
1305+826603613+830260182+835299442+840957396+846622257+851730512+855512966
1295+856908719+855007371+849883594+843085830+837047415+833628737+833024199
1285+833989984+834859628+834298715+831611146+826767928+820115401+811985955
1275+802597447+792254572+781581153+771479315+762711893+755617637+750467397
1265+747974503+749206351+755074639+765904920+781122672+799266431+818538649
1255+837365788+854566122+869413533+881727912+891741405+899777923+906098265
1245+910963706+914647284+917340392+919124674+920009909+919925051+918734367
1235+916320040+912558168+907179201+899735391+889718958+876676548+860454376
1225+841793603+822834766+806743814+796586178+794352372+800420942+813249121
1215+829555946+845385622+857612202+864836515+867069021+864710697+857945618
1205+846933313+832046652+813538638+791155926+764429232+733333938+698526347
1196+661075155+622232313+583461679+546407119+512624700+483284320+458959337
1186+439500957+424141694+411822187+401536170+392746798+385903391+382507517
1176+384233814+391566439+403070492+416010095+427890027+437708572+446039701
1166+454091844+462662745+471779515+481042343+490179559+499436438+509698010
1156+522294555+538468998+558701292+582311133+607683854+633007821+656939045
1146+678770074+698271704+715523185+730763024+744241487+756167473+766705843
1136+775911028+783719844+790098171+795102832+798756734+801005856+801830849
1126+801271577+799381923+796313004+792421622+788204004+784143110+780636839
1116+778012041+776508660+776159654+776685147+777603819+778497464+779163408
1106+779528210+779382220+778141962+774996732+769510135+762167527+754380866
1096+747965614+744317866+743615819+744605605+745285703+744047017+740435442
1086+735076851+728977784+722806851+716709561+710801203+705924548+703918717
1077+706961379+716391257+731883140+751475646+772312581+791644084+807640673
1067+819674288+827979878+833003822+834968419+833896578+829850865+823085991
1057+814115210+803619166+792080411+779478840+765511877+750093843+733570051
1047+716647336+700394736+686305443+676113617+671299392+672522419+679255907
1037+689829082+702083424+714425018+726397980+738095990+749003060+757569448
1027+761924918+760877694+754430646+743856581+731553280+720587336+713939048
1017+713751485+720802935+734279825+752053722+771482870+790289359+807018151
1007+820930205+831503175+838184080+841099078+842024314+843779535+848074901
997+854345531+860875454+866453610+870789729+874088060+876720447+879062292
987+881332886+883576470+885785386+887956967+890051143+891984971+893681318
977+895041171+895877789+895965724+895151056+893318157+890312830+886074903
967+880897790+875470889+870519906+866315758+862517440+858477197+853648817
958+847816291+841211151+834554589+828847471+824925797+823138164+823342139
948+825023852+827359133+829337817+830042599+828910038+825883855+821572011
938+817261397+814483704+814324586+817077936+822401175+829615846+837924718
928+846599897+855115752+863071242+870024636+875592535+879755314+882843516
918+885099681+886438201+886705221+885945120+884305391+881913698+879083285
908+876597228+875514652+876498762+879371297+883349247+887541223+891233485
898+894058223+896093524+897697560+899194650+900708630+902145273+903285015
888+903995268+904300307+904215448+903699529+902796720+901576292+899919741
878+897615436+894638829+891044759+886597114+880849173+873729275+865824113
868+857969551+850637405+843626845+836189942+827603930+817832088+807618245
858+797991025+789720240+783006924+777531610+772996166+769719170+768626883
849+770738017+776587228+785772104+796930193+808449666+819387369+829675336
839+839517402+848794180+857132865+864354511+870526470+875643136+879633257
829+882660191+885120947+887415132+889809766+892283719+894578861+896709825
819+899123878+902023695+904945394+907258452+908710480+909437144+909749226
809+909804066+909326917+907849520+905247767+901827995+897893055+893339286
799+887774395+881192436+874522404+869293391+866602266+866235960+866622643
789+865686671+862011025+855431253+846873344+837961848+830718184+827265727
779+829317645+837283254+849600710+863400076+876137243+886310264+892821451
769+894480053+890160140+878715679+858615254+828327106+787638988+738780533
759+686554069+637877502+600961991+583423044+589158882+615841609+655667400
749+699315920+739948036+774585979+803013875+826104925+844877839+860092173
739+872066092+880892320+886749189+889744327+889569277+885526777+876825956
730+862907132+843968740+821831509+800522075+785503511+781440634+789825270
720+808024211+830663276+852490134+870269775+882751477+889760259+891182611
710+886137675+872793577+848878012+812556852+763710842+705299700+643889181
700+588943762+550907553+538241774+553964300+593243845+645022905+697620462
690+743400288+779350698+805409329+823241827+835440166+844290395+850991129
680+856164618+860571441+864959323+869701409+874821835+880102132+885436448
670+891239092+897558272+902514247+905039416+906779388+908955414+911450154
660+913823317+916054525+918187266+920030970+921553771+922964840+924316010
650+925453837+926377501+927338158+928488703+929594597+930297192+930624932
640+931021804+931809189+932817779+933673885+934299006+934909357+935575916
630+936123769+936568984+937340984+938780020+940431305+941204399+940601364
620+939622723+939972550+942184475+944888592+946324962+946192238+945577784
611+945636932+946753630+948555281+950342913+951652509+952580617+953474604
601+954393687+955065990+955251639+955005132+954732437+954899213+955477084
591+956013654+956390218+956855537+957366397+957687094+957866589+957821869
581+956813210+954019038+949242080+942793664+935266706+927458984+920105503
571+913763143+908908438+905882324+904795644+905465485+907281154+909538414
561+912341817+916772436+923626955+932195120+940582696+947087935+951206951
551+953560830+955059015+956151370+956795022+956987714+957116471+957658307
541+958561525+959045991+958171902+955607483+951548367+945669481+936444535
531+922085623+902282852+878921363+856001124+838842843+830769674+830573221
521+835133897+842883770+853963019+868038362+882884406+895812692+905683409
511+912983964+918827978+924035793+928575613+931847208+933807361+935547060
501+938419868+942713113+947555101+951744752+954255356+954680947+953664014
492+952453022+951762394+951384805+950908476+950252448+949699125+949875133
482+951155667+952792455+953529718+953235893+952865963+952831910+952752248
472+952844150+954095076+956778337+959873377+962008580+963040830+964235685
462+966076449+966891048+965072576+961880917+959771219+958970500+959058504
452+960785553+964143442+967676039+970701264+973619612+976031409+976879514
442+976354295+975854444+976345474+977897268+979772015+980449583+979044531
432+976923482+976915345+980430163+985600438+989220424+990387107+990962380
422+991681590+990265324+986129145+985017644+989705847+994768561+996015043
412+994528004+994495729+998231070+1003811004+1007146054+1005104666+997711458
402+988141061+980170118+975916669+976142183+981229993+990229903+1000792959
392+1010183450+1015760991+1015769948+1010362740+1001696724+993007460+986941966
382+983942315+983670645+986542496+992150739+997801103+1000194095+1001100938
##END=
