##TITLE=F. Hundemer CEL-009
##JCAMP-DX=5.0
##DATA TYPE=LINK
##BLOCKS=1


$$ === CHEMSPECTRA SPECTRUM ORIG ===
##TITLE=F. Hundemer CEL-009
##JCAMP-DX=5.00
##DATA TYPE=INFRARED SPECTRUM
##DATA CLASS=XYDATA
##ORIGIN=Lara
##OWNER=
##XUNITS=1/CM
##YUNITS=TRANSMITTANCE
##XFACTOR=1
##YFACTOR=8.467313e-010
##FIRSTX=3997.453
##LASTX=373.96442
##MAXX=3997.453
##MAXY=0.9091708096531599
##MINX=373.96442
##MINY=0.4622333956421266
##NPOINTS=2559
##XYDATA= (X++(Y..Y))
2559A033409054A033088481A033002671A033095450A032978737A032373632A031481531
2552A030720785A030299337A030272728A030667286A031251413A031592471A031634074
2545A031789996A032232210A032609028A032675128A032649786A032675199A032488655
2538A031920366A031247049A030779704A030491794A030307362A030420274A031035303
2531A032018847A033038500A033828038A034197535A034044287A033513096A032983172
2524A032742143A032743973A032803245A032869626A032968178A032955366A032615294
2517A032125001A032067278A032707087A033426512A033256792A032151258A031222200
2510A031311600A032082483A032657952A032723770A032810988A033434607A034370282
2503A034806371A034174516A032969726A032229465A032292468A032709410A033086016
2496A033417220A033625797A033411659A032776284A032172305A031875736A031867007
2489A032197154A032857730A033667822A034379081A034598146A034058789A033321625
2482A033172671A033483179A033574268A033361046A033273264A033126141A032562428
2475A032131829A032486825A033412081A034397594A035156440A035336296A034624544
2468A033731528A033736033A034383516A034481222A033554277A032507239A032277192
2461A032946356A034113626A035120821A034841849A032596287A030272235A029664666
2454A030451810A031897488A033389133A034403789A034725841A034490725A033777777
2447A032535818A031191790A030559161A030829966A031511730A032082763A032380108
2440A032518854A032608395A032794305A033258482A033786224A033745255A033143036
2433A032877722A032929813A032544337A031964292A032014060A032611492A033303463
2426A033859856A033972979A033534285A033060605A032591712A031396354A029857616
2419A029600960A030669890A031785069A032410518A032935866A033415390A033378926
2412A032721095A031947890A031519614A031560865A032112822A032952128A033327889
2405A032717224A031845396A031779297A032466551A033215542A033520910A033182808
2398A032525330A032317950A032721306A033177388A033486769A033890759A034297072
2391A034418290A034461653A034769978A035103785A034975880A034066532A032542295
2384A031553896A032000615A033203434A033817901A033160070A032248331A032191945
2377A032871245A033752435A034341491A034371690A034021621A033648463A033456992
2370A033594471A034152906A035084145A036243954A037334143A037744468A036960774
2363A035438156A034409420A034549223A035423021A036123088A036005600A035257666
2356A034864446A035167844A035574086A035716422A035645958A035430763A035117582
2349A034796235A034460245A034231324A034578929A035788083A037382643A038286782
2342A037387924A034729783A032356596A031953873A033132829A034649393A035695164
2335A036265635A036595571A036393189A035235351A034015215A033841835A033903923
2328A033039698A031745860A031283302A031459920A031535734A031461328A031628513
2321A032249035A033078274A033487262A033183301A033022029A033915538A035415207
2314A035957592A034353035A031914523A030684743A030724938A031250357A031737835
2307A032048764A032274095A032527864A032820491A033132970A033602778A034319880
2300A034678043A033508028A031348275A030614842A031736216A033389625A034360427
2293A034098350A033034137A032474224A033075387A034061746A034369789A033774539
2286A032892503A032277826A032036445A032186314A032791136A033723363A034603215
2279A034955184A034481293A033401381A032507802A032605227A033626923A034650801
2272A034938501A034293130A032913834A031712071A031700596A032674565A033703371
2265A034174094A034014793A033448545A032805638A032448179A032571086A033026886
2258A033442280A033428694A032723911A031593526A030960405A031283513A032069530
2251A032757700A033282063A033804597A034321075A034771456A035128775A035141939
2244A034452431A033154651A031818084A031074936A031267322A032037501A032533566
2237A032428680A032237631A032417135A032657811A032444025A031930854A031667089
2230A031781338A031932544A031843847A031583250A031351653A031224664A031186510
2223A031251906A031431551A031643718A031754448A031718547A031651954A031726290
2216A031978793A032260227A032428116A032474365A032387570A032104023A031707495
2209A031471042A031551361A031845678A032127464A032141191A031802315A031407054
2202A031293087A031323567A031162717A030960828A031191367A031848775A032378770
2195A032406224A032140276A032011878A032173009A032460146A032626064A032489922
2188A032020818A031404309A030967374A030910848A031145118A031418317A031551432
2181A031556782A031600285A031812241A032122748A032356596A032458949A032525964
2174A032616068A032615645A032370957A031951480A031633088A031532496A031487725
2167A031387273A031297310A031226987A031119355A031075077A031220299A031403112
2160A031395650A031309488A031373124A031398818A030977089A030219510A029829036
2153A030303279A031360172A032274236A032619306A032528991A032367859A032379967
2146A032625993A033021747A033363087A033459104A033312192A033056169A032755236
2139A032422274A032151609A032071361A032190185A032357440A032437268A032516953
2132A032771005A033080949A033104390A032795502A032477533A032364410A032355048
2125A032313304A032309855A032550320A033063773A033491908A033473816A033239616
2118A033363721A033928208A034457500A034644254A034612577A034472071A034088636
2111A033413700A032741017A032455570A032671609A033234829A033871190A034213937
2104A033995083A033393216A032929602A032901304A033133109A033309728A033338520
2097A033332606A033379206A033460371A033569762A033698725A033670849A033276855
2090A032661120A032308517A032557923A033248767A033852394A033974880A033775454
2083A033741595A034012681A034201970A033929546A033261157A032595794A032332803
2076A032627049A033300929A033937149A034142697A033859927A033427709A033211670
2069A033266436A033510703A033958830A034476788A034678043A034462779A034284964
2062A034468833A034651153A034339520A033702667A033344151A033501552A033880270
2055A034137912A034192537A034140235A034087721A034044358A033930320A033758771
2048A033697669A033828953A034042880A034266451A034543239A034773216A034648336
2041A034069419A033457696A033387091A033938345A034660445A035161790A035413800
2034A035487361A035406619A035277588A035208038A035138982A035003474A034935544
2027A035127297A035571692A036020946A036175953A035983426A035719450A035643002
2020A035687350A035666865A035604637A035664331A035909372A036249515A036516589
2013A036557699A036370240A036155258A036106052A036124847A035900643A035322006
2006A034691418A034461512A034827981A035564442A036195452A036363553A036077684
1999A035622728A035357414A035560571A036153639A036565372A036286823A035561697
1992A035084568A035144895A035503622A035921690A036361652A036743750A036846102
1985A036575861A036216711A036184893A036496668A036730093A036619998A036396216
1978A036386994A036550941A036543128A036109079A035397398A034858040A034799262
1971A035158692A035707553A036222976A036453164A036258596A035824759A035484757
1964A035375857A035443506A035659685A036074868A036722984A037488234A038039982
1957A038041460A037550533A037026029A036834839A036972600A037294089A037703429
1950A038046176A038131845A037984089A037822676A037711171A037449659A036900095
1943A036253175A035859252A035835670A035942528A035866713A035541142A035137011
1936A034864305A034859730A035133772A035519672A035797023A035925633A036052694
1929A036282741A036566428A036784649A036840330A036702077A036375097A035779777
1922A034764276A033369000A031911707A030611956A029312134A027765160A026068458
1915A024627919A023776294A023541531A023694708A023902581A023881180A023486061
1908A022675406A021442106A019889148A018327743A017115139A016375792A015984403
1901A015730774A015395348A014864719A014295867A013974237A013943194A013979095
1894A013933057A013876108A013902295A013922146A013685904A013073971A012396782
1887A012210098A012782611A013914332A015234287A016442597A017335612A017842518
1880A018057994A018125220A018094950A017913686A017524409A016991457A016502783
1873A016201498A016048531A015923372A015810178A015783710A015862199A015994962
1866A016188756A016532700A017072903A017749950A018483243A019227517A019901608
1859A020366136A020581894A020718176A020957093A021275061A021577825A021876225
1852A022107468A022033062A021593030A021097739A020850094A020854670A020980744
1845A021107383A021136597A021110621A021195798A021446752A021800129A022264024
1838A022819854A023293815A023589610A023808183A023975861A023965935A023759752
1831A023483456A023203993A022904256A022574813A022197713A021723048A021087532
1824A020223941A019143326A018019488A017051573A016295825A015753793A015472077
1817A015433290A015569291A015960469A016727128A017675122A018405176A018826765
1810A019191475A019587933A019768071A019551962A019140439A018927920A019126079
1803A019597436A020051335A020393027A020779911A021298221A021729101A021737760
1796A021260489A020659749A020474402A020986165A022032710A023203641A024130798
1789A024630242A024757021A024771874A024931809A025274416A025646447A025908382
1782A026077609A026315539A026805481A027595440A028566101A029554571A030420837
1775A031000178A031190593A031122452A031016861A030867978A030533678A030075978
1768A029677549A029321566A028952070A028823742A029253355A030078512A030751758
1761A030964066A030882972A030806595A030850943A030958505A031005669A030909511
1754A030745845A030676648A030681505A030493482A029905061A029038162A028281217
1747A028024631A028376108A029026969A029502127A029640310A029704580A029959405
1740A030346571A030680520A030939146A031197914A031466465A031760431A032139713
1733A032527301A032707509A032627824A032474928A032381445A032289370A032148583
1726A032052354A032097969A032202786A032115849A031673072A031051777A030671580
1719A030800259A031335674A031946060A032334070A032416853A032372857A032471831
1712A032745100A032886028A032606776A032061505A031734526A031889533A032299859
1705A032601847A032753336A032994505A033466003A034063576A034629964A035087313
1698A035390499A035535792A035589854A035586404A035484545A035289343A035074361
1691A034861490A034646085A034507550A034551405A034782367A035108361A035396272
1684A035535440A035525726A035453783A035356358A035170377A034854028A034525852
1677A034420824A034647985A035044514A035393949A035678832A035963434A036186372
1670A036259370A036219034A036143502A036061845A036018482A036099083A036320120
1663A036533906A036524472A036238604A035873612A035667851A035666232A035740286
1656A035748663A035646522A035544450A035631668A035937178A036248318A036361300
1649A036298861A036203407A036145191A036103377A036030168A035909654A035818142
1642A035874034A036068251A036228186A036222413A036101688A035980047A035881355
1635A035784071A035713959A035670174A035541212A035242672A034897813A034712396
1628A034700006A034696839A034606946A034484883A034434974A034548519A034857196
1621A035250134A035548181A035721773A035916834A036189539A036338000A036128015
1614A035638426A035224651A035123355A035224651A035274420A035176784A035043035
1607A035007768A035074994A035186780A035407746A035891210A036600850A037227425
1600A037508016A037519701A037542157A037703992A037919538A038158947A038538018
1593A039028522A039344238A039315377A039153119A039130734A039238366A039348955
1586A039489742A039739429A040016006A040140603A040024102A039714158A039341070
1579A039088075A039115247A039387601A039625532A039563163A039263848A039072166
1572A039274548A039898871A040758027A041527150A041847372A041559319A040902476
1565A040387897A040356290A040656731A040874952A040892128A041005039A041432400
1558A041979923A042277900A042129792A041617677A041025665A040585844A040240985
1551A039834390A039489672A039535005A040082810A040853270A041389742A041450491
1544A041262892A041246561A041435568A041453589A041123864A040745005A040638640
1537A040745497A040809626A040712764A040511508A040342211A040400357A040804417
1530A041410297A041951555A042323656A042473736A042195328A041417758A040580072
1523A040311238A040741344A041406635A041840544A042043911A042284940A042644511
1516A042974306A043165777A043214349A043135790A043006617A042961706A043039631
1509A043131636A043115727A042993805A042921652A043103690A043588352A044169030
1502A044536204A044519450A044161991A043578004A042868011A042244886A042015683
1495A042234327A042607273A042913627A043229764A043608132A043850005A043733011
1488A043314097A042936857A042900745A043103901A043195765A043090667A043043996
1481A043200411A043394487A043445874A043455589A043704853A044280252A044903519
1474A045228105A045160949A044809473A044394501A044262583A044591111A045110336
1467A045528616A046030594A046880107A047826411A048409201A048562308A048459885
1460A048075253A047338864A046516805A046045658A046091274A046490125A046990907
1453A047393911A047574260A047499150A047182589A046639923A045998636A045576554
1446A045673627A046269652A047047504A047690692A048031186A047992259A047639727
1439A047287687A047271989A047568981A047875335A048090740A048431516A048972915
1432A049336640A049038170A048071522A046967677A046277184A046150616A046395798
1425A046714752A046834703A046642035A046328923A046263950A046596842A047060034
1418A047268751A047156262A046970070A046865536A046792537A046878066A047548496
1411A048958977A050545019A051439092A051201442A050070143A048735829A047853090
1404A047522662A047379762A047293178A047516819A047944250A047919612A047233766
1397A046627534A046855399A047858651A048946306A049312636A048705559A047854075
1390A047669503A048175142A048688031A048703448A048297064A047813107A047469937
1383A047293319A047189699A046994215A046622325A046215237A046023344A046112392
1376A046276973A046299921A046196724A046113237A046156459A046392208A046825411
1369A047322743A047755242A048245747A049022684A049972648A050597956A050528970
1362A049903592A049183181A048788061A048932439A049513540A050045576A050020093
1355A049480173A048946799A048692889A048489521A048129949A047766224A047599954
1348A047616849A047758129A048069903A048522465A048902310A049100891A049322350
1341A049702265A049985671A049990387A050026781A050392969A050896426A051240089
1334A051355746A051157306A050607952A050138707A050457380A051758187A053347116
1327A054262236A054317706A054239428A054515513A054568379A053589553A051831678
1320A050375793A049659114A048865424A047086924A044661083A042823734A042361669
1313A043173591A044722889A046321321A047360052A047673656A047525900A047377369
1306A047797198A049107790A050956472A052565182A053311919A052983039A051903058
1299A050837577A050459280A050984911A052171821A053270809A053457071A052803887
1292A052369276A053020419A054543881A055872213A056109792A055415216A054551343
1285A053663044A052485496A051546372A051809927A053257575A054896766A055882842
1278A055941903A055080634A053466293A051583188A050132372A049404852A049078154
1271A049068862A049832776A051351874A053053152A054996795A057556807A059851082
1264A060383752A059405489A058986717A060534254A063275741A065415854A065846171
1257A064486092A062050818A059754923A058598565A058647911A059230209A059539167
1250A058828260A056887573A054869242A054603505A056577981A059440968A061648518
1243A062678942A062634031A061686671A060245921A059052112A058682263A058942228
1236A059032684A058508109A057775661A057356889A057028150A056222000A055053603
1229A054333686A054524101A055130825A055298996A054796103A054230839A054279342
1222A054886136A055466815A055744730A055937538A056215875A056514979A056867440
1215A057429535A058133896A058625808A058636015A058355777A058281511A058545347
1208A058640097A058059982A056973876A056008988A055621259A055856374A056493297
1201A057273050A058061179A058742732A059012481A058577377A057635859A056880886
1194A056868496A057507109A058283342A058830090A059197053A059586965A059850801
1187A059476587A058321565A057081367A056617894A057004216A057735678A058763427
1180A060523484A062879354A064744579A065074655A063878594A061886027A059833977
1173A058613841A059186353A061415162A063849310A065178063A065019044A063527398
1166A061328719A059294267A057734622A056522229A055838635A055785136A056035034
1159A056779307A058858037A062387864A066351810A069549167A071194693A071088328
1152A069833065A068378096A067163662A066064251A064890083A063571818A062197378
1145A061221931A061487316A063436380A066146822A067843596A067675917A066409181
1138A065236772A064333408A063077794A061693711A061922491A065081835A069591474
1131A072126426A071288387A068539931A066102898A065193480A065781620A067100025
1124A068430680A069407113A069696783A069078444A067854366A066498370A065079583
1117A063461651A061701665A060032276A058755614A058044425A057663665A057228983
1110A056872368A057116283A057991418A058792289A058835300A058063643A057141272
1103A057069260A058146144A059472012A060095067A060291959A060988224A062281640
1096A063333957A063603706A063575267A063921182A064422386A064300464A063330015
1089A062040330A060868554A059865161A059107935A058880704A059329464A060073527
1082A060368829A059770200A058582163A057515627A056942551A056737564A056796061
1075A057317750A058404419A059693541A060654698A061093533A061257199A061421005
1068A061549263A061555880A061594454A061800145A061996052A061969795A061813380
1061A061718278A061731512A061850267A062049411A062203573A062285793A062490850
1054A062854857A063158043A063285737A063301576A063230971A063032953A062811916
1047A062844861A063327551A064175937A065139910A066041654A066782268A067192242
1040A067065954A066516602A066214683A066688222A067677748A068537538A068868882
1033A068850790A068945259A069301240A069619772A069497006A068928857A068322555
1026A067954818A067846412A067956226A068211122A068523389A068882186A069353050
1019A069952524A070540453A070864757A070781341A070471397A070313222A070540101
1012A071177799A072050541A072737514A072863590A072534851A072174716A071998379
1005A072006404A072165494A072272282A071944739A071137182A070283727A069682634
998A069309265A069080485A069044514A069239787A069550998A069900925A070326526
991A070757548A071040953A071170619A071305212A071640356A072275661A073028522
984A073556124A073741822A073608708A072983752A071599739A069029943A064409925
977A057526890A049998131A043666700A038758562A033986776A027100572A016321590
970A001320879I82672572I61880141I40975642I21720611I06641975H98598214
963H97869920I02810087I11373636I20638869I28839467I35943188I41451293
956I44602824I45566304I45534205I46152051I48673065I53656383I61171486
949I70153526I78510890I85421661I91304403I96511363A001170025A005328188
942A008934252A011896494A014402725A016856090A019347890A021469278A023042157
935A024550063A026271825A028083481A029960884A032006598A034104545A035933868
928A037434876A038937784A040677497A042353855A043715483A044916049A046074591
921A047207861A048309946A049384930A050456394A051478653A052282480A052809378
914A053328532A054058516A054981238A056034118A057160771A058254480A059203530
907A059964698A060555232A061023350A061510405A062176542A062941793A063726121
900A064481658A065105417A065622601A066188848A066818943A067353655A067561528
893A067110092A065437605A062294803A058165643A053024361A046241424A037877724
886A029739283A024265039A022372783A023415245A026038751A029103628A032320907
879A035648704A038346406A039439551A038964956A037239745A034252794A030125605
872A025338755A020104905A013815640A005579212I95419555I84899903I76494530
865I72420488I73822381I80307833I89970370A000317556A009367877A015824680
858A018756019A017745022A013355969A007120414A000943850I96325734I93672310
851I92133008I90061881I86632436I82797381I78861874I73872853I67873822
844I63367421I62503126I65135291I70136983I76457714I84479230I96605479
837A011454209A021500181A026737692A030003824A031754870A031494976A029053015
830A024993263A020067948A014757017A010002970A007601063A009461360A015925694
823A023231939A028290368A031473154A033651702A035287091A036809427A038671555
816A041216432A044655099A048778910A053046183A057221521A061247132A064708678
809A067361117A069450616A071039827A071879203A072004785A071818734A071481970
802A070155469A066014342A059701847A054549795A050458858A045617453A038632275
795A028211034A013356954I95898936I79782554I66047454I53744657I45447972
788I48322574I63387061I80466360I88094234I79719622I56463478I28958081
781I11096706I09873332I22873662I42268917I59272895I67243586I65320357
774I56515851I41603414I18611739H88522185H59386256H37720941H21750625
767H04401156G77533597G44466244G19031622G02853434F91029737F81477508
760F74394201F70329240F69490779F71501508F75404141F80278983F85995524
753F93505840G04453908G19213449G34799484G48500795G60778673G72894433
746G85093611G96850082H08002503H18730239H28800355H37858209H46268580
739H54708869H62969794H70393244H77245237H84187967H91536377H99245345
732I07048569I14724592I22324872I29794570I36551320I42117993I46673105
725I50444877I53133076I54197290I53647795I52547540I52320802I53474275
718I55683585I58478430I61400548I64089310I66426947I68367986I69686674
711I69881453I68339266I64798739I59903623I55517244I53793299I55358787
704I59268953I64138797I68717351I72210010I74262411I74757633I74061509
697I73096972I72703119I73176799I74258682I75320924I75682748I74846400
690I72651520I69276137I64883282I59310415I52162345I42675301I29234095
683I09962169H85054163H58081788H34137825H18032706H13571006H21853542
676H39959534H62505969H84756609I03989888I18656580I27540560I30031444
669I26531535I18116870I05605848H88844518H67389117H42628164H19178154
662H03230366G98934513H05957140H19736096H34255594H45339522H52090219
655H56214733H60333334H66386287H74903868H85192769H96024335I06348292
648I15632884I23720710I30552360I36114527I40461063I43480465I44585718
641I42920975I38264002I31831697I25958037I22729495I22842196I25622892
634I29885589I34652940I39258948I43190865I46099819I47841432I48377692
627I47742810I46127554I43818566I41048640I37992352I34824771I31755812
620I29127307I27464957I27262998I28633565I31187030I34267745I37285106
613I39804570I41370903I41337185I38834333I32743508I21642826I03945258
606H78476213H45560981H08196579G72166139G44049583G27836480G22868085
599G25199528G30957249G38372815G47316560G57860145G69549319G81590744
592G93253310H03999770H13403116H21169877H27339402H32362564H36861292
585H41282093H45765757H50280535H54826708H59518807H64537675H70022268
578H75927042H81930719H87546667H92352171H96036302H98248850H98568860
571H96733833H92919123H87870338H82805855H79073434H77654366H78683101
564H81197568H83406807H83554282H80890228H75997788H70269491H65090548
557H61324690H59107214H57581922H54789892H48667531H39210403H29688373
550H24857316H27468856H36656233H49476567H63266926H76508988H88468263
543H98786940I07330215I14095412I19191080I22937650I26028079I29427959
536I33758305I38664472I42917666I44867716I42591321I34493850I20966975
529I05416559H92860485H87019347H88292138H94072103I01152947I08142560
522I15438526I23176002I30276627I35786632I40107123I44249728I48482086
515I52308624I55422212I58099289I60713222I63245640I65404618I67085059
508I68581209I70273688I72191638I74041305I75599332I76862971I77856650
501I78515255I78799857I78878205I79167734I80084544I81626520I83232132
494I84118883I83842095I82667575I81433008I80921386I81257164I81850021
487I81919781I81138621I79753763I78034747I75755184I72349813I67402395
480I60922714I53438867I45898633I39200732I33760487I29685882I27275387
473I27087576I29535520I34546505I41499442I49162724I55519989I57815320
466I53379173I41527459I25529409I12095595I07187879I11477607I20300557
459I28043665I32079553I33057816I32838117I32534789I31880339I30137529
452I27636859I25990137I26380752I28087591I29475405I30277401I31995151
445I35887225I41357036I46626998I50371386I52394503I53272808I53821316
438I54691947I55984588I57032330I56730481I54384748I50339427I45711597
431I41569555I38452165I36538016I35936782I36613971I38195438I40199761
424I42565838I45697589I49858919I54702365I59492242I63657866I67090619
417I70024846I72706005I75200269I77495530I79661407I81841996I84170342
410I86669885I89155280I91253649I92595918I92977522I92358902I90784615
403I88346736I85224347I81687270I77969773I74209617I70582224I67272729
396I64187298I60991771I57605406I54407626I51941801I50620650I50607487
389I51830227I54230304I57791105I61909775I65105444I66115314I65298183
382I64495975I65499931I68776904I73420362I78031508I81688608I84310003
375I86264276I87729030I88550456I88823091I89322887I90901750I93525187
368I96372124I98841398A000999109A003070588A004939684A006291738A007074588
361A007652168A008401863A009308606A010214152A011241902A012507441A013629237
354A014064482A013776079A013172593A012605219A012182926A011785483A011006786
347A009275662A006283925A002383755I98495201I95466366I93593187I92878479
340I93371587I94798400I96184735I96370645I94796358I91574996I87053039
333I81646652I76321502I73126679I74448182I80885978I90217733I99241446
326A006417743A012175042A017208552A021488988A024838889A027495340A029743578
319A031533059A032786914A033719139A034583364A035313488A035546773A034977147
312A033809102A032951846A033572438A036192918A040127721A043864999A046227697
305A047302400A048166272A049726622A052003087A054479401A056811477A058982775
298A060963797A062376460A062108541A058160222A049240764A037713213A029629118
291A029782013A037065449A045880304A051325406A052078268A049560844A045960623
284A042630714A039234001A034478266A028443897A024183452A025727963A033200196
277A040419856A039139392A026284496A006209870I85233922I64211654I37216683
270H98065756H47155260G90392928G32878296F76811243F25035748E83056398
263E56219461E45903282E49087582E61770189E82694644F13141799F53062341
256F98395605G42179219G77222879G98554316H05598624H01295873G86973900
249G60199402G21217561F80111938F53449226F51995382F72760220G04132912
242G36155058G64373826G87762100H06363665H20430178H30412374H37450910
235H43539764H50598222H59290520H68860066H77923340H85489338H91494212
228H96431563I00566918I03401395I03564357H99823630H93219142H87603757
221H86728198H91172653H98842903I07421657I15553268I22467771I27544221
214I30461411I31394903I30893136I29643857I28659680I29855742I34314839
207I39599443I43494685I45964522I47697688I49330684I50956710I52333825
200I53661099I55477894I57841296I60224549I62170586I63702425I65119382
193I66482488I67311939I66672902I63445347I57205076I49648512I44408255
186I44334905I49169130I56273133I63207909I69189482I74538145I79643316
179I84583905I87790484I83547427I64587557I31952845H99798640H84819822
172H90874535I07562726I22051955I27930331I26118746I22105524I20962610
165I23242244I25927134I26067922I22422297I15358488I06871881I00076555
158H97719348I00989703I09272380I20544471I32233857I42332694I50092274
151I55665282I59100711I59484428I54771210I43300468I27016267I12513804
144I06616563I10318362I18487352I25813167I30859769I34992449I40047570
137I46458053I51761100I51172608I41135576I23443007I05838992H97301490
130I01298451I12802982I21583132I19413313I06527937H92352946H88337401
123H98220200I15779796I32386611I44664841I54031231I62040146I68574592
116I72645255I72402819I65183230I49801266I28966387I08402383H93942297
109H89880715H97493735I13141365I30282399I43935209I52461097I57230137
102I61012748I65235039I69181739I72077881I74428401I76919568I79170269
95I80376889I80689156I81130596I82297162I83633096I84201526I84031807
88I84115575I85034074I85989740I85212804I80756594I71256174I57747813
81I45140210I40003995I45165200I56951377I69037431I77691788I82670531
74I85508739I87737900I89775590I91309964I92305473I92845675I92594510
67I91287790I89176327I86700999I84070382I81010504I76639823I69989649
60I61331351I52814825I46693731I43626673I42511141I40936573I36863517
53I29520034I18011068I00731217H78588843H58842112H50987570H57404318
46H72439873H88214212H98261732H97988322H85612175H65286736H46869180
39H38028139H36779283H33618108H21775686H05578351G98430352H13736713
32H46585071H75221415H92432913I02970514I09349954I10936349I07773555
25I02535833H99566763I01566369I06963322I12083768I15678780I19698971
18I25572912I31378853I35418262I38252316I40052005I40806345I41462345
11I42468976I42078924I37838471I30586853I24507502I21146338I17794326
4I12116572I06337944I06747143I15235933
##END=


$$ === CHEMSPECTRA PEAK TABLE AUTO ===
##TITLE=F. Hundemer CEL-009
##JCAMP-DX=5.00
##DATA TYPE=INFRAREDPEAKTABLE
##DATA CLASS=PEAKTABLE
##$CSTHRESHOLD=0.93
##MAXX=3997.453
##MAXY=0.9091708096531599
##MINX=373.96442
##MINY=0.4622333956421266
##NPOINTS=45
##PEAKTABLE= (XY..XY)
1736.6681002032838, 0.7602545645924961
1723.9193131743546, 0.8006134065941165
1597.8479747771694, 0.8233788639508745
1566.6842731508991, 0.8149815231320439
1490.1915509773257, 0.8005403904139237
1477.442763948397, 0.7704182292396916
1446.2790623221263, 0.5668787976406827
1392.4508504222044, 0.8063598306945027
1372.6194039327597, 0.8076066399935588
1358.4540850117278, 0.8236181764649247
1332.9565109538698, 0.6888760355526878
1308.8754687881155, 0.6764828588073569
1274.8787033776384, 0.7813039448496936
1247.9645974276777, 0.7851426037384375
1222.4670233698198, 0.6120750333405606
1174.3049390383107, 0.7431374222738558
1151.6404287646596, 0.6984325074911908
1119.0601952462857, 0.7510670448104612
1066.648515238467, 0.8305768403655819
1042.5674730727128, 0.7849940684403288
1026.9856222595777, 0.7681443721299127
1011.4037714464421, 0.7840648324891881
978.8235379280686, 0.7924869681406767
924.9953260281468, 0.8049091132572431
913.6630708913212, 0.8166689307565176
855.5852633150898, 0.8407012852656928
841.4199443940574, 0.8239768179743527
743.6792438389366, 0.4622333956421266
719.5982016731818, 0.5520648973948566
685.6014362627047, 0.7508205198391974
670.0195854495696, 0.7863252189507153
636.022820039093, 0.7995979217460265
617.607905441751, 0.7492046381478287
607.6921821970286, 0.779807868016693
596.3599270602031, 0.7601270705671924
576.5284805707583, 0.7676606209905219
558.1135659734164, 0.7597732571196371
548.197842728694, 0.7521830823873513
526.9498643471461, 0.7534898546568796
498.61922650508177, 0.8332105311824591
485.870439476153, 0.7959308055382748
440.54141892885036, 0.720557811429941
420.70997243940565, 0.6760559699084177
406.54465351837325, 0.761691334671782
376.7974837842062, 0.7674247055624472
##END=

##END=

