##TITLE=X9425
##JCAMP-DX=5.0
##DATA TYPE=LINK
##BLOCKS=1


$$ === CHEMSPECTRA SPECTRUM ORIG ===
##TITLE=X9425
##JCAMP-DX=5.00
##DATA TYPE=INFRARED SPECTRUM
##DATA CLASS=XYDATA
##ORIGIN=ComPlat
##OWNER=
##XUNITS=1/CM
##YUNITS=TRANSMITTANCE
##XFACTOR=1
##YFACTOR=9.1106006e-010
##FIRSTX=3997.453
##LASTX=373.96442
##MAXX=3997.453
##MAXY=0.9782432896868895
##MINX=373.96442
##MINY=0.2838834521452915
##NPOINTS=2559
##XYDATA= (X++(Y..Y))
2559A072272675A072044413A071833619A071769766A071842124A072061227A072542612
2552A073227726A073733318A073741823A073375975A072975715A072658804A072279479
2545A071717231A071073464A070586583A070378144A070375266A070506113A070832183
2538A071380562A071912977A072023347A071601627A071088315A070971600A071182721
2531A071393516A071550139A071561457A070841342A068851359A066144073A064424877
2524A064844633A066319604A066866413A066238544A065913848A066714238A067919926
2517A068757999A068925680A067969255A065598115A062771562A061453935A062355993
2510A063975549A064622848A064284020A064094947A064221803A063548923A061750107
2503A060454396A061764631A065541131A069451226A071748961A072430804A071884387
2496A069536865A064519479A057466183A051190967A048448810A049202815A052064238
2489A056195726A060278342A062320599A061440262A059295355A059180864A061564108
2482A063046798A061416513A058070433A055749473A054755299A054583301A056758498
2475A061283115A064415718A063261780A058542528A053223344A049762447A049621721
2468A052552231A055274303A055094454A053328676A053735741A057212732A060680303
2461A061347687A058465852A052233030A044098678A040100916A045176528A054050491
2454A061216710A064973779A065060400A061873888A056430988A050150277A044702732
2447A042268000A044309014A049070791A053494132A056720945A059420445A061653084
2440A062573460A061844055A060136569A057733961A053928020A049413413A047701283
2433A049766765A052484911A055144568A059499476A064877280A068628003A069327248
2426A067102068A063492266A060634834A058322902A054533448A050047169A048990320
2419A052200973A056513617A060755802A065165470A068841153A070879876A071703688
2412A071976503A071508464A070119853A068706969A067987835A067074786A065248427
2405A064103386A065711755A069167288A071733848A071644153A068702978A064412381
2398A061422990A060913930A061863682A063425011A064857064A064478262A061478403
2391A057921529A056861932A057785972A057233341A052922331A045544862A039592445
2384A039442037A042150827A043227761A043150758A045393407A050184166A053636559
2377A053252654A048447502A040527607A034399659A035902173A044363512A053736526
2370A059593097A060871013A058715704A055678096A054301064A055391083A058293985
2363A061923021A064956573A066056667A064283693A059412005A052790634A048600462
2356A050827670A057617180A064311629A068026435A068008836A065721634A064430634
2349A065856079A068226500A069543276A069496301A067950675A063891480A056950515
2342A050140136A049154598A054795927A061912226A066965791A069186196A068484791
2335A064841297A058207888A048997647A040955607A040125580A044245095A046491473
2328A046807272A050682234A059148480A067274262A071929660A073323113A072940583
2321A071561719A068878378A065240445A062590143A061382754A058438832A050576183
2314A038763923A031113311A035429292A046494613A056080973A061709610A064279048
2307A065456473A066145512A066073023A064686440A062076700A058736182A054464361
2300A048764413A044143689A046033771A053172053A059093786A060711510A057928922
2293A052262275A047090097A045452680A046199554A046655228A046647050A047200663
2286A047862551A047811521A048331572A051078962A054712054A056445251A055454151
2279A053358835A051928615A050943993A049438405A047953359A047865822A048680933
2272A047852018A043622919A037839294A035669004A038906546A043618143A046382085
2265A046682509A045436259A043663743A042081413A041077164A040434706A039002653
2258A035017060A027201319A016705312A008856009A008601578A013358644A017613324
2251A019315052A019473442A019303930A018539457A016252517A012525739A008766183
2244A006106329A003832081A000541023I96490987I93828255I94079808I96261482
2237I98237988I98704588I97796838I96568776I95826678I95390042I94579446I93038594
2229I91011712I89159641I88018723I87614471I87786731I88480154I89446784I90186331
2221I90426892I90315215I90026436I89312536I87641164I85030247I82569673I81443737
2213I81386360I81046551I79773543I78319769I77872339I78680972I79904586I80580736
2205I80513481I80255844I80226665I80184140I79720092I78841783I77871096I77035966
2197I76393770I76088373I76403910I77309894I78143257I78211297I77617907I77076921
2189I76949607I76901848I76571918I76041530I75543658I75142350I74818440I74590112
2181I74420142I74200712I73983572I74045855I74467836I74784027I74387692I73119394
2173I71169777I68798113I66540941I65127665I64670028I64512554I64126032I63512949
2165I62797610I61988061I61079199I60054145I58889871I57660630I56454550I55227338
2157I53951189I52777951I51784824I50662878I49039331I47151539I45764890I45199959
2149I44927275I44348539I43484950I42689991I42075796I41515379I40972234I40465530
2141I39764517I38486276I36644934I34807191I33549033I32987570I32806740I32469089
2133I31581621I30345184I29442276I29252352I29431350I29426836I29132234I28806164
2125I28521311I28078067I27472639I27012386I26836397I26734859I26517588I26173723
2117I25659430I24897312I23974908I23110011I22461469I22088621I21986495I22046750
2109I22076125I22007496I22011094I22153063I22056956I21262389I19864814I18443294
2101I17427465I16778465I16196720I15434276I14372127I12924046I11114958I09299066
2093I07980130I07252688I06701037I05916088I04836732I03601211I02344297I01129973
2085H99926379H98686082H97445982H96255276H95069346H93837162H92589407H91290360
2077H89732694H87772413H85539381H83264741H81059449H78975583H77045723H75196073
2069H73329478H71472043H69699330H68024687H66401860H64697188H62737626H60568710
2061H58545099H56969900H55729668H54421397H52825262H51165797H49849282H49019779
2053H48488018H48011016H47450141H46732773H45909158H45291103H45331077H46167581
2045H47390213H48463418H49319287H50283367H51531253H52945183H54405237H55899311
2037H57401040H58848729H60238322H61682478H63343447H65234183H67097442H68621283
2029H69799493H70958600H72395494H74100297H75890215H77677975H79461024H81170538
2021H82700791H84052962H85338335H86651841H87969141H89163576H90136553H90900371
2013H91514565H92017737H92433961H92737722H92862680H92890943H93099906H93644032
2005H94341576H94916779H95302646H95591425H95796331H95775657H95420997H94922274
1997H94698984H94951061H95407062H95634670H95471962H95093422H94824924H94898918
1989H95223680H95467186H95504412H95572975H95837613H96097279H96106242H95937188
1981H95901924H96268099H97049189H97976762H98767273H99418039I00125266I00970275
1973I01872333I02779755I03704319I04580403I05262966I05741407I06264075I07131000
1965I08416962I10001255I11747995I13514623I15127309I16541240I17920431I19425300
1957I20980479I22306808I23182631I23736374I24436405I25661785I27314969I28987518
1949I30433506I31728562I33027740I34384948I35818375I37359161I38959614I40477371
1941I41821037I43002911I44032479I44902087I45715038I46691286I47968154I49452546
1933I50896636I52068304I52815832I53081320I53038402I53178604I53932347I55124427
1925I56128611I56665540I57078558I57773747I58805082I60055716I61391007I62547235
1917I63233330I63409254I63259172I62945467I62572815I62311056I62364965I62786815
1909I63350242I63682265I63621880I63386944I63235947I63084950I62737094I62439221
1901I62802844I64029140I65580525I66837243I67713721I68414798I69019899I69551660
1893I70065037I70482242I70697943I70895718I71418255I72327837I73349096I74181412
1885I74757727I75285170I75996126I76776300I77240937I77249639I77043293I76841855
1877I76666062I76549870I76535804I76506036I76371199I76322328I76551833I76863379
1869I76863706I76360862I75355501I73897148I72163624I70457316I68999356I67871849
1861I67033579I66187196I64846148I62791264I60306026I57842180I55631197I53606342
1853I51493886I49070931I46507511I44274414I42560845I41040078I39324676I37395929
1845I35501595I33857505I32518222I31352966I30079042I28411988I26236268I23658848
1837I20906027I18165899I15592273I13468957I12117571I11477731I11000467I10183329
1829I09056672I07988570I07178955I06496982I05693844I04676510I03638961I02956006
1821I02888751I03376809I04160974I05091556I06256355I07807151I09741459I11910245
1813I14194241I16530183I18759486I20638773I22049759I22992641I23388256I23222931
1805I22873505I22863822I23251391I23591331I23533431I23146386I22614494I21914921
1797I20957058I19845383I18753467I17599660I16102969I14119266I11685515I08811793
1789I05494107I01843088H97966556H93786262H89119088H83915638H78392333H72954995
1781H67971891H63586887H59767142H56505197H53901673H52072239H51072177H50910842
1773H51521177H52717117H54345505H56466336H59171789H62259054H65363133H68401592
1765H71570178H74879882H78018504H80737500H83107790H85303334H87375097H89324256
1757H91190720H92991761H94684264H96202283H97502050H98651604H99833347I01112178
1749I02341811I03465065I04634639I05871534I06951478I07786150I08563576I09432464
1741I10376393I11405634I12584564I13894733I15275297I16762960I18468548I20444727
1733I22617569I24804477I26790339I28467206I29949176I31476093I33126660I34681382
1725I35883798I36787884I37702176I38832627I40161965I41633599I43219004I44804606
1717I46239144I47502732I48671979I49776195I50844036I52003862I53368856I54867378
1709I56284842I57438256I58289546I58951827I59598799I60330036I61124276I61945143
1701I62831760I63799177I64691814I65308756I65672772I65977384I66287033I66542053
1693I66819644I67265897I67790986I68140019I68236061I68195171I68055231I67735768
1685I67204530I66496060I65616835I64588052I63523287I62517336I61512302I60431704
1677I59382574I58540444I57866386I57156085I56361322I55669404I55246442I55092500
1669I55153082I55385008I55681769I55905321I56070384I56353340I56869007I57601619
1661I58607242I60060361I61984855I64131659I66216833I68096578I69676422I70881914
1653I71818188I72797511I74100156I75730115I77428179I78909496I80049106I80833532
1645I81258654I81399837I81481551I81709617I82075138I82437322I82736830I83023777
1637I83334931I83641505I83910264I84164041I84478924I84906270I85393347I85830441
1629I86220430I86693310I87291607I87877212I88363438I88893630I89625979I90454697
1621I91122409I91556951I91920574I92338760I92742488I93031202I93251024I93540719
1613I93968196I94441403I94749809I94777156I94708265I94846243I95167734I95337638
1605I95247943I95205744I95449316I95844408I96237471I96766485I97565763I98431053
1597I99052444I99424180I99750381A000068927A000291367A000545013A001086981
1590A001866566A002536371A002903331A003044645A003051645A003011018A003152725
1583A003676439A004459034A005113987A005300902A004941924A004232407A003453672
1576A002784129A002378962A002486714A003210493A004223444A005015002A005392364
1569A005544604A005697237A005899199A006108946A006346172A006720459A007315877
1562A008054115A008709461A009043513A008921564A008468376A008183457A008608316
1555A009674652A010637423A010845469A010354925A009696242A009334909A009466671
1548A010052211A010833693A011395091A011389923A010851946A010229181A009973833
1541A010106250A010304680A010333073A010215050A010035266A009790648A009525356
1534A009427156A009623164A009986656A010308670A010542101A010717828A010815962
1527A010869480A010989793A011162642A011198298A011001243A010755054A010705594
1520A010818908A010845797A010759699A010849002A011261628A011749425A012002155
1513A011944059A011664374A011343211A011194961A011209747A011106967A010787177
1506A010612955A010977298A011734704A012313178A012403724A012349750A012673661
1499A013374476A014017719A014418045A014810585A015376301A015983496A016376298
1492A016385981A016081239A015829228A015988076A016490266A016971913A017279599
1485A017542666A017772433A017727160A017277571A016677900A016333773A016435245
1478A016924154A017640540A018336776A018720745A018695492A018504652A018508708
1471A018834059A019287050A019607887A019754239A019861860A019973342A019949593
1464A019692806A019351427A019194280A019320613A019634122A020096076A020726234
1457A021308961A021490053A021275725A021030126A020933430A020888877A020915504
1450A021143308A021447724A021537027A021444976A021591982A022211607A022932377
1443A023188836A022933162A022568884A022254329A021753970A020991919A020308702
1436A020081421A020348218A020860287A021359140A021774710A022182232A022631298
1429A023071794A023389032A023452885A023223773A022854588A022568884A022423121
1422A022285732A022039935A021735717A021570392A021780271A022536696A023845426
1415A025461776A027004722A028344462A029763626A031447886A033039376A034143461
1408A035041201A036306031A037839556A038871610A038968567A038535988A038068734
1401A037333833A035844011A033775258A031770096A030170233A028989798A028305928
1394A028304619A029068045A030377101A031763031A032838264A033508592A033853701
1387A033929199A033737771A033308658A032641667A031680793A030528099A029505073
1380A028803145A028289833A027746688A027162196A026743748A026623041A026586470
1373A026287485A025653140A024827235A023873361A022846345A021980139A021490838
1366A021363000A021490249A021788710A022135912A022429336A022655505A022796558
1359A022859103A023029923A023515823A024201329A024745652A025030374A025263216
1352A025617157A025982546A026178359A026267989A026490494A026908811A027344400
1345A027709593A028160164A028790649A029427154A029890221A030181355A030268629
1338A030067060A029758916A029700362A029961597A030361923A030840234A031437418
1331A032079942A032567673A032723250A032717166A033172316A034373490A035477967
1324A035286146A033758444A032080400A031266075A031262934A031516908A032024332
1317A033327042A035406852A037262718A038026340A037919111A037628107A037336057
1310A036947508A036794352A037355946A038395262A039075796A038977596A038347634
1303A037431706A036423139A035927753A036502890A037830397A039132911A040117010
1296A040747364A040597021A039477038A038432946A038889274A040742981A042385435
1289A042833978A042750890A042977975A043220238A042844707A042138135A041988119
1282A042688542A043624882A044030834A043808460A043637901A044280620A045642539
1275A046833768A047386400A047766183A048312795A048548254A048117833A047535631
1268A047517050A048253849A049550540A051060643A052294071A052739015A052078435
1261A050515797A048950673A048223950A048272429A048506383A048471905A047897029
1254A046794187A045646988A044874207A044268713A043639994A043401919A043665967
1247A043586543A042556256A041239348A040507457A040150049A039420316A038099156
1240A036416924A034663904A033353735A033110164A033872674A034718205A034977544
1233A035019088A035425956A035954512A035875742A035020396A034069205A033814120
1226A034240615A034540712A034167210A033429823A032783897A032189788A031545498
1219A031126984A031306114A032146804A033277648A034125666A034487457A034729851
1212A035269267A036104331A036875608A037135535A036730040A036091835A035868938
1205A036217252A036755948A037099748A037147900A037018165A036901253A036869523
1198A036728470A036118790A034867698A033385008A032504409A032611899A033230739
1191A033798680A034368583A035123046A035790037A036160464A036586109A037206192
1184A037415678A037099028A037486858A039277235A041094174A041464405A040974907
1177A041086257A042110199A043449874A044585166A045125433A044901554A044352324
1170A044143885A044469759A045198118A046162263A046840049A046483491A045141658
1163A043886837A043415461A043191779A042728123A042749974A043959588A045670606
1156A046772859A047198504A047279760A046491931A044409962A042172482A041422272
1149A042372154A043935512A045152256A045571358A044869038A043148076A041203104
1142A039779556A039247402A040302354A043492792A047725620A050729143A051325019
1135A050156688A048411584A046936745A046221732A046258370A046483230A046061903
1128A044265115A041030190A037447866A035247219A035211956A036244795A036341425
1121A034469662A031318740A028217213A026042605A025181699A025510778A026416696
1114A027393794A028312601A028950086A028742956A027293239A025188437A024066295
1107A024899135A026647314A027795756A028171613A028547798A029275764A029987898
1100A030271901A030138437A029763168A028953096A027502005A026149507A026053269
1093A027052873A028007073A028723198A030061891A032151319A033825634A033955696
1086A032772514A031839576A032385207A034105385A036002794A037459773A038261341
1079A038356532A037780740A036731545A035852386A035936716A036786566A037150517
1072A036431121A035653629A036084769A037376620A038278481A038394150A038176094
1065A037928008A037732261A037878614A038409525A038648712A037749533A035313101
1058A031547199A027828206A026737598A029329411A033390830A036298639A037185976
1051A036654738A035887910A035792523A036485357A037339787A037611948A037106618
1044A035997037A034166294A031322142A027657516A024196291A022787268A024453732
1037A027427160A029362188A029811778A029707100A029741513A029472230A027870011
1030A024676434A021520998A020561891A021418806A022504704A023912746A026314308
1023A029019631A030921032A031819753A032211312A032363617A031785667A029996795
1016A027807532A026948065A027988755A029778935A030834542A030157475A027728631
1009A024969269A023720729A024220236A025053142A024751671A022676898A019777072
1002A019005730A022136894A026753430A029707755A030102977A028909589A027359120
995A025997725A025365604A025708291A025726741A023627565A018975766A013181608
988A009426501A009981946A013206011A016380943A018114140A017490589A014112191
981A009528169A006396613A004950232A003744218A002487500A000889729I97399195
974I90811647I82312756I75852980I73865417I74081249I73405687I70930458
967I66674535I60355878I52610337I44469572I34310169I18321934H95889036
960H73226698H52768802H30342250H03985060G74339559G40913764G03399268
953F65330244F31499477F04520242E88664293E90580413F04955570F15465053
946F13049883E96587917E68469399E31684275D87921060D41576074D01551544
939C71073596C45102535C22331529C11596858C18438477C39951947C68055189
932C95797654D23805509D54380119D84373313E09573228E33694704E65188481
925F00350809F28081890F48863044F66440021F82720306F99448415G16453526
918G30515435G41084716G52744866G68786814G84975768G96972391H05829738
911H14999482H26480241H38313371H47235094H51657258H51698606H50415195
904H56353546H69648169H78251346H80786830H83469123H92292908I04356394
897I13534904I18624190I20139003I18387292I14890280I14707291I22324210
890I32643443I39512703I42407623I43089989I43154170I42719824I41045312
883I38164392I34267906I27073098I10561149H76590115H26562347G80719584
876G53247645G43440350G49989036G71583206H02020003H32722222H58732144
869H79858668H97765183I13271182I26036465I35724231I42712169I47856411
862I51713644I54006799I53816090I49806682I40175377I23282401H99402272
855H72394054H49166720H35589206H32934521H40819349H60707146H87994394
848I09882774I22021758I28696188I35173496I43253155I50756041I56060701
841I58778127I57783168I51245474I40791207I38433348I47705806I57466388
834I64185829I68232790I70340274I71814655I72807194I71408180I66025601
827I57396124I48027689I42204091I46743428I58875608I67713001I70319142
820I69756108I70523852I73022437I73507093I70221988I64802641I59617771
813I54529597I48407996I42663232I38829029I34985731I30154998I26309673
806I23694503I19387746I11246393H99936193H89654448H91633833I11866738
799I32894407I44667086I49169589I48769002I45338853I41985969I41243545
792I41214889I37800377I28744666I15800124I05358353I01253297I00114210
785H98125338H94447955H89965078H85524727H80628963H74045341H65861070
778H59023409H59173556H69116211H82674491H92548321H96943334H97425112
771H96876602H96727960H95181220H89950620H80847739H72591829H73177630
764H80245713H86407419H89585295H90347936H90245221H91392682H94460843
757H97599204H98504794H96167543H90595367H81503216H68157497H52482182
750H39608362H30734855H23336974H16675171H11886702H08671730H04925260
743G99696295G94162849G89365940G84508056G79045922G74610216G71303587
736G65845051G56208315G44479209G35892060G34606425G40328029G49900257
729G60196656G68423125G72252946G71026322G66106025G60083016G54866023
722G50813306G47528593G43851602G38067388G29096859G17747339G07380805
715G01312851F99486884G00103957G02010722G04384218G05940117G05498574
708G03161062G00652859F99928557G01679876G06340246G14776921G26701840
701G40613471G56081328G73612444G91856216H07788057H19765707H27996559
694H33449403H37170097H39825895H41814570H43826404H46895874H51763702
687H58203654H64845830H69913003H72675440H74368860H77069407H81043158
680H84435165H85588645H84256560H81203642H77533651H74227283H71829908
673H70280813H68919679H66697050H62591863H56176772H48151087H40253960
666H34149564H30322557H27919621H25124930H19752688H10016639G95320320
659G76904222G57711745G40947130G28017635G17404193G05526903F88998466
652F66562166F39563696F11021889E84207128E61562585E44212071E31958040
645E23584826E17416446E12052840E06864241E01890231D97352137D93296246
638D89578169D86051161D82825951D80440058D79673983D81062921D84632422
631D90089878D97061526E05140793E13982896E23466966E33702554E44929864
624E57426649E71302951E86261684F01667455F16903518F31593033F45545423
617F58653393F70829473F81869082F91313211F98513384G02864890G04027071
610G02141111F98032194F93117065F88843805F85968251F84216278F82611049
603F80179261F76437370F71347037F65063840F58017347F51232090F46084512
596F43065942F40564347F35188310F23631136F04494138E78951993E50578062
589E24758424E07241669E01696611E07650140E20793929E36306700E52828365
582E72862056E98514898F27283398F53223840F72619653F87707074G04070709
575G24757652G47813447G69235030G86820970H00793641H12169069H21599067
568H29241043H34849006H37800452H37314421H33034488H25798071H18081054
561H13555849H15612172H25481160H41385523H59663708H76940850H91434880
554I02819664I11507367I18080586I23000819I26535187I28764097I29576459
547I28688140I25678206I20011559I11155586H98760076H82676584H62767590
540H38804243H10879770G80278826G49718968G21929006F97660393F75602240
533F54665118F36047123F22630682F16432927F16908751F21484987F27141756
526F31475140F33030385F31424044F27506164F23404641F21954073F25307349
519F33640327F45061225F56546302F64979836F67908056F64042842F53462505
512F37487289F18229454E97826316E77722557E58493312E40165110E22652902
505E06033886D90502275D76150736D62953267D50965312D40399041D31539274
498D24729876D20362831D18636700D19299080D21837311D25995066D31933319
491D39843237D49535451D60209606D69982586D75286330D71471066D55751328
484D30993446D06434124C93198219C97674749D18322472D48036830D79124263
477E06755998E29552290E48560633E65930840E83620280F02356559F21380310
470F39096770F53992827F65133254F72249488F75719609F76325104F74667536
463F70429867F61617008F44670843F17240121E82394245E48763380E24654597
456E12916298E12385616E21622713E38745096E59526478E78527330E92007494
449E98965207F00253328E97466880E91906610E83662085E71481426E53572425
442E28724161D97163260D60969531D24067497C91549451C68104420C56225625
435C55474368C63241107C76234978C91657759D07585315D22751832D36241024
428D47320510D55327548D59841272D61464623D62400832D65521233D72488793
421D83026637D95880045E09887391E24112531E37650987E49653237E59372471
414E66208562E69883787E70554639E68757000E65318411E61111491E56535124
407E51186434E44271246E35576215E26275167E18926778E16532838E21181105
400E33134581E50888431E72039357E94339380F16306267F37206426F56742572
393F74846535F91590083G07065726G21295381G34245288G45817902G55794185
386G63967596G70428287G75571613G79716970G82819609G84631510G85075932
379G84379303G82806590G80214908G75869289G68803955G58540398G45574069
372G31115498G16247900G01366563F86578586F72539771F60551326F51662249
365F45770283F41767091F38797654F37595368F40446258F49436349F64474244
358F82921091G01016744G15694680G25378913G29583086G28290385G22061947
351G12663352G03125210F96688660F95279374F98669745G04999983G12186154
344G18963953G24809860G29328327G32152132G33329622G33325370G32496782
337G30805653G27955614G23369891G16010152G04691904F88809981F68694511
330F45441073F20620482E95971694E73004352E52650283E35195615E20706817
323E09719416E03343841E02433834E06632054E14248678E23040536E31211166
316E37887624E42978447E46916478E50437925E54071148E57603030E60266940
309E61503377E61382344E60421274E59256934E58483433E58602831E59975806
302E62800527E67169763E73088487E80404851E88868676E98368873F08996707
295F20713711F32979224F44926452F56025205F66366223F76109599F84922850
288F92257533F97913909G01976179G04433220G05252386G04702110G03227728
281G00945956F97484012F92374314F85228901F75176465F59966572F35383730
274E96688211E44386817D90707868D56324405D55339554D83872137E25397872
267E64909057E95983797F18346431F33775361F44269209F51430258F56327526
260F59623164F61553024F61943994F60541316F57417742F53360510F50154829
253F50212009F55190664F64550855F75718825F86021113F94373391G01035717
246G06193829G08912040G06950908F97495265F78598959F50548481F16421478
239E81778938E53459439E36993711E33717635E40503284E52505108E66066790
232E79610480E92835820F05872609F19056144F32594927F46062988F58621401
225F69746454F79413611F87767590F94869169G00606474G04796320G07557972
218G09540432G11509153G13646862G15415387G16143615G15698802G14622325
211G13628936G13025405G12470092G11356520G09896204G08687311G07854733
204G07182311G06420063G05563474G04921605G04979505G06209072G08891628
197G13057790G18536607G24978456G31984583G39319527G46682865G53334462
190G58520051G62277709G65337627G68233528G70863156G72737406G73086767
183G70986349G66610439G62618369G62888240G68920867G78159828G86647140
176G92692458G97297742H01865407H06309422H09330544H10228415H09870941
169H09674802H10260276H11397269H12765207H14253916H15638276H16408636
162H16154270H15085186H14056730H13883947H14500694H14825848H13620095
155H10852292H08229665H07742587H09813630H13434619H17453644H21132205
148H24010377H25940956H27079323H27451123H26749262H24568373H20464167
141H14124313H06129443G98352956G93140085G92105414G95595098H02586700
134H10950558H18416742H23628304H26455838H27654525H28090573H27904770
127H26597153H24010573H20799135H17852400H15635397H14086891H12814929
120H11337538H09157892H05564446G99716968G91440909G81845717G72673618
113G65078878G59362181G55635272G54260792G55496770G58615896G61777678
106G63535801G64040804G64496086G65821695G67787210G69548931G70736039
99G71343168G71077156G69772941G68276708G67851717G68621293G69911704
92G72273554G77392281G85363729G94001580H01215491H06321395H09484747
85H11270152H12532496H13708809H14404587H14251823H13404067H11868972
78H09468849H06664802H04020650H01025829G96852797G91881470G87399051
71G84233671G82197498G80587363G79025052G77548839G76094346G74341915
64G71919483G68262707G63099362G58526921G59238400G67011288G78370622
57G91037050H05631243H20942870H33323201H41155560H46154431H50450720
50H55207197H61664748H70112937H78291516H83316949H84366471H82630788
43H79347907H75446906H72584044H72176260H73437885H74079427H72886758
36H70610351H68198779H65792114H65153778H69990137H78706366H85249948
29H86484357H84957440H87038624H95440297I05845496I12888979I15161199
22I12966375I06367574H97692039H93084400H98319777I09626379I17913888
15I22528920I27253013I31994574I32909454I28086899I20692682I15526065
8I13308866I11012766I07872182I05980072I07097634I11242991I15696493
1I16243760
##END=


$$ === CHEMSPECTRA PEAK TABLE EDIT ===
##TITLE=X9425
##JCAMP-DX=5.00
##DATA TYPE=INFRAREDPEAKTABLE
##DATA CLASS=PEAKTABLE
##$CSTHRESHOLD=0.93
##MAXX=3997.453
##MAXY=0.9782432896868895
##MINX=373.96442
##MINY=0.2838834521452915
##$CSSOLVENTNAME=- - -
##$CSSOLVENTVALUE=0
##$CSSOLVENTX=0
##NPOINTS=48
##PEAKTABLE= (XY..XY)
379.63054756841257, 0.8254022587551243
399.4619940578573, 0.813653527049064
412.2107810867865, 0.8062493783838464
419.29344054730245, 0.7882070528939067
458.9563335261919, 0.6910635821578752
507.11841785770093, 0.6995590313611231
528.3663962392493, 0.6871768824151675
566.6127573260355, 0.7216556060051649
589.2772675996871, 0.7359020097767752
628.9401605785765, 0.6947911370182421
657.2707984206409, 0.6422259197465963
706.8494146442531, 0.4862488205661581
732.3469887021106, 0.5923300975180298
755.0114989757622, 0.41484168138761324
804.5901151993744, 0.508811949977986
827.2546254730255, 0.45774739895007005
865.5009865598122, 0.6334412681932025
885.3324330492569, 0.5808876742258021
941.9937087333851, 0.4705924383802503
988.739261172791, 0.3238584990385421
1017.0698990148553, 0.466814070056097
1055.3162601016415, 0.35822719299403316
1075.1477065910867, 0.381403177020202
1110.5610038936666, 0.5666375150646243
1123.3097909225953, 0.5616074194585956
1167.2222795777948, 0.741198240603291
1204.0521087724783, 0.45707574451945665
1270.6291077013288, 0.437011807732419
1372.6194039327597, 0.6376769531361335
1383.9516590695853, 0.637274562506253
1409.4492331274432, 0.6692705736368855
1457.6113174589523, 0.7949835640842497
1474.6097001641906, 0.7826219185449446
1508.6064655746677, 0.8105286347741469
1541.1866990930412, 0.8584045156787055
1558.1850817982795, 0.8549691423348809
1579.4330601798279, 0.7588533746783312
1612.0132936982013, 0.677318809877421
1636.094335863956, 0.8333532794208974
1654.5092504612976, 0.7747793185816118
1698.421739116497, 0.2838834521452915
1718.2531856059418, 0.5363085261004376
2732.4900203518478, 0.8708871591045793
2885.475464698983, 0.7752308827671706
2927.97142146208, 0.8407843690431493
2952.052463627834, 0.8225858796593851
3178.697566364347, 0.8162204606335555
3273.605203135262, 0.7701109630166462
##END=


$$ === CHEMSPECTRA PEAK TABLE AUTO ===
##TITLE=X9425
##JCAMP-DX=5.00
##DATA TYPE=INFRAREDPEAKTABLE
##DATA CLASS=PEAKTABLE
##$CSTHRESHOLD=0.93
##MAXX=3997.453
##MAXY=0.9782432896868895
##MINX=373.96442
##MINY=0.2838834521452915
##NPOINTS=70
##PEAKTABLE= (XY..XY)
3545.5793264190775, 0.9054372296299953
3525.7478799296323, 0.8997760992061282
3501.666837763878, 0.8909004318416803
3483.2519231665365, 0.8892751316706824
3459.1708810007817, 0.8873575315453344
3389.7608182877248, 0.8466047035682611
3362.846712337764, 0.8399850714538897
3358.597116661454, 0.8400042046262097
3273.605203135262, 0.7701109630166462
3201.362076637998, 0.8151245100449791
3192.862885285379, 0.8152392489489354
3178.697566364347, 0.8162204606335555
3105.0379079749805, 0.8682752237084241
3080.9568658092257, 0.8767231684180233
3066.791546888194, 0.8768399344306133
3024.2955901250975, 0.8894882787270197
2952.052463627834, 0.8225858796593851
2927.97142146208, 0.8407843690431493
2885.475464698983, 0.7752308827671706
2738.15614792025, 0.8701466303555501
2651.7477025019543, 0.906238971593396
2644.6650430414384, 0.9066922048409847
1748.0003553401093, 0.887249885243945
1718.2531856059418, 0.5363085261004376
1698.421739116497, 0.2838834521452915
1654.5092504612976, 0.7747793185816118
1636.094335863956, 0.8333532794208974
1612.0132936982013, 0.677318809877421
1579.4330601798279, 0.7588533746783312
1558.1850817982795, 0.8549691423348809
1541.1866990930412, 0.8584045156787055
1534.1040396325252, 0.8835060579398465
1508.6064655746677, 0.8105286347741469
1474.6097001641906, 0.7826219185449446
1457.6113174589523, 0.7949835640842497
1449.1121261063327, 0.8110668644589732
1409.4492331274432, 0.6692705736368855
1383.9516590695853, 0.637274562506253
1372.6194039327597, 0.6376769531361335
1270.6291077013288, 0.437011807732419
1204.0521087724783, 0.45707574451945665
1167.2222795777948, 0.741198240603291
1123.3097909225953, 0.5616074194585956
1110.5610038936666, 0.5666375150646243
1075.1477065910867, 0.381403177020202
1055.3162601016415, 0.35822719299403316
1017.0698990148553, 0.466814070056097
988.739261172791, 0.3238584990385421
941.9937087333851, 0.4705924383802503
885.3324330492569, 0.5808876742258021
865.5009865598122, 0.6334412681932025
827.2546254730255, 0.45774739895007005
804.5901151993744, 0.508811949977986
755.0114989757622, 0.41484168138761324
732.3469887021106, 0.5923300975180298
706.8494146442531, 0.4862488205661581
657.2707984206409, 0.6422259197465963
628.9401605785765, 0.6947911370182421
611.9417778733382, 0.7376623736906082
597.7764589523063, 0.7414971575868569
589.2772675996871, 0.7359020097767752
566.6127573260355, 0.7216556060051649
528.3663962392493, 0.6871768824151675
507.11841785770093, 0.6995590313611231
458.9563335261919, 0.6910635821578752
429.2091637920248, 0.7946049557661756
419.29344054730245, 0.7882070528939067
412.2107810867865, 0.8062493783838464
399.4619940578573, 0.813653527049064
379.63054756841257, 0.8254022587551243
##END=

##END=

