##TITLE=X8392
##JCAMP-DX=4.24
##DATA TYPE=INFRARED SPECTRUM
##DATE=31/10/2018
##SAMPLING PROCEDURE=Diamant-ATR
##ORIGIN=ComPlat
##XUNITS=1/CM
##YUNITS=TRANSMITTANCE
##RESOLUTION=4
##FIRSTX=3997.453
##LASTX=373.96442
##DELTAX=-1.4165319
##MAXY=1.0440254
##MINY=0.59761739
##XFACTOR=1
##YFACTOR=9.7232444e-010
##NPOINTS=2559
##FIRSTY=0.92140085
##XYDATA=(X++(Y..Y))
3997+947626948+946857434+946435743+946683338+947228612+947409512+947055375
3988+946685852+946823166+947300519+947502384+947199740+946792700+946624796
3978+946504094+946181588+945875879+945939142+946315531+946679538+946850323
3968+946884222+946931731+947041766+947081919+946982672+946943255+947085229
3958+947127098+946802814+946378488+946328343+946671507+947037782+947261531
3948+947475840+947677766+947781917+948013513+948614571+949262034+949447103
3938+949156412+948660731+948071810+947430906+946971761+947004741+947504529
3928+947978020+947878037+947169579+946482516+946409629+946839411+947349008
3918+947843096+948489639+949163891+949461141+949284348+948898212+948422698
3908+947698364+946696212+945706749+945103239+945121139+945795697+946853633
3898+947724478+947934067+947485587+946910214+947014549+947979859+948696469
3888+948310578+947427474+947144998+947608435+948043918+948191409+948261905
3878+948085297+947501219+946920145+946727843+946635769+946350902+946479757
3869+947464254+948531876+949030193+949189025+949257559+948900235+947855111
3859+946413368+945028574+944067371+944178020+946040534+948375680+949367717
3849+949043496+948102645+947111282+946386702+945982543+945833214+946051201
3839+946836959+947865225+948375067+948190551+947787189+947631239+947799940
3829+947992732+947864612+947291937+946411835+945678367+945940123+947471549
3819+948891530+949231200+949236043+949817975+950675701+951012980+950473714
3809+949243031+948128024+947892320+948075243+947888581+947591945+947725091
3799+947927569+947949147+948286487+949114421+949934202+950430251+950700834
3789+950769614+950511230+949989128+949538748+949411548+949493998+949538687
3779+949447899+949212380+948812329+948316463+947909546+947819495+948256511
3769+949215261+950296737+951000168+951036213+950376061+949371947+948698615
3759+948909491+949737057+950213490+949827293+948904587+948284893+948789096
3750+949994767+950632851+950662399+950917534+951522945+951382749+950055149
3740+948140039+946353170+945475766+946166692+948050232+949868671+950962223
3730+951349830+951073117+950304584+949670791+949712353+950018123+949778374
3720+948984095+948350547+948292862+948598326+948971344+949432206+950028238
3710+950398926+950225812+949694024+949097318+948602924+948350363+948469716
3700+948968769+949700093+950381271+950632300+950217842+949296179+948428951
3690+948390699+949371825+950315679+950380720+949863092+949332531+949000401
3680+948594832+947604144+946021776+945096741+945994007+947433542+948166705
3670+948924939+950510985+951984972+952395077+952091023+951802233+951756747
3660+951557825+950893504+950213490+950135147+950050184+948766843+946406564
3650+944739110+945800785+948718906+950801675+951499773+951578484+951645241
3640+951832087+951892407+951606866+951117192+950775867+950658046+950379432
3631+949718483+949450965+950543781+952052771+952668970+952407521+951824363
3621+951346397+951105238+950857275+950301641+949634255+949338906+949475362
3611+949683173+950015119+950887680+952093230+952908965+953113404+953032793
3601+952959354+952896643+952792370+952713107+952632374+952357193+951903441
3591+951603617+951724442+952251632+952960090+953595906+953981797+954006746
3581+953714891+953377919+953252987+953250841+953122109+952932872+952930175
3571+952999445+952777228+952367185+952535334+953569117+954621536+954919031
3561+954420345+953560658+952884751+952683315+952935937+953554405+954429111
3551+955208985+955447079+955145784+954850251+955010860+955377134+955423846
3541+955084237+954657458+954432177+954532956+954813286+954986155+955051196
3531+955282240+955697862+955961396+955906838+955739057+955611182+955443340
3521+955240617+955287696+955865766+956813421+957555533+957702350+957417361
3512+957112265+957049553+957247556+957518324+957629647+957522737+957289425
3502+956994444+956704857+956608307+956859275+957323692+957615915+957505328
3492+957218193+957178163+957470876+957748387+957734533+957612176+957788049
3482+958377153+958989859+959160153+958965645+958901646+959113381+959172536
3472+958846107+958605132+958958289+959674164+960117862+960148758+960213921
3462+960563031+960830795+960626539+960164389+959944870+960073970+960279513
3452+960396169+960488305+960658477+960982883+961438902+961796963+961822035
3442+961612078+961539191+961819460+962224845+962317349+962001831+961704153
3432+961847352+962339172+962769077+962918161+962884139+962864094+962963770
3422+963149390+963322014+963429229+963526208+963731506+964079267+964422125
3412+964590764+964577156+964435734+964190039+963939868+963845955+963993813
3403+964421573+965082890+965696454+965965873+965949076+965883300+965826351
3393+965774674+965802076+965871530+965843086+965732806+965693634+965784728
3383+965948218+966127463+966307259+966464803+966511821+966348515+966026500
3373+965760575+965749296+966078851+966751141+967621311+968337984+968532921
3363+968152547+967514647+967021234+966860686+966986231+967268216+967585757
3353+967818272+967849903+967644483+967347356+967278576+967701800+968536906
3343+969353376+969708739+969510737+969047300+968685745+968563327+968593977
3333+968728349+969052817+969541081+969887555+969839311+969566275+969391690
3323+969287294+969013216+968651294+968603418+969066426+969750240+970172912
3313+970140361+969859050+969578352+969313285+969022473+968813006+968779965
3303+968844883+968894782+968930398+968980665+968982443+968832439+968552354
3293+968326888+968307885+968436924+968556584+968618927+968698741+968900483
3284+969286190+969734792+969872352+969372012+968406702+967630323+967551060
3274+967978697+968265526+968084135+967759484+967774687+968165911+968554806
3264+968653869+968539358+968424234+968354290+968252897+968116135+967979678
3254+967795529+967559520+967416994+967390758+967165108+966482458+965653298
3244+965316938+965677022+966316393+966809622+967157077+967482648+967670781
3234+967584101+967359984+967210226+967151622+967103316+967014246+966821637
3224+966533706+966345143+966427777+966665687+966778788+966644538+966382905
3214+966186680+966099816+965946808+965541730+964962004+964500836+964346724
3204+964446523+964666778+964940304+965190535+965260296+965051872+964679651
3194+964366892+964200276+964038625+963705453+963309263+963247042+963712318
3184+964332319+964551348+964273899+963848775+963564828+963410900+963261693
3174+963083491+962921962+962775698+962584683+962327708+962031991+961728121
3165+961485124+961418734+961566532+961844778+962166548+962475506+962698703
3155+962779989+962708328+962500210+962286637+962319494+962660880+963004596
3145+963066204+962993623+963095996+963321830+963316864+962921840+962369148
3135+962002138+961940469+962010536+961965418+961771339+961619680+961645487
3125+961782434+961931948+962069079+962119713+961987242+961776672+961740259
3115+961921404+962058964+961913925+961516203+961010652+960452199+959918265
3105+959656693+959832382+960190626+960282394+960008746+959658042+959438645
3095+959220596+958627753+957170439+954501631+950903006+947450278+945371861
3085+945161352+946394671+948288020+950241014+951935808+953204069+953946119
3075+954146145+953820820+952857839+951036520+948388615+945455843+943030401
3065+941710831+941624274+942305330+942952119+943127440+943147976+943626739
3055+944861038+946758984+948992370+951078756+952595838+953424078+953716976
3046+953764729+953906580+954353711+955018768+955627611+955996031+956159276
3036+956289235+956523405+956851612+957164064+957363538+957410740+957337363
3026+957255587+957255219+957265272+957118088+956799138+956552278+956630253
3016+956995424+957417544+957804600+958228314+958681759+959070715+959357298
3006+959488237+959331674+958879884+958346748+957959631+957808401+957893364
2996+958140040+958409582+958638725+958907347+959279507+959662701+959903492
2986+959989497+960089050+960357672+960749203+961066375+961183951+961196211
2976+961324760+961658177+962006429+962097645+961861758+961437493+961047617
2966+960947941+961274493+961831046+962265610+962482004+962634214+962761660
2956+962737568+962569480+962473850+962587074+962775023+962820325+962685156
2946+962466678+962191129+961860164+961649901+961818541+962360259+962937226
2936+963264268+963445168+963768715+964269301+964721275+965018769+965264342
2927+965493486+965631597+965721036+965900710+966155109+966325343+966360039
2917+966375978+966457570+966520771+966433907+966229223+966121700+966284700
2907+966637979+966902248+966904517+966816488+966990093+967501529+967998988
2897+968113131+967882761+967619656+967473637+967337119+967132067+966980714
2887+967026628+967239834+967486081+967649326+967594891+967208632+966608677
2877+966128811+965984447+966114099+966374384+966668997+966903474+967012529
2867+966998614+966873069+966705410+966736183+967176203+967853888+968311931
2857+968307149+968045822+967915434+968104058+968481796+968758387+968740978
2847+968483819+968194845+967973058+967695302+967252952+966808212+966629703
2837+966725578+966854740+966870004+966861360+966939887+967020437+966880793
2827+966428206+965884649+965617130+965758859+966083326+966272808+966231552
2817+966113057+966106069+966238847+966391119+966439854+966341588+966117777
2808+965850626+965653788+965569131+965520090+965417472+965280832+965215424
2798+965286901+965446958+965598372+965707304+965794965+965840021+965773510
2788+965571706+965301184+965065481+964926511+964868581+964841180+964828920
2778+964859386+964948579+965067197+965170183+965248771+965342317+965488949
2768+965675182+965838060+965916587+965907269+965853692+965748315+965527140
2758+965243132+965102016+965196849+965361443+965413181+965384983+965442361
2748+965678493+965990638+966110666+965855592+965375358+965030723+965025329
2738+965246013+965428874+965424277+965286778+965142230+965066523+965113847
2728+965294257+965483494+965536029+965477609+965436414+965463019+965554910
2718+965698600+965798766+965728944+965520090+965376033+965484904+965861783
2708+966337726+966680032+966793990+966801776+966860380+966956071+966998430
2698+967050965+967254240+967524149+967582937+967353977+967088788+967038827
2689+967202931+967422634+967552164+967520103+967365440+967233949+967267236
2679+967468855+967711853+967897289+968048948+968196868+968262093+968180930
2669+968045209+967987034+968017930+968078189+968117544+968076902+967940445
2659+967817782+967822870+967885887+967833904+967619350+967369547+967260186
2649+967397868+967741891+968081070+968183566+968047477+967940997+968096089
2639+968417736+968640382+968696350+968717622+968725530+968600843+968366918
2629+968230339+968275027+968314566+968179826+968031539+968176087+968586682
2619+968898583+968934628+968904345+969013707+969239540+969557019+970018433
2609+970527969+970837846+970860282+970801556+970887990+971078698+971185975
2599+971194129+971225944+971223431+970974793+970510252+970181249+970266029
2589+970738354+971421188+972083547+972375464+972030583+971230235+970470284
2580+970017820+969793151+969773657+970120622+970781939+971275353+971170589
2570+970731795+970717267+971392131+972169247+972429164+972174212+971662899
2560+971058162+970657682+970808544+971424744+972082934+972531904+972716114
2550+972562800+972162565+971902464+972050261+972386743+972497085+972279466
2540+971952669+971689320+971496650+971413403+971566717+971950340+972312324
2530+972406421+972311220+972339786+972616194+972922883+973028015+972983755
2520+973030222+973339241+973902783+974567594+975099995+975224130+974739054
2510+973820149+973126955+973265434+974089322+974810592+974851848+974348381
2500+973797161+973518118+973559312+973815000+974003869+973758173+973030283
2490+972287067+972083364+972542693+973378658+974253487+974936627+975228053
2480+974993454+974387614+973889297+973898185+974323125+974712694+974743897
2470+974446341+974022198+973639126+973405446+973369830+973451300+973454549
2461+973267886+973008828+972900876+973059279+973393002+973626376+973459207
2451+972888248+972325197+972195790+972453745+972714827+972822533+972990744
2441+973379516+973817574+974024650+973938889+973766756+973760932+973917373
2431+973934046+973551711+972862134+972214793+971956715+972239743+972849015
2421+973290936+973230738+972769692+972244831+971974247+972142397+972631458
2411+972991050+972829154+972235820+971707587+971706423+972307542+973165575
2401+973771414+973818862+973385585+972791760+972332798+972132527+972107026
2391+972023411+971752460+971490888+971532818+971821178+971965175+971668232
2381+970915699+969856169+968743552+967879451+967359187+966934370+966308608
2371+965545469+965018218+964829655+964412807+963163611+961486227+960506511
2361+960615444+961100765+961333710+961491928+961979824+962907556+964188935
2351+965516045+966333006+966222725+965270656+964078409+963281432+962872063
2342+962530493+962450740+962993685+963917126+964573048+964593278+964053521
2332+963228836+962488808+962281120+962891741+964129350+965388722+966160565
2322+966506856+966890111+967587963+968552476+969674472+970820866+971710407
2312+972110888+972191376+972413654+972993257+973680811+974143574+974319999
2302+974326006+974296398+974407721+974794960+975370027+975906044+976303950
2292+976645337+977002171+977304631+977464259+977600716+977930026+978355272
2282+978501292+978257619+977918072+977773095+977932355+978365203+978737362
2272+978506502+977530710+976350846+975699153+975874168+976577231+977262885
2262+977671703+977911574+978035709+977894839+977525254+977325473+977619106
2252+978241252+978751217+978937082+978902017+978728045+978335840+977733678
2242+977222610+977189875+977675748+978257987+978578163+978864562+979543473
2232+980431727+980830124+980427191+979666995+979218638+979393285+980057484
2223+980832576+981297913+981170468+980480646+979486402+978291029+976858604
2213+975643062+975631783+977219177+979450173+980886030+980945002+980194001
2203+979761460+980472738+982075335+983426536+983737946+983245207+982501562
2193+981772752+981357191+981671667+982713725+983952561+984804280+984878883
2183+984064191+982860358+982190888+982270886+982205232+981345422+980435835
2173+980544828+981468576+982148406+982056086+981305637+980062081+978685869
2163+977882333+978059617+978898891+979855190+980659093+981170345+981358785
2153+981557340+982006555+982191194+981497387+980459865+980223242+980831902
2143+981285163+981114255+980757850+980670373+980975285+981594611+982166367
2133+982336723+982282839+982404951+982702814+982895483+982830136+982504995
2123+982094461+982038248+982590449+983291980+983453324+983099371+982884633
2113+983189607+983851108+984605541+985201082+985245219+984562508+983627971
2104+983167109+983391655+983944899+984425316+984680022+984767131+984867359
2094+985121820+985504401+985934796+986275202+986143956+985264468+984126350
2084+983586654+983711831+983832350+983734697+983895980+984517758+985119613
2074+985142969+984546937+983812243+983421754+983339120+983220809+983127570
2064+983569184+984752235+986219479+987401979+988200488+988707817+988564250
2054+987299729+985486440+984669908+985574039+986856398+986509802+984377194
2044+982046033+980630956+980138340+980645239+982475264+985147444+987454637
2034+988662638+988754896+988025167+987234995+987309046+988174251+988666561
2024+987811900+985748686+983589106+982576411+983088460+984337962+985090127
2014+984644161+983284010+981989207+981573033+982095013+983216456+984585435
2004+985665255+986117229+986459412+987528443+989308569+990878799+991382081
1994+990718251+989533789+988817669+989177016+990241328+990925694+990440127
1985+989218885+988667420+989664299+991493159+992351437+990867642+987488169
1975+984457254+983869559+985595065+987421963+987429074+986011852+985196853
1965+985977278+987276189+987608012+986582505+984796188+983207384+982602586
1955+982886043+983085578+982763625+982820512+984100481+985963056+987219608
1945+987889201+988934815+990513260+991721567+992175319+992366885+992578190
1935+992630971+992533931+992512230+992491510+992165204+991458156+990666083
1925+990306307+990746572+991739100+992692823+993475517+994271452+994824450
1915+994664086+993921238+993233255+993035007+993161165+993083373+992483602
1905+991429283+990087216+988577552+987165111+986279922+986123359+986442983
1895+986876260+987351957+987929415+988389235+988249713+987254305+985762479
1885+984530631+984254715+985159398+986818637+988490811+989670246+990358535
1875+990878308+991477956+992149634+992751611+993203462+993613996+994146213
1866+994720667+995132243+995346000+995442856+995389156+995091355+994667457
1856+994409931+994480918+994795454+995191399+995622714+996104296+996506861
1846+996548300+996109261+995544064+995310691+995436603+995633993+995589795
1836+995181529+994534250+993858588+993341267+993122054+993169440+993272610
1826+993268625+993082454+992682586+992185004+991893946+992128730+992903700
1816+993815739+994433348+994653113+994546326+994110107+993365910+992504506
1806+991714027+991004160+990358106+990032229+990504923+991879111+993600878
1796+995004369+995798280+996135376+996529297+997320879+998197548+998764032
1786+999029589+999236051+999515278+999816206+1000043388+1000104628+999932616
1776+999546112+999087947+998869041+999220542+1000032537+1000862494+1001491690
1766+1001888124+1002025500+1001887818+1001530922+1001137001+1000844594
1758+1000560831+1000150420+999592027+998809150+997668702+996403936+995706329
1748+995856271+996448441+997126677+997796331+998439013+998974785+999205278
1738+998963383+998186881+996791298+995061440+993936747+993641214+993617123
1728+993630057+993782759+994215668+994980768+995874355+996480808+996529358
1718+996110181+995817468+996326574+997428769+998425711+998971169+999193876
1708+999374469+999710951+1000262601+1000844472+1001221290+1001400903+1001379508
1698+1000892900+1000068950+999593682+999786597+1000208656+1000392927+1000217606
1689+999818658+999281353+998316043+996692236+995039433+993703803+992225708
1679+990416588+988350125+986158914+984145783+982364615+980092793+975946871
1669+968706771+958438332+944473860+922917848+889050412+844942735+800034588
1659+761131688+730648384+710933125+709713109+737899028+776366076+800812009
1649+819236449+843356628+872396044+895120640+908879508+917693945+923278360
1639+924876605+920108353+906101706+887015642+873221648+867394051+866971502
1629+869070945+870504044+869625230+868501825+871127477+878636321+888118941
1619+897925966+909302793+921980614+932097824+938445807+943388277+948739319
1609+954638700+960254747+964927798+968738342+972126765+975288006+977999787
1599+979857519+980574007+980271302+979667485+979794869+981266711+983788213
1589+986324611+987640134+986825074+983629994+978521521+972278547+965170919
1579+955871467+940456977+915120766+886438675+867328152+859750222+860244125
1570+866766756+876639619+887423908+898816366+909857814+918696219+925879493
1560+935677813+949515637+959701198+965048930+968894660+972332369+975373766
1550+978010392+980099536+981562428+982609513+983391471+983886356+984505437
1540+985940804+987533899+988471378+989159484+990293617+991976703+993499670
1530+994433593+994979726+995394306+995776641+996214638+996873258+997717866
1520+998239600+997948542+996811466+995202372+993723358+992818062+992681176
1510+993420162+995312898+998620587+1001846501+1003249256+1003509847+1003540191
1500+1003702824+1004099197+1004743595+1005531438+1006219053+1006651595
1492+1006828142+1006838379+1006918500+1007333570+1008045645+1008568605
1483+1007345831+1000910738+985594636+962218102+938234747+924307791+927545781
1473+945156755+964469143+975582742+979544638+980815105+982646785+986810729
1463+992604550+997975086+1002080671+1005275689+1008181979+1010807999+1012506226
1453+1013218730+1012749408+1008535809+995320254+972219084+950953273+945792264
1443+957164493+973585488+984328889+986662871+982339727+973157115+961335794
1434+948172957+932642608+914032915+894166119+875855025+860443722+849111094
1424+843930101+845861089+854416896+868987023+886349053+900958352+911304706
1414+919067275+925455840+930946588+936029069+941338365+947565463+955052728
1404+963047078+970365704+976843524+982949428+988640018+993472697+997383774
1394+1000513690+1002836822+1004419864+1005549338+1006533406+1007547389
1385+1008607777+1009674847+1010745288+1011874640+1013117460+1014418455
1377+1015662931+1016834580+1017975641+1018998574+1019734556+1020134730
1368+1020303369+1020393053+1020492238+1020670380+1021092132+1021847792
1360+1022699449+1023300814+1023514755+1023416366+1023131929+1022710728
1351+1022159815+1021567645+1021058294+1020620664+1020139695+1019564261
1343+1018879527+1017988146+1016777754+1015168108+1012905358+1009575600
1334+1005193239+1000669150+997323883+995610760+994477424+992290504+988200672
1324+982458529+975776638+968714863+961556172+954429786+947245103+939463530
1315+930156354+918353300+903333406+884874024+863691336+841836972+822342703
1305+807953598+799848355+797035120+796421925+793739385+785519876+771325586
1295+754193374+738148340+724965580+713509369+701940241+690054308+679449754
1285+671959545+668361533+668258118+670609019+674494227+679937405+688320526
1275+701771478+721127084+742959502+758424689+757630164+737966704+708195353
1265+682844859+671730585+674821943+685937688+698991163+710758233+720380435
1255+728234344+735172719+741949994+748866730+755821534+762638410+769254831
1245+775591229+781418275+786528893+791029259+795380356+800123045+805496340
1235+811289425+817097467+822694266+828072403+833173275+837711463+841318732
1225+843871620+845687667+847370692+849417845+851957921+854764964+857410110
1215+859494718+860948905+862184492+863885539+866564339+870263008+874613308
1205+879121520+883410764+887284386+890682311+893641013+896268750+898716384
1196+901126072+903543362+905800104+907365736+907322519+904946301+900903610
1186+897658938+897840696+901985515+908317744+914628701+919864742+924087414
1176+927668568+930836736+933701279+936289109+938380276+939536049+939426626
1166+937653796+933267389+925802805+917407423+912370243+913352288+919038709
1156+926090920+932209147+936817832+940125031+942453311+944079386+945247113
1146+946181036+946935593+947283293+946819917+944897635+940477390+932780719
1136+922209697+909484857+893614654+872738963+848523522+828116356+819420721
1126+824619062+839378978+857427458+874592036+889368749+901654059+911737002
1116+919963621+926643428+931961061+935986342+938815208+940716587+942203080
1106+943909766+946238537+949139677+952325684+955574463+958748393+961583205
1096+963482929+963646052+961409601+956010805+946123720+931168314+914064608
1086+901225932+897919284+903743633+913310664+920461326+921200128+914499172
1077+902830981+891814176+887277766+891463840+902011691+914417519+925245700
1067+933502725+939942966+945733231+951650942+957848308+963925769+969337070
1057+973837191+977489454+980433137+982852634+984963295+986829855+988345895
1047+989498051+990472678+991458647+992546865+993855278+995500418+997407130
1037+999378392+1001331571+1003236199+1004942088+1006336936+1007561611
1028+1008847526+1010240902+1011627903+1012930492+1014143519+1015167985
1020+1015242098+1011931956+1001807942+985010865+969152063+964406432+973047693
1010+987306288+998392240+1003793794+1005528496+1005801899+1005925972+1006837153
1000+1008054779+1004872144+989194119+959281898+928486509+916063578+927291995
990+949623650+968719032+980558560+987883010+993025198+996590108+998722041
980+999683427+1000217912+1001328199+1003374678+1005835124+1007947195+1009198843
970+1009394149+1008721245+1007857328+1007688688+1008621937+1010238389
962+1011761784+1012725746+1013172018+1013424763+1013733047+1014101712
953+1014482454+1014956373+1015562519+1016110613+1016362868+1016376415
945+1016544135+1017155983+1017961725+1018427676+1018402849+1018240891
936+1018333456+1018775928+1019367852+1019792056+1019868499+1019535204
928+1018445392+1015726929+1010338861+1002043278+992635016+985936513+985115506
918+989546540+995550317+1000317833+1002895977+1000809162+989435340+968003586
908+944153193+928678076+926160436+933394344+945640544+960642968+976842911
898+991616926+1002857235+1010631820+1016337918+1020944641+1024384741+1026184973
888+1026269446+1024891396+1021506651+1013190470+994085525+958869095+910502150
878+863926856+837073747+836426161+854156488+878804164+904212526+928385424
868+949551315+966137210+978190311+986958588+993582242+998591101+1002254215
858+1004968632+1007160333+1009096776+1011047135+1013286651+1015756415
850+1018117553+1020245869+1022286831+1024263978+1025997882+1027362079
841+1028389855+1029114925+1029304468+1028384215+1026007261+1023022077
833+1021472751+1022951213+1026995130+1031650097+1035428702+1038070538
824+1039723586+1040405133+1040084160+1038164329+1033281199+1025384748
816+1017948852+1015884473+1020512468+1027964240+1032600878+1031007293
807+1024052918+1017040981+1016272142+1023304369+1033767808+1042635515
799+1048446378+1052026490+1054096876+1055251545+1056308500+1057638246
790+1058815474+1059279156+1059112907+1058966888+1059234529+1059733643
782+1060255316+1060819532+1061368301+1061750452+1061885560+1061699940
773+1061256119+1060884757+1060794767+1060742293+1060160545+1058302628
765+1054135618+1045271221+1026118155+989118596+931250580+859722452+789867601
755+736879099+707719410+698242246+698124242+699088509+697031670+688235869
745+669534593+643883049+621815173+614627547+625202002+644428200+657954124
735+659113881+654898382+657721915+673088591+697151146+723456161+748350881
725+770889366+791129364+809460871+826225214+841382730+854844042+866956973
715+878251472+888859459+898548173+907306581+915537308+923563717+931277307
705+938414114+944918355+950881612+956306154+961084520+965162888+968657547
696+971862618+975216651+979106212+983505246+987879209+991386985+992667935
686+989052820+976319766+950688697+913754179+876255628+852807188+848461975
676+853546173+856491879+857199173+863338119+881270004+912115107+943745969
666+958443420+950470648+918502323+868107106+821913840+806611899+827804762
656+867553495+904590325+930333330+946804960+958095842+966912424+974770808
646+982161953+988745946+994088897+998392915+1002422303+1006610032+1010568250
636+1013668129+1015779219+1017395486+1019280682+1021937475+1025193059
628+1028287114+1030477896+1031635875+1032240305+1032862512+1033784604
619+1034891336+1035786456+1036258107+1036118341+1034002714+1027984470
611+1019177880+1012913634+1013705032+1020297730+1027726514+1032722745
602+1035234623+1036387943+1037056494+1037538812+1037351843+1035753844
594+1032767005+1029023096+1024506669+1018382619+1010278479+1000776060+990470226
584+979369868+967753048+957233089+950234516+948327927+951308084+957568407
574+965123717+972296630+977508764+979144402+976129978+968327195+956377631
564+941749267+926800849+914077910+905182188+900311809+898831875+900184486
554+904189967+910743187+919743489+931200436+944779814+959226910+972811315
544+984525789+994536457+1003417344+1011382207+1018383784+1024502072+1029931825
534+1034771554+1038969949+1042475274+1045477684+1048399421+1051559129
526+1054918802+1058080963+1060444982+1061652983+1062152220+1062891145
517+1063973233+1064306712+1063032750+1060286212+1056491791+1051628645
509+1045039871+1035706519+1022735739+1005623267+985030236+964078593+946626022
499+933117324+920816076+908086393+897004609+892210060+897530328+912855932
489+934310613+957728280+980977124+1002916881+1021588978+1035237565+1044688247
479+1052653110+1060656962+1067690537+1071990571+1073471730+1073741823
470+1072740162+1065939408+1045947619+1007593058+954283521+901316106+870319098
460+875189049+912680427+963505304+1003784722+1024156088+1030401392+1029362459
450+1022140750+1005203231+974577280+930043376+876002577+818877041+765676191
441+722624856+692947847+678294901+680144664+696924516+722815441+751256741
431+776887565+795787151+807562067+816135590+826336047+839394365+852571730
421+862874253+869407795+873446195+875787226+875052286+870734782+865604792
411+863860344+866591189+871061394+874591240+877613940+882820985+892021681
401+904960584+920359320+935286160+945421331+951136012+957196738+966224073
391+976800306+985524814+990582040+994085157+999752452+1006600715+1009493334
381+1008373913+1007845374+1010370738+1015985682+1025638718+1038367114
##END=
