##TITLE=S. Graessle SG-V2435 30-37
##JCAMP-DX=4.24
##DATA TYPE=INFRARED SPECTRUM
##DATE=10/6/2016
##SAMPLING PROCEDURE=ATR platinum Diamond 1 Refl
##ORIGIN=Angelika Moesle
##XUNITS=1/CM
##YUNITS=TRANSMITTANCE
##RESOLUTION=4
##FIRSTX=3997.4121
##LASTX=373.82813
##DELTAX=-1.4160156
##MAXY=1
##MINY=0.75537121
##XFACTOR=1
##YFACTOR=9.3132258e-010
##NPOINTS=2560
##FIRSTY=0.99806863
##XYDATA=(X++(Y..Y))
3997+1071668031+1072396287+1073192191+1073741823+1073719999+1073054335
3989+1071916159+1070621567+1069661503+1069518655+1070185791+1070971263
3980+1071031231+1070194303+1069123071+1068624831+1068969727+1069895295
3972+1070985471+1071847231+1072151295+1071855999+1071361471+1071156095
3963+1071314367+1071544639+1071652287+1071682047+1071654591+1071516159
3955+1071368191+1071407999+1071582271+1071600447+1071372031+1071199807
3946+1071374463+1071761151+1072015999+1071986687+1071708095+1071231423
3938+1070666815+1070270655+1070319487+1070858111+1071603583+1072097663
3929+1072062271+1071680127+1071399999+1071529407+1072028095+1072550527
3921+1072753983+1072590399+1072285183+1072138047+1072206463+1072211071
3912+1071966975+1071652223+1071510783+1071574719+1071749183+1071941375
3904+1072016063+1071875647+1071676159+1071560511+1071352191+1070941887
3895+1070563455+1070504447+1070939391+1071868287+1072784511+1072908607
3887+1072196607+1071310143+1070893887+1070937599+1070876863+1070486143
3878+1070044927+1069741631+1069362303+1068714623+1067991167+1067742207
3870+1068453887+1069968383+1071324287+1071844671+1071843967+1071855935
3861+1071933311+1071819455+1071549439+1071379519+1071376063+1071414015
3853+1071506751+1071909695+1072492223+1072794943+1072702911+1072375039
3844+1072112959+1072100671+1072036287+1071466303+1070652159+1070380735
3836+1070661055+1070647231+1070162367+1069827647+1070020799+1070514815
3827+1070999871+1071429183+1071721727+1071666623+1071349375+1071268863
3819+1071547135+1071461887+1070706367+1069800639+1069230719+1068847103
3810+1068459199+1068361407+1069029439+1070499711+1071883455+1072225471
3802+1071672703+1070993407+1070769727+1070878079+1070844927+1070484543
3794+1069997247+1069730751+1069848575+1070255743+1070703871+1070973183
3785+1071022207+1070971135+1070984447+1071159999+1071475263+1071763327
3777+1071866111+1071855615+1071884351+1071949055+1071897471+1071614335
3768+1071255551+1071124351+1071125823+1070763647+1069851071+1068846527
3760+1068391423+1068794879+1069699967+1070343551+1070363455+1070025535
3751+1070117055+1071455487+1073280063+1073741823+1072415935+1070263679
3743+1068956351+1069005439+1069193983+1068802879+1068106943+1067839423
3734+1068485375+1069560575+1070182591+1070087487+1069503231+1068817599
3726+1068421439+1068379967+1068382719+1068306239+1068316607+1068378943
3717+1068408447+1068637503+1069234239+1069923135+1070360319+1070640575
3709+1070903103+1070798271+1070244671+1069780223+1069971263+1070887103
3700+1071973887+1072506751+1072238847+1071415231+1070535039+1070049087
3692+1070052223+1070449471+1071195391+1071791679+1071420607+1070324927
3683+1069425407+1069216895+1069565183+1070032959+1070254207+1070146175
3675+1069985535+1070095551+1070345855+1070554559+1070628927+1070277759
3666+1069534783+1069029183+1069253887+1070063551+1070820415+1071036799
3658+1070714175+1070071935+1069381631+1069038847+1069368447+1070432191
3649+1071820863+1072398015+1071580159+1070327359+1069368831+1068818367
3641+1068766399+1069253375+1069986943+1070417471+1070182463+1069376127
3632+1068374399+1067490943+1066996479+1067230783+1067937599+1068265919
3624+1068157247+1068152639+1068517695+1068964863+1068999231+1068659839
3615+1068479999+1068587519+1068567231+1068204991+1068004863+1068481983
3607+1069241727+1069523263+1069465023+1069723007+1070326975+1070602175
3598+1070135295+1069369407+1068892543+1068779519+1068908415+1069379391
3590+1070246335+1071124991+1071306943+1070580159+1069693055+1069230847
3581+1069086079+1069028415+1069030079+1069143423+1069368191+1069699903
3573+1070097023+1070405183+1070509503+1070477311+1070353791+1069901759
3564+1068973823+1067984447+1067470847+1067658047+1068371199+1069107775
3556+1069374655+1069069503+1068529599+1068203327+1068214271+1068329343
3547+1068384191+1068471615+1068678911+1068877631+1068937599+1068907839
3539+1068851967+1068755455+1068654143+1068653695+1068797183+1069048255
3530+1069385471+1069779711+1070104895+1070123263+1069618367+1068644799
3522+1067613055+1066985535+1066932543+1067339199+1067938751+1068415487
3513+1068580095+1068431551+1068089471+1067861567+1068142719+1068855551
3505+1069332735+1069115519+1068572607+1068410303+1068683263+1068803263
3496+1068405631+1067759807+1067288767+1066971391+1066563967+1066194879
3488+1066281535+1066881663+1067504959+1067697087+1067540223+1067359871
3479+1067091071+1066371647+1065284223+1064456063+1064293503+1064515519
3471+1064630911+1064578175+1064647487+1064963583+1065260927+1065206079
3462+1064822271+1064445119+1064354623+1064593471+1065056895+1065617279
3454+1066181055+1066661311+1066956543+1067025983+1066935551+1066774911
3445+1066589503+1066350207+1065954623+1065427135+1065101567+1065280511
3437+1065740607+1065970111+1065835967+1065650495+1065645631+1065720767
3428+1065719295+1065685567+1065716031+1065718783+1065556479+1065349695
3420+1065338431+1065439999+1065261567+1064573247+1063565247+1062708863
3411+1062394047+1062566655+1062820287+1062959359+1063189183+1063595583
3403+1063832511+1063554623+1062847871+1062083455+1061537727+1061155903
3394+1060644991+1059914879+1059270207+1058876927+1058337791+1057226175
3386+1055731647+1054389567+1053407935+1052534271+1051410175+1049933695
3377+1048441151+1047476927+1047189247+1047040127+1046294591+1044721535
3369+1042739711+1040955775+1039557631+1038095103+1035943423+1033035071
3360+1029991999+1027455935+1025452415+1023540223+1021477247+1019502527
3352+1017906943+1016556799+1015087103+1013441343+1012000191+1011244799
3343+1011422271+1012406783+1013719359+1014808319+1015515391+1016247295
3335+1017551039+1019515455+1021728639+1023852287+1025965631+1028193343
3326+1030299967+1031977535+1033330943+1034745535+1036402751+1038228351
3318+1040158015+1042090111+1043718719+1044837695+1045710527+1046689983
3309+1047624063+1048127807+1048262911+1048526783+1049332031+1050671743
3301+1052081215+1052962303+1053180351+1053171967+1053378047+1053871103
3292+1054545279+1055300159+1055989695+1056412415+1056445823+1056238975
3284+1056202303+1056634367+1057400127+1058118399+1058559743+1058805503
3275+1059116671+1059566207+1059806527+1059511359+1058999423+1058958015
3267+1059568255+1060291263+1060555391+1060399615+1060305535+1060520447
3258+1060786879+1060761407+1060416319+1059958655+1059634367+1059625343
3250+1059855487+1059992319+1059916159+1059968575+1060413631+1060931583
3241+1061077567+1060971327+1061017407+1061204415+1061212735+1060993407
3233+1060772927+1060711359+1060871999+1061240639+1061609151+1061732927
3224+1061661631+1061682751+1061954047+1062294463+1062347263+1062013887
3216+1061646655+1061618559+1061875903+1062090879+1062017599+1061588607
3207+1060965887+1060540031+1060594175+1060996223+1061386687+1061541375
3199+1061446783+1061187327+1060917631+1060849407+1061046015+1061255295
3190+1061163711+1060809727+1060511807+1060445695+1060568959+1060870527
3182+1061373887+1061866815+1061926143+1061389439+1060676095+1060356159
3173+1060451135+1060491839+1060244671+1060011711+1060145407+1060557439
3165+1060870271+1060911167+1060853951+1060898751+1061022527+1061084415
3156+1061040127+1061036607+1061294911+1061771711+1062039487+1061775615
3148+1061206335+1060817151+1060823231+1061069503+1061187199+1060851775
3139+1060171967+1059722559+1059958207+1060701887+1061351679+1061490111
3131+1061201663+1060815743+1060518655+1060355071+1060387711+1060607039
3122+1060826495+1060821055+1060487167+1059948863+1059612799+1059853887
3114+1060504703+1060972799+1060953983+1060697471+1060556031+1060585343
3105+1060622783+1060554111+1060415743+1060308735+1060265663+1060199295
3097+1059981055+1059596223+1059195519+1058950719+1058904575+1058995199
3088+1059126463+1059174719+1059032639+1058697279+1058272831+1057877759
3080+1057544767+1057210111+1056805567+1056336767+1055876159+1055525183
3071+1055316223+1055112703+1054784511+1054504063+1054625407+1055227967
3063+1056008063+1056621567+1056951423+1057090239+1057219839+1057462527
3054+1057764607+1057959679+1057974911+1057921407+1057908351+1057859135
3046+1057663167+1057413311+1057286463+1057300479+1057379647+1057476095
3037+1057458751+1057119871+1056494911+1055974527+1055935487+1056327743
3029+1056737151+1056851327+1056725631+1056533631+1056245055+1055716735
3020+1054972991+1054225855+1053632255+1053128959+1052551167+1051916095
3012+1051458943+1051279295+1051118207+1050667583+1049906111+1048928831
3003+1047659455+1045986559+1044023615+1041963135+1039800319+1037437567
2995+1034981119+1032701375+1030701439+1028795711+1026748415+1024496255
2986+1022087615+1019540543+1016886719+1014256063+1011762943+1009403007
2978+1007214399+1005482815+1004634175+1004941695+1006370687+1008636479
2969+1011358911+1014185023+1016800639+1018928319+1020414655+1021314623
2961+1021837887+1022222143+1022609343+1022981887+1023192319+1023041599
2952+1022348991+1021051007+1019236607+1017016191+1014409471+1011421823
2944+1008076159+1004282879+999885631+994938047+989752191+984593599+979521279
2934+974578175+969943807+965849919+962505791+960026047+958199871+956442431
2924+954276927+951756607+949155711+946489727+943668031+940867071+938395391
2914+936308287+934397951+932500287+930623295+928758527+926785087+924789247
2904+923316415+922973311+923865919+925721087+928399487+931977663+936485375
2894+941777599+947505791+953175679+958490175+963600127+968760255+973866815
2884+978610303+982928511+986988607+990813119+994205823+997047871+999441343
2875+1001489855+1003148415+1004432703+1005550783+1006581631+1007236223
2866+1007220671+1006599103+1005456447+1003470335+1000176383+995431871+989378559
2856+982316671+974955263+968462911+963865727+961515775+961366143+963538175
2846+968273855+975370879+983932031+992729663+1000769663+1007641855+1013481791
2836+1018537855+1022769471+1025986751+1028280959+1030034367+1031545791
2828+1032866175+1033939199+1034725951+1035232383+1035530431+1035761023
2819+1036103487+1036711615+1037595839+1038565567+1039394879+1040058879
2811+1040697919+1041351935+1041901631+1042297215+1042665663+1043118719
2802+1043611775+1044043135+1044362879+1044551935+1044620799+1044687295
2794+1044952255+1045482111+1046059903+1046399551+1046517631+1046687487
2785+1047006527+1047272255+1047351999+1047424319+1047704831+1048091903
2777+1048240511+1048011135+1047728447+1047820799+1048257663+1048583615
2768+1048499647+1048154047+1047861951+1047789439+1047902975+1048069439
2760+1048206143+1048335679+1048437631+1048368959+1048094591+1047855935
2751+1047925247+1048271679+1048611135+1048710655+1048584511+1048460351
2743+1048593471+1049045311+1049605567+1049987647+1050118719+1050132863
2734+1050073471+1049792575+1049262079+1048756543+1048528831+1048484223
2726+1048340223+1047961087+1047449023+1047058687+1047020927+1047322367
2717+1047738367+1048173567+1048769535+1049562559+1050286911+1050690879
2709+1050872255+1051125951+1051554047+1051989887+1052264703+1052372735
2700+1052359423+1052251775+1052157759+1052233919+1052466943+1052642559
2692+1052557567+1052139647+1051449471+1050733055+1050331007+1050320383
2683+1050358527+1050068543+1049492287+1049022079+1048961343+1049276159
2675+1049714751+1050044735+1050192575+1050258367+1050436415+1050823807
2666+1051249407+1051366015+1050978431+1050241535+1049509183+1049042687
2658+1048895999+1049016255+1049348799+1049834879+1050402623+1050998463
2649+1051563967+1051980799+1052135999+1052044159+1051833279+1051630271
2641+1051498111+1051454719+1051556415+1051923071+1052537919+1053044479
2632+1053019903+1052506303+1052001023+1051877759+1052063359+1052278655
2624+1052348351+1052252351+1052081151+1051974655+1051998015+1052073983
2615+1052090303+1052036031+1051996543+1052084287+1052382527+1052863679
2607+1053342335+1053581503+1053456255+1053022655+1052519487+1052295807
2598+1052587135+1053286463+1054006207+1054395775+1054363711+1054036287
2590+1053623935+1053320895+1053221375+1053281023+1053432447+1053714303
2581+1054162687+1054629695+1054877823+1054820223+1054546879+1054200383
2573+1053922943+1053859455+1054119935+1054690751+1055351999+1055775423
2564+1055809407+1055597247+1055360319+1055202815+1055161023+1055288511
2556+1055612735+1056028799+1056283455+1056172095+1055790527+1055454719
2547+1055367231+1055506495+1055784831+1056113023+1056345343+1056335679
2539+1056085439+1055761023+1055532863+1055415679+1055357375+1055426303
2530+1055722367+1056116223+1056326399+1056253503+1055989439+1055595839
2522+1055185279+1055051135+1055321663+1055669503+1055760575+1055754815
2513+1055948159+1056201535+1056184191+1055941567+1055804415+1055908415
2505+1056126975+1056347391+1056536191+1056555071+1056148799+1055271231
2496+1054337087+1053887103+1053947199+1054022335+1053841023+1053709887
2488+1053925823+1054283583+1054452479+1054411583+1054249919+1054016831
2479+1054009343+1054646463+1055785791+1056675391+1056860671+1056697471
2471+1056712639+1056861823+1056740927+1056264639+1055767487+1055525887
2462+1055511423+1055612351+1055790143+1055979647+1056115135+1056284991
2454+1056657471+1057248703+1057911487+1058523327+1059050559+1059464703
2445+1059692479+1059637823+1059275775+1058790399+1058522879+1058584191
2437+1058588159+1058056255+1057098047+1056421311+1056616959+1057575935
2428+1058608767+1059081663+1058949823+1058597567+1058229183+1057776319
2420+1057369791+1057327231+1057564479+1057622655+1057380607+1057156159
2411+1057049983+1056804287+1056383295+1056121407+1056195071+1056409279
2403+1056571647+1056701439+1056831039+1056936703+1057067711+1057252223
2394+1057328959+1057153151+1056870783+1056727743+1056754815+1056872063
2386+1057099135+1057428927+1057685695+1057703935+1057521855+1057326527
2377+1057282431+1057377215+1057406975+1057249471+1057095231+1057144959
2369+1057292415+1057487039+1058013759+1058874175+1059381247+1058980031
2360+1058105855+1057736959+1058199231+1058755519+1058555199+1057760319
2352+1057262015+1057436351+1057847103+1057978239+1057664127+1057009919
2344+1056257087+1055713087+1055685759+1056260031+1057058175+1057546751
2335+1057676351+1057818367+1058085951+1058175871+1057903935+1057446719
2327+1056986751+1056465023+1055775999+1055072319+1054774143+1055157375
2318+1055956799+1056574079+1056684799+1056481023+1056325951+1056357887
2310+1056531199+1056838335+1057232895+1057464255+1057299455+1056860287
2301+1056494911+1056368255+1056370815+1056336383+1056155327+1055782015
2293+1055356095+1055236351+1055638527+1056237055+1056388223+1055859711
2284+1055149951+1054962303+1055484863+1056267263+1056756799+1056888703
2276+1057113215+1057786943+1058639103+1059059647+1058876543+1058461311
2267+1058020671+1057357631+1056569663+1056315199+1056990527+1058147135
2259+1059022975+1059252799+1058992255+1058754943+1059064191+1059878015
2250+1060491839+1060334271+1059699263+1059390143+1059717887+1060155711
2242+1060089087+1059650175+1059589119+1060418175+1061844799+1063020799
2233+1063283711+1062676415+1061753023+1061090175+1061098495+1061835519
2225+1062647039+1062577279+1061567359+1060679615+1060785407+1061604863
2216+1062207359+1061852223+1060329151+1058107519+1056167871+1055312575
2208+1055693567+1056971199+1058465471+1059267647+1059003711+1058519743
2199+1058997887+1060406143+1061546367+1061611839+1060970751+1060384447
2191+1060114943+1060025215+1060063295+1060233087+1060302079+1059995199
2182+1059405503+1058908927+1058882943+1059741183+1061705727+1064118143
2174+1065499455+1064835135+1062601855+1060313151+1059244991+1059672255
2165+1061180671+1063334719+1065774847+1068103807+1070157759+1072031167
2157+1073480255+1073741823+1072326271+1069561215+1066707263+1064896831
2148+1064011967+1063133759+1062141183+1061821759+1062320895+1062789951
2140+1062620991+1061805567+1060250751+1058086719+1056408895+1056394943
2131+1057821311+1059418303+1060343807+1060597695+1060422719+1060019071
2123+1059682111+1059647807+1059779647+1059737855+1059426367+1059017471
2114+1058602623+1058084287+1057447231+1056992447+1057129087+1057831295
2106+1058443455+1058329663+1057625855+1056981375+1056730943+1056797887
2097+1057146303+1057700095+1058052223+1057921599+1057692415+1057940863
2089+1058668863+1059426111+1059935679+1060186367+1060140543+1059754495
2080+1059160383+1058617791+1058435647+1058905087+1059905087+1060708223
2072+1060737599+1060327999+1060152959+1060260735+1060280895+1060113471
2063+1059904511+1059868671+1060419327+1061788351+1063399935+1064331199
2055+1064282623+1063459839+1061986047+1060310143+1059635199+1060780543
2046+1062841919+1064178367+1064340287+1063946623+1063514367+1063455935
2038+1064365503+1066339007+1068568895+1070201919+1071129983+1071553471
2029+1071258943+1069799615+1067314943+1064842815+1063402879+1062798719
2021+1062006015+1060887743+1060626623+1062182911+1065208191+1068781631
2012+1072007807+1073542591+1072245567+1069214783+1067554751+1068871295
2004+1071238719+1071644415+1069311423+1065980159+1063801535+1063590911
1995+1064789183+1066279999+1066806591+1065434047+1062673023+1060480063
1987+1060312575+1061749183+1063161087+1063258815+1062053631+1060869695
1978+1061243199+1063163199+1064837823+1065010367+1064489087+1064668351
1970+1065704767+1066780415+1067411391+1067706751+1067648191+1067051775
1961+1066165311+1065578751+1065586303+1066095295+1066906239+1067646591
1953+1067784767+1067119487+1066007743+1064927999+1064133695+1063798079
1944+1063962943+1064167423+1063810367+1063206783+1063223743+1063842687
1936+1064233663+1064058431+1063742911+1063585279+1063565567+1063750783
1927+1064031807+1063944895+1063453439+1063332415+1064069823+1064941695
1919+1064994047+1064309375+1063684991+1063465215+1063465535+1063638399
1910+1064037055+1064488639+1064821887+1065102207+1065300735+1065158655
1902+1064639551+1064201407+1064393791+1065301119+1066457023+1067221951
1893+1067245247+1066604607+1065615039+1064721535+1064340607+1064473343
1885+1064707967+1064671999+1064339391+1063913535+1063504447+1063105471
1876+1062866687+1063063807+1063665023+1064227775+1064389567+1064281919
1868+1064339519+1064664895+1064948223+1065039487+1065099135+1065334591
1859+1065774143+1066208447+1066325887+1066017919+1065581567+1065457215
1851+1065732799+1066036927+1065991231+1065693055+1065654463+1066154175
1842+1066701375+1066696575+1066210623+1065650431+1065328639+1065303231
1834+1065409919+1065508095+1065629887+1065807103+1065884927+1065753535
1825+1065570431+1065580351+1065875071+1066308031+1066585663+1066492607
1817+1066138175+1065858623+1065789631+1065764991+1065625919+1065465983
1808+1065514047+1065794879+1066063167+1066090367+1065918015+1065785855
1800+1065814079+1065873215+1065818879+1065658815+1065498367+1065527039
1791+1065899839+1066410367+1066690303+1066693119+1066600639+1066536511
1783+1066457023+1066312575+1066226303+1066367231+1066691071+1067007871
1774+1067243839+1067412351+1067370431+1066975359+1066458239+1066101055
1766+1065902591+1065765247+1065716927+1065806399+1065915775+1065898239
1757+1065772543+1065591743+1065343615+1065074367+1064954623+1065083327
1749+1065200767+1064996479+1064651583+1064504447+1064569791+1064613439
1740+1064459455+1064082879+1063519167+1062834623+1062203135+1061903231
1732+1061875263+1061679359+1061175423+1060548799+1060033919+1059713983
1723+1059481663+1059233855+1059096703+1059328511+1059917183+1060272063
1715+1059962367+1059370111+1058790847+1058111935+1057109503+1055613055
1706+1053530943+1050991679+1048357247+1045699391+1042581631+1038805183
1698+1035151103+1032265151+1030143615+1028705919+1027859903+1027798015
1689+1028894975+1030913279+1033205567+1036034367+1040025663+1043553727
1681+1044983039+1045292415+1045667327+1046567359+1047807487+1048642815
1672+1048562815+1047878591+1047147135+1046522559+1045760127+1044805119
1664+1043801727+1042757567+1041511487+1040008767+1038356415+1036657983
1655+1034963839+1033084159+1030231551+1026279167+1022234431+1018129663
1647+1013347327+1007600063+1001421055+994989695+987915519+980103679+971915967
1637+963720895+955977407+949701503+945292735+942524479+942079103+945295615
1627+952407679+962057983+973537087+986593151+998683839+1007307327+1013512511
1617+1019889663+1026972863+1032464767+1035495103+1037224127+1038550783
1609+1039657727+1040309055+1040207359+1039155327+1036928063+1033387199
1600+1029053247+1025328703+1023838271+1025397247+1029267775+1033492415
1592+1036408959+1037691775+1038067903+1038619199+1040154559+1042772863
1583+1045953919+1048969151+1051212927+1052509375+1053253183+1054092351
1575+1055115327+1055820735+1056131839+1056256063+1056205567+1055844031
1566+1055182015+1054335231+1053389311+1052418879+1051473727+1050326783
1558+1048258623+1045371903+1042311167+1039084479+1035509055+1031386943
1549+1026684351+1021677887+1016453247+1010511359+1003339071+994902079+984900223
1539+973734271+964304895+957396991+951742591+946739199+942455615+938904511
1529+936035967+934272575+934257535+935798015+938250623+942382975+949074559
1519+956372351+962684159+969181567+976157055+982258943+987110207+991191807
1509+994684095+998542399+1005228159+1013234431+1017842175+1019851583+1021401471
1500+1023399807+1026183871+1029737215+1033094655+1035100095+1035820671
1491+1036136831+1036897535+1038054783+1038622655+1038214655+1037136959
1483+1035466111+1033003071+1029715007+1025802431+1021458687+1016934655
1474+1012716863+1009434303+1007390079+1006174463+1005381119+1005200831
1466+1006088255+1007829183+1009078655+1008830847+1007102207+1003778623
1457+997910975+989667903+981467391+974151295+967185599+960286847+953612927
1447+947789951+943795007+942249535+942973119+945004671+946873023+947324735
1437+945480255+940530367+932598719+922775807+911807807+900669439+891350271
1427+885577407+883709503+885360191+889316799+893786495+898074111+902331519
1417+905333247+905679423+904463231+903596095+904054783+905715071+907737983
1408+909319871+910395583+911534335+913128447+915366527+919058111+925226687
1398+933739967+943748095+955090943+967020095+977461631+985293055+990707583
1388+993650367+993907071+992550399+991451967+991671423+993344895+996151871
1378+999404223+1001967743+1002237567+998591615+990696575+979822079+967723839
1368+956621247+949085311+946577855+949018367+955046015+961928959+967378303
1358+971254463+974512831+977971967+982027135+986636735+991390463+995649215
1348+998822143+1000873855+1002599423+1005175999+1009362303+1015016127
1340+1021000127+1025644159+1027960319+1028113855+1026499455+1023023743
1331+1017120127+1008003071+994919871+977402879+955690559+931297919+907027391
1321+885924031+870182783+860978879+858679167+862985535+873133311+887788479
1311+904918143+922456127+939060991+954011775+966886463+977540607+985994687
1301+992234367+996280959+998379263+998993599+998640575+997661887+996001343
1291+993186751+988637119+982114815+973977919+965019199+956088383+947953983
1281+941405759+937084351+934965375+934173247+933543423+932434623+930973183
1272+929527871+928011903+925885247+922967359+920059775+918493759+919076351
1262+921630719+925409663+929637567+933762239+937604735+941404735+945541311
1252+949980479+953908927+956060543+955770943+953941631+952817535+954544575
1242+959785663+967487551+975581247+981819903+984427775+982432575+975583935
1232+964169087+949071615+931811583+914253375+898250623+885547583+877683647
1222+875626879+879401279+888093759+900216895+914183935+928677951+942791039
1212+955973247+967899711+978330431+987004287+993611327+997853759+999520383
1202+998471039+994577535+987815039+978617023+968310015+959092479+953164095
1192+951543935+953770239+958736063+965449151+972938175+980177023+986607679
1182+992252671+996939199+999910591+1000588671+999351999+997227583+995011967
1172+992816639+990236543+986740863+981925887+975489727+967077951+956364159
1163+943465279+929232127+914935871+901563135+889422079+878386431+868471487
1153+860211007+854542847+852324031+853905919+858956351+866357375+874234879
1143+880441663+883344575+882309695+877665023+870421951+861927423+853381375
1133+845379391+837887231+830719487+824016447+818243711+813913343+811432831
1123+811073663+812986239+817349887+824423487+834126783+845437887+856333375
1113+864630335+869314303+871167871+871747391+871766591+871180095+870825983
1103+872719359+878031999+885547135+892741183+897980159+901420863+904330687
1093+907889343+912272959+916465599+918903679+918457663+914993727+909230655
1083+902307647+895649535+891118655+890685311+895316031+904174847+915253951
1073+926736511+937584831+947242047+955303551+961367935+965023231+966306815
1063+966267583+966605567+968598847+972542591+977958847+984004799+989867071
1054+995090111+999577151+1003388671+1006635839+1009371775+1011483327+1012856895
1044+1013614847+1013927231+1013513983+1011435455+1006460863+997777599+985564863
1034+971154239+956842559+945396287+939203071+939365375+945322303+955243391
1024+966853759+978208127+988148351+996338047+1002902271+1007982335+1011602751
1014+1013650239+1013452479+1009354623+999410175+983271743+963853951+947073279
1004+939034815+942245311+954105215+969236735+983250047+994443199+1002948095
994+1009325439+1014010751+1017395135+1019888127+1021775359+1023116031
986+1023835263+1023836351+1022980607+1021052799+1017912703+1013899775
977+1010183487+1008405247+1009539263+1013056703+1017395903+1021185535
969+1023913343+1025698943+1026805695+1027400575+1027581695+1027502015
960+1027439359+1027711871+1028484735+1029628415+1030786815+1031630527
952+1032077311+1032310911+1032628799+1033226815+1033993087+1034479423
943+1034198911+1033046015+1031392511+1029808191+1028771135+1028559167
935+1029230975+1030620607+1032382463+1034089023+1035419199+1036346111
926+1037042111+1037513407+1037447679+1036462527+1034345727+1031163967
918+1027537535+1024814911+1024431615+1026823295+1031182271+1036294463
909+1041290879+1045666559+1049157439+1051808383+1053811455+1055154879
901+1055682559+1055459519+1054771199+1053854335+1052895871+1052120639
892+1051549311+1050839295+1049668543+1048145727+1046582399+1045001215
884+1043212607+1041443327+1040584639+1041475583+1043941055+1046769471
875+1048649663+1048956287+1047754687+1045343167+1041759295+1036669311
867+1030041151+1023049599+1017888063+1016398143+1018963135+1024473215
858+1030871167+1035980095+1038667263+1039548351+1040253823+1041873151
850+1044224639+1046499135+1048299071+1049948479+1051910335+1054126591
841+1056130367+1057683967+1058967039+1060176767+1061340095+1062504511
833+1063728639+1064848447+1065498367+1065378175+1064495871+1063264895
824+1062238335+1061573375+1060927679+1059978943+1058816959+1057860287
816+1057639743+1058486143+1060136191+1061769855+1062545919+1061965759
807+1059755327+1055713151+1050064319+1044171007+1040443327+1040673983
799+1044352895+1049120255+1052844927+1054988287+1056358335+1057970431
790+1059997247+1061687935+1062202623+1061066495+1057785599+1051808895
782+1043285375+1033293375+1022643647+1010649919+996309119+981655807+972819647
772+975482559+988999231+1006524223+1020958207+1029282111+1031482303+1027971135
762+1019684863+1009633663+1002524223+1002020479+1008285503+1018246975
753+1028086527+1035310143+1038882367+1038321855+1033397759+1024878207
745+1015159935+1007280639+1002966079+1002339839+1005476543+1012696703
736+1022854783+1032818687+1039463871+1041474559+1039255295+1034313535
728+1029023295+1026098559+1027530239+1033533631+1042243135+1050731711
719+1056913727+1060611007+1062755455+1064066943+1064750783+1064890943
711+1064656319+1064244735+1063843007+1063532351+1063154815+1062403647
702+1061083263+1059201535+1056917759+1054444607+1051814975+1048784255
694+1045141823+1040962879+1036391679+1031273279+1025047935+1017146687
685+1007755775+998079487+989677183+983721151+980826111+980962367+983042879
675+984914623+984399103+980831999+975388095+969820031+965747455+964332799
666+965232063+967626943+971246847+975765887+980663679+985546751+990056447
656+993914239+997276479+1000437183+1003202943+1005136959+1006463999+1008259903
646+1011358399+1015278079+1018607359+1020289727+1020244223+1019070079
637+1017592127+1016573567+1016539071+1017687295+1019909951+1022887487
629+1026181567+1029356735+1032134399+1034352575+1035787263+1036381311
620+1036657855+1037309823+1038356031+1039296063+1039911679+1040219071
612+1039956351+1038736639+1036517695+1033820415+1031786815+1031773439
603+1034378495+1038927743+1044039039+1048434879+1051353599+1052718399
595+1053097983+1053237951+1053423103+1053436223+1053253183+1053385087
586+1054294655+1055697663+1056548607+1055779519+1053306495+1050375871
578+1048686143+1049281023+1052142143+1056217663+1059936383+1062277951
569+1063414015+1064059007+1064405183+1064106815+1062940671+1061018303
561+1058522879+1055351231+1051013055+1045119359+1038011839+1030633535
552+1023946943+1018871679+1016410495+1017143807+1020624447+1025516287
544+1030245119+1033608191+1035104831+1034887423+1033582975+1032272447
535+1032102655+1033109119+1033725887+1032337023+1028856831+1023919871
527+1017534655+1010096895+1003911295+1001721919+1004375807+1010587263
518+1017898495+1023948479+1027471167+1028216191+1026523519+1023510975
510+1021013247+1020556671+1022422207+1025745279+1029336447+1032423039
501+1034909951+1036970239+1038204735+1037398975+1033139647+1024605503
493+1012172223+998000127+985922943+979777855+981548863+990514815+1003462335
483+1016583167+1027541759+1035257599+1039103359+1039619583+1038902527
474+1039324415+1042191487+1046942783+1051565503+1054857279+1057324031
466+1059666687+1061749951+1063432575+1065275839+1067770879+1070370687
457+1071511807+1070045631+1066712703+1063451903+1061735679+1061090751
449+1059244607+1054442111+1047013375+1038310975+1029457215+1022585087
440+1021104511+1026516607+1036590271+1047023871+1054783679+1059960959
432+1063604863+1065395071+1064868223+1063494847+1063687295+1065966975
423+1068270463+1068752575+1068012223+1068082815+1069898943+1072149631
415+1073563007+1073741823+1073089727+1070576447+1065276927+1057310271
406+1049241919+1043713727+1040217087+1036550975+1032235967+1028585855
398+1026835071+1028186303+1034055487+1043666943+1053432191+1059672191
389+1061615615+1061374079+1060902911+1059863167+1057715327+1056726719
381+1058985727+1063369279+1067647423+1071018175+1073472831+1073741823
##END=
