##TITLE=LSH-R228A
##JCAMP-DX=5.0
##DATA TYPE=LINK
##BLOCKS=1


$$ === CHEMSPECTRA SPECTRUM ORIG ===
##TITLE=LSH-R228A
##JCAMP-DX=5.00
##DATA TYPE=INFRARED SPECTRUM
##DATA CLASS=XYDATA
##$CSCATEGORY=SPECTRUM
##ORIGIN=Angelika Moesle
##OWNER=
##XUNITS=1/CM
##YUNITS=TRANSMITTANCE
##XFACTOR=1.0
##YFACTOR=8.5889745e-10
##FIRSTX=3997.453
##LASTX=373.96442
##MAXX=3997.453
##MAXY=0.9222341137330514
##MINX=373.96442
##MINY=0.4189910275633937
##NPOINTS=2559
##XYDATA= (X++(Y..Y))
2559A071514258A071810652A072208434A072481786A072436124A072047780A071626404
2552A071631608A072179703A072864649A073175824A072969993A072466867A071987544
2545A071776023A071881853A072182340A072577832A072994906A073219821A073063748
2538A072657291A072298649A072118218A072074498A072058884A071948265A071730984
2531A071499616A071271717A071040279A070942638A071100168A071437436A071852984
2524A072313986A072677000A072737861A072495320A072161938A071938550A071828972
2517A071630984A071169426A070639652A070559845A071123555A071718979A071596979
2510A070900306A070456375A070738542A071309469A071465889A071205513A071042916
2503A071257144A071682060A071995872A071942020A071381850A070373377A069205569
2496A068258096A067816039A067991890A068723540A069857065A071220502A072464785
2489A073061388A072731130A071682129A070470255A069792249A069919037A070178927
2482A069999259A069852138A070337707A070908772A070682539A069951861A069432219
2475A069050121A068610562A068594669A069316673A070247769A070913006A071360337
2468A071165124A069961230A068745122A068949148A070424730A071471371A071246665
2461A070266159A069196686A068565107A069255257A071666515A073726833A073741823
2454A072285117A070312377A068505842A067334565A066911800A066910412A067097298
2447A067828808A069343946A070886843A071690873A071843406A071616480A071039446
2440A070306756A069878578A069862825A069851514A069766572A070133056A070761928
2433A070383925A068911397A067841716A068207367A069201128A069669625A069423960
2426A068922361A068744151A068853589A068491894A067464198A066548856A066444344
2419A066958157A067870793A069125971A070117442A070311475A070022924A069681769
2412A069183848A068425897A067834221A067833874A068138873A068132071A067698204
2405A067249068A067081892A066993897A066660654A066135459A065912071A066417904
2398A067226027A067375717A066836782A066429840A066448855A066465302A066295905
2391A066291810A066668218A067140601A067519577A068036027A069074756A070556168
2384A071338546A070542844A068802444A067557537A067955596A069125971A069391483
2377A068548660A067308819A066642749A067316938A068850258A069672609A069072119
2370A067738592A066720196A066645872A067387306A068222218A068672672A068863513
2363A068988219A068957545A068570034A067792097A066990010A066961072A068193696
2356A069763033A070336458A069800091A068745677A067796886A067536995A068164411
2349A069089677A069573927A069410845A068686621A067586059A066532131A066095695
2342A066448716A066985153A067173773A067246778A067379673A067373982A067120615
2335A066795700A066614296A066752882A067392164A068195709A068513337A068399388
2328A068213543A067977040A067575649A067159824A066872869A066608537A066156209
2321A065513943A065044405A065238507A066001940A066350797A065622548A064311367
2314A063618858A064545789A066413948A067640951A067753235A067043584A066045313
2307A065355717A065229347A065401034A065478620A065288612A064875007A064524415
2300A064894855A066569328A068546231A068903624A067583768A065701869A064217404
2293A063673403A064052656A064671466A064882918A064762029A064639614A064489509
2286A064103316A063699080A063803939A064423721A064928373A064890344A064469592
2279A064105606A064034405A064128923A064216988A064282845A064298737A064145648
2272A063849185A063696096A063958832A064348772A064229826A063690544A063386865
2265A063565630A063795611A063639677A063246406A062999978A062971456A063019617
2258A063172706A063669725A064652383A065755096A066219152A065768837A064782016
2251A063770559A063096995A062778740A062481654A061956529A061426824A061358330
2244A061825438A062342097A062411702A061954794A061200869A060398504A059759638
2237A059515154A059729728A060153256A060489206A060663252A060654370A060383029
2230A060008564A059937363A060289968A060702531A060866654A060894482A060971790
2223A060989139A060686570A060021680A059285520A058864629A058933123A059398845
2216A059995448A060328830A060107732A059482329A058883505A058490650A058127150
2209A057690645A057428187A057635752A058285166A059056997A059641941A059941249
2202A059977752A059739582A059251585A058709180A058323543A058035408A057621526
2195A057045186A056439423A055882306A055510062A055608328A056200629A056785712
2188A056824297A056299796A055647676A055311657A055377029A055575087A055699793
2181A055861556A056189803A056573705A056837274A056893207A056725059A056435536
2174A056195354A056031648A055869259A055758572A055799932A055895144A055804165
2167A055410686A054836359A054324905A054019143A053900128A053934270A054110955
2160A054331637A054470430A054553706A054697219A054880356A054962661A054885492
2153A054660369A054170706A053277987A052232040A051622181A051724819A052221006
2146A052721564A053191865A053650092A053836838A053479168A052658760A051778116
2139A051243345A051184566A051418225A051665208A051748067A051605457A051294143
2132A051065828A051229743A051773258A052295677A052458204A052314205A052057576
2125A051678046A051102470A050523007A050310237A050611002A051138695A051453270
2118A051450286A051438974A051672980A052096439A052604075A053088325A053155223
2111A052444463A051336267A050647089A050617179A050852572A051074295A051219334
2104A051129812A050821066A050702051A050952295A051098861A050701010A050077758
2097A049893857A050298787A050842024A051086509A051007604A050832308A050753751
2090A050820580A050905729A050766173A050343478A049964295A049974357A050228557
2083A050270820A050005794A049846320A050150070A050798720A051409897A051712050
2076A051611911A051115794A050341466A049532161A048955683A048743398A048825842
2069A049029590A049178099A049077058A048587464A047867126A047358310A047373161
2062A047852831A048561579A049244304A049612245A049520850A049186843A048971505
2055A048958736A048946106A048802662A048620913A048513626A048467685A048477748
2048A048635140A048955058A049294685A049556381A049782753A049979562A050011970
2041A049773662A049368455A049078793A049122304A049392882A049525916A049269425
2034A048713072A048164422A047917439A048080799A048496068A048820498A048755959
2027A048279967A047761505A047782740A048603148A049771719A050472556A050286919
2020A049507040A048772545A048501482A048613835A048749020A048643744A048236802
2013A047626181A047099252A046918265A046964692A046928189A046818265A046888772
2006A047209176A047645751A048037010A048233888A048262063A048381702A048670253
1999A048807382A048537152A048030139A047632635A047572260A047888986A048356859
1992A048541732A048170321A047447138A046911326A046929993A047321183A047509039
1985A047079058A046191335A045478076A045452399A045944977A046293071A046197720
1978A046048724A046243660A046618055A046747827A046531032A046243660A046127698
1971A046155596A046280093A046639013A047286345A047961506A048350336A048336595
1964A047926183A047242209A046590991A046284743A046436583A046977947A047688152
1957A048212583A048229516A047627291A046543383A045342057A044482580A044269879
1950A044662109A045242613A045473704A045210690A044873422A044917767A045352051
1943A045880993A046225964A046201328A045754413A045040044A044393267A044205063
1936A044612560A045194382A045310344A044897989A044578625A044867246A045577799
1929A046080023A045972735A045471899A045127137A045143792A045189108A044932757
1922A044445106A043919357A043339825A042650369A041992349A041542173A041231900
1915A040798171A040056667A039060894A038069562A037381286A037084615A036960672
1908A036718686A036249703A035551087A034534980A033096317A031292836A029291297
1901A027162414A024865037A022480913A020369380A019011356A018743554A019640784
1894A021515744A023981409A026645964A029260970A031537737A032995484A033390421
1887A033206519A033271475A033915823A034865586A035817154A036709665A037472889
1880A037840761A037530211A036624237A035756293A035662885A036421807A037434791
1873A038180528A038600794A038776159A038695312A038398433A038011477A037634584
1866A037344367A037221396A037296483A037526811A037805091A037954156A037800095
1859A037290307A036543182A035804315A035285089A034970583A034669471A034261280
1852A033751700A033158566A032548014A032090204A031855158A031580208A030786657
1845A029161247A026799123A024043935A021085901A017736747A013569684A008230649
1838A001618115I93756441I84502323I73503987I60444917I45163418I27654771
1831I08276993H87873115H67444116H47822547H29703070H13690893H00310239G90261667
1823G84619993G84455731G90161180H01082069H15508879H30952697H44855075H55509897
1815H62372050H65428836H64515158H59494239H50845744H39648450H27120958H14445999
1807H02743218G92752661G84556426G77781435G72042259G67164642G63138593G60024625
1799G57913577G56906770G57138416G58813722G62031438G66444444G71328167G76151653
1791G80867228G85564205G90167426G94592576G98926122H03347663H08008623H13016010
1783H18496059H24665703H31717656H39570586H47848988H56152649H64224456H71888419
1775H78957583H85189059H90296934H94052197H96309741H96749230H94619168H89055774
1767H79977645H68744333H57926290H50382730H48164256H51566638H58806518H66801225
1759H72680860H74892463H73234160H68289576H61009516H52562411H44230089H37222619
1751H32406974H30028818H29706748H30846450H33141468H36726363H41978652H49212771
1743H58422823H69195480H80843577H92652466I04083489I14812218I24554404I32943215
1735I39734723I45063903I49289746I52648962I55212545I57097290I58591054I60030064
1727I61488297I62674425I63364991I63868187I64759240I66236280I68022134I69802923
1719I71508555I73245762I75106218I76995613I78660022I79974396I81107575I82320213
1711I83692810I85059370I86124401I86760907I87287975I88219279I89632196I91050456
1703I92002717I92434504I92615074I92906401I93538536I94397875I95150760I95653678
1695I96041258I96440289I96842721I97210107I97500462I97679436I97833497I98142868
1687I98653766I99247038I99853149A000476540A000980289A001113185A000867035
1680A000592710A000591460A000735181A000708255A000541079A000610892A001074045
1673A001608400A001839352A001739074A001486747A001185566A000819845A000331084
1666I99704224I99048772I98526423I98194360I98053554I98178052I98625730I99295338
1658A000017342A000704577A001324429A001811732A002096189A002189528A002207154
1651A002304171A002576761A002998693A003456573A003826110A003995022A003865458
1644A003484054A003161290A003269410A003851856A004577537A005091559A005276432
1637A005188853A004939372A004665741A004492318A004445475A004471707A004551236
1630A004692875A004816123A004791002A004616816A004416190A004254496A004098284
1623A003909801A003686276A003461083A003291825A003188632A003102372A003014654
1616A002963370A003002649A003193073A003544359A003934022A004215217A004390166
1609A004538466A004659356A004697802A004644436A004527433A004349916A004072121
1602A003690509A003341860A003219998A003366218A003665873A004010913A004318271
1595A004480937A004463727A004374136A004348112A004422297A004551444A004668655
1588A004709946A004646240A004571361A004709946A005206341A005911897A006493441
1581A006741743A006698439A006563324A006538272A006706142A007026616A007418222
1574A007733630A007713158A007187131A006313357A005448119A004811959A004403282
1567A004173926A004150678A004343879A004610431A004739162A004705852A004694401
1560A004815845A004956929A005017443A005164772A005687191A006591846A007483524
1553A007923152A007837100A007501984A007213224A007074083A007045978A007073043
1546A007121134A007159372A007173043A007206492A007343481A007610867A007912326
1539A008120516A008248206A008426209A008645849A008656536A008240295A007481997
1532A006702881A006263808A006402601A007020787A007649313A007854727A007663955
1525A007427937A007331545A007202329A006798787A006174494A005676781A005568730
1518A005729245A005786983A005519251A005102176A004958109A005322025A005948677
1511A006306140A006107457A005640695A005522720A006057075A006875401A007301080
1504A007046533A006431193A005966026A005895242A006155826A006579771A006969850
1497A007072973A006731194A006135771A005737226A005795102A006129178A006350554
1490A006224460A005820710A005409326A005212795A005232573A005334864A005410090
1483A005371574A005101968A004577676A004044779A003927152A004443810A005323344
1476A005998018A006128345A005864430A005549369A005263871A004798982A004020976
1469A003083982A002286059A001891608A002032067A002521175A002839705A002584811
1462A001891122A001233241A000992227A001331993A002210555A003305009A004119727
1455A004316120A003917020A003244496A002705145A002524783A002603340A002663091
1448A002526310A002182172A001659545A001009021A000422480A000173693A000345380
1441A000736222A001082581A001263568A001298613A001267801A001217419A001085496
1434A000803745A000484590A000352111A000461272A000638581A000725604A000742884
1427A000774390A000786188A000639691A000280563I99875495I99721504I99979312
1420A000507976A000996668A001169674A000786812I99678616I98107892I96953478
1413I97052229I98265422I99530663I99978271I99832538I99971887A000602356
1406A000879318A000202631I99193048I98831352I99311855A000175913A000945800
1399A001382930A001429911A001015613A000095691I98922678I98049043I97912818
1392I98301507I98476943I98099633I97567777I97415937I97618645I97528637
1385I96715239I95654302I95113494I95076783I94831119I93967546I92807719
1378I92025133I92086618I92820766I93526807I93733471I93607030I93492179
1371I93476426I93547418I93780661I94166645I94519041I94696072I94707731
1364I94607453I94447008I94267617I94036596I93771223I93680521I93845616
1357I93911127I93551582I93010149I92672326I92458446I92160871I91997790
1350I92274614I92806539I93134578I93131455I93109317I93433261I94137221
1343I94882472I95331261I95513982I95658744I95786642I95823977I95908710
1336I96105311I96067351I95539451I94830078I94322580I94042217I94007935
1329I94325841I94782470I95074493I95350206I95809890I96048406I95517452
1322I94413559I93586072I93630556I94374003I95223002I95740007I95800243
1315I95552567I95410512I95708709I96284355I96763470I97087899I97417186
1308I97893456I98623856I99313451I99023997I97065206I94064424I91665380
1301I91217563I92699460I94649924I95410859I94604608I93133328I92054487
1294I91981066I93021530I94474281I94933270I93627710I91647962I91017215
1287I92451298I94752145I96346326I96582344I95785948I94879072I94591075
1280I94588508I93979552I92762125I91924299I92141371I93120351I94108630
1273I94606898I94734171I94846386I94846733I94311545I93099116I91421381
1266I89704368I88520044I88446900I90178625I94242218I99400266A002413610
1259A001413187I97807751I94129171I92062399I92157264I93681979I94990870
1252I95091564I94516265I94228616I94377125I94429589I93873236I92608204
1245I90999172I89612834I88914426I89197425I90356628I91527975I91646157
1238I90711523I89792571I89533999I89486601I89062935I88348079I87751337
1231I87423854I87172638I86767986I86319544I86244596I86727944I87427463
1224I87837320I87750782I87336831I86883462I86508512I86219058I86167843
1217I86511635I87089709I87577290I87809630I87761191I87498109I87247378
1210I87233013I87383188I87305255I86620726I85481441I84592538I84388304
1203I84511205I84488235I84415924I84633135I85246047I86090744I86752372
1196I86840644I86499213I86188454I85963678I85548408I84964990I84527375
1189I84303501I83909744I82956442I81671631I80876900I81179331I82304737
1182I83366507I83741526I83502316I83129240I83074763I83639097I84884074
1175I86187066I86478255I85794628I85803511I87559386I89762176I90409439
1168I89155579I87144741I85403716I84189760I83394890I82981841I82968725
1161I83200302I83437361I83807245I84714538I85943137I86317393I84905795
1154I82302239I80112704I79533727I80880578I83813144I87310807I89823939
1147I90136918I88343638I85886439I84395521I84250413I84435494I83973312
1140I82942771I82082876I82053799I83050821I84866169I87266254I89827756
1133I91206390I90005689I87181868I85560136I86329468I87697832I87321909
1126I84834455I81708134I79375225I78072511I77296932I76720316I76369446
1119I76196093I76062019I76160562I77005953I78874042I81248867I82811750
1112I82441935I80589598I79090838I79129699I79916867I79979115I79123801
1105I78166682I77515186I76796999I75671385I74472626I73719811I73434313
1098I73356589I73441114I73719256I74068530I74406353I74757084I74953684
1091I74632863I73734940I72779416I72371642I72617583I73090383I73388719
1084I73646389I74172069I74800109I75033005I74688936I74084213I73565542
1077I73147566I72743053I72433474I72249712I72034374I71802519I71845684
1070I72272335I72861929I73393994I73630775I73303917I72588159I72117996
1063I72185242I72362204I72098010I71300573I70309172I69651499I69758369
1056I70473087I71052896I71107581I70857961I70506120I70052472I69573428
1049I69272524I69230955I69312427I69310137I69078838I68579251I67881050
1042I67152385I66638156I66540029I66798254I67103808I67328029I67586739
1035I67927755I68324704I68744484I69030329I68959892I68480222I67722063
1028I66900267I66296585I66065980I65903176I65279993I64255976I63536471
1021I63645354I64340501I64930928I65095259I65127112I65456955I66088812
1014I66577017I66599086I66317127I66083260I66001164I65902759I65720107
1007I65623160I65649669I65607129I65445157I65385823I65537386I65579232
1000I65250430I64699351I64177488I63829533I63722940I63855210I64027591
993I63880331I63255483I62379489I61627853I61256928I61213486I61202937
986I61132153I61071639I60922436I60614800I60382321I60471982I60716189
979I60826877I60849569I60839854I60648458I60292869I60069204I60174062
972I60355743I60164693I59471073I58417146I57243440I56289721I55839891
965I55731771I55472783I55043842I55087631I55997908I56878760I56892986
958I56335176I55634547I55063203I54873889I55051476I55183746I54992280
951I54695124I54591237I54459244I53867637I53006494I52248543I51661447
944I51191423I50943538I51148050I51709123I52101144I52154719I52327100
937I52914543I53444942I53612882I53520376I53015238I52093372I51126537
930I50366019I49724169I49197240I49267261I50177884I50662898I49743947
923I48064408I46342954I44930523I43924617I43016492I41740495I40188230
916I39021602I38638047I38494465I38068161I37561704I37430822I37756917
909I38096336I38007578I37376345I36522626I36490358I38277323I39891004
902I39642148I38804738I38667124I39097522I38832427I37670032I36283833
895I35081605I34167859I33719140I33909981I34123167I33541483I32502893
888I31787066I31823291I32405391I33029336I33598875I34243501I34698257
881I34665225I34437812I34568347I34883130I34216298I32211080I29862696
874I28467059I28666574I29940004I31323774I32432594I33405814I34300059
867I34900202I35062660I34979661I34973832I35133097I35279247I35292640
860I35303674I35446770I35538652I35204923I34310677I33020801I31473532
853I29697671I27873370I26520829I26343173I27208342I27932635I28117994
846I28273442I28660606I28476983I26136579I20210240I10565071H98946121
839H88210591H83604386H90344470I00879930I08120225I13039410I16712022
832I19487265I21773193I23642670I24989105I26022005I26962886I27749636
825I28358800I28519731I27479405I25128315I21230302I14574396I04663021
818H93888282H85222092H80428099H80820607H85902249H93127278I00900332
811I08499756I14247746I17478856I19297674I20488799I21126762I21419131
804I21691166I22077150I22861957I24523453I26064545I25973565I24880430
797I23858702I23535591I24142604I25296949I26020201I25730955I24708950
790I23449192I22335861I21497132I20578737I19071510I16592660I12546971
783I05984820H96287603H84134091H71794387H62715703H60098129H63859846
776H68149603H66310868H57086728H41663313H21913569H03236004G92306787
769G89320369G89737444G90016211G89045766G88565056G90904419G96128533
762H03263346H10956525H17745673H22587480H25137809H25982020H26326991
755H27129425H28696402H31201553H35067366H39869339H43616830H45361047
748H46102412H46942528H48034623H48810132H48876475H48150030H46522678
741H43960483H40674827H37342189H35334404H35642803H38156421H42581778
734H48583968H55363262H61849840H67372707H71931097H75719533H78663966
727H80758427H82383628H83898558H85330073H86698923H88203721H89690268
720H90572230H90557726H89655222H87407810H82696469H74877821H64662280
713H53233894H41115287H28188071H15033164H03826778G97048039G95112218
706G95907227G97815080H01927113H10081918H21817663H34529680H45919135
699H54590460H59714226H61755668H62440545H63538470H65923565H69275703
692H72640402H75342223H77167009H77927805H77261042H74890173H71039351
685H66547232H62554841H60067594H59446910H60021723H60344973H58712554
678H53515991H44003578H31552353H20105716H14356685H16611939H25327678
671H36774594H47853707H57235099H64592883H69743298H72569617H73159628
664H71883561H69565504H67221422H64993025H61222217H53159708H39650948
657H23662435H11471101H08151580H13448074H22360275H29485651H32445628
650H31905791H29651092H27064469H24885065H23776801H24645231H28113053
643H33818017H40413479H46221149H49977383H51271077H50610490H49235464
636H48673143H50012152H53280945H57544955H61672740H64959992H67205738
629H68570980H69448293H70219012H70935811H71260310H70773422H69320048
622H67097271H64531329H62136379H60459339H60040668H61215971H63742358
615H66516837H67806228H66274157H62370038H58660507H58081530H61505563
608H67291305H73103070H77620170H80656136H82519368H83643248H84446723
601H85210363H86045900H86934802H87747785H88309967H88529192H88468400
594H88282278H88076031H87837931H87511697H87057010H86374841H85228130
587H83254557H79906513H74256651H65073317H51771289H36024901H22295459
580H15550864H17500355H25239683H33905040H40239362H43573249H44629883
573H44408716H43785116H43339660H43342505H43910933H45091857H46817892
566H48920820H51221806H53595936H55946888H58122335H59900209H61101397
559H61674822H61648104H61036789H59819709H57991037H55663958H53154643
552H50928882H49381197H48625537H48537333H49022139H50151778H51979271
545H54337579H56922397H59491949H61848522H63620566H64157350H62600435
538H57792354H48291877H33782347H17553860H06378772H05540389H13532669
531H22725024H25067648H16882725H00445979G83378833G75030480G80178049
524G95559758H13398039H27808679H37380427H43298646H46983749H49361489
517H50962679H52029098H52657138H52957417H53034378H52895931H52519663
510H51957758H51243735H50257261H48810409H46786108H44073669H40440960
503H35564038H29183150H21325571H12515174H03697214G95746851G89023977
496G83548022G79609482G77997050G79484776G84130746G91111013G99153812
489H07093558H14145372H19885173H24132181H26890214H28361493H28929575
482H28982247H28637831H27700559H26008945H23830236H21838829H20708912
475H20761376H21947990H23999287H26438303H28471001H28982177H26596458
468H19716608H07110074G89485395G70716504G56482270G50606036G52569407
461G58706087G65435069G71182017G75982048G80276176G84271830G87889757
454G90716701G91878332G90531273G87126810G83825193G82731223G83692090
447G84455592G82873625G78408711G71828100G64378157G57567357G53196267
440G52866356G57049519G64695300G73957746G83284940G91799914G99084832
433H05057389H09948538H14086177H17681481H20847983H23658202H26109571
426H28141090H29697796H30727296H31166369H30915014H29659697H26740387
419H21490457H13918167H05079110G96801056G90934607G88477478G89077829
412G91418510G94345454G97791694H02535444H08993153H16385081H23223501
405H28459412H32004125H34369374H36120044H37613391H38946294H39994252
398H40613341H40901893H41157689H41522924H41882676H42196141H42649510
391H43364990H44213364H44992411H45564379H45818857H45741132H45559035
384H45634470H46074861H46532463H46582429H46273474H46057859H46192558
377H46490270H46659736H46628994H46489645H46246687H45670972H44257292
370H41033885H34680410H24991174H14647666H08105778H07490784H10314397
363H12020445H10006831H04740802G98083785G91446199G85206950G79278460
356G73935539G69961468G68001358G67861316G68415726G68276655G66817589
349G64682253G63305562G63966357G67162422G72585704G79533840G87332849
342G95382796H02987494H09440346H14300960H17481202H19120560H19453178
335H18753313H17421382H16094448H15470780H15943579H17501119H19911544
328H22843207H25902491H28752474H31244093H33439250H35467715H37281467
321H38655105H39544424H40252270H41080659H41975668H42615158H42786152
314H42688649H42768178H43160061H43591639H43976097H44571937H45372497
307H45952584H46076249H45931696H45766462H45678467H45531069H44693450
300H42136946H37041146H28886410H16788762H00005032G80655985G65341522
293G61447326G70652520G87209392H03028369H13450017H18294254H19346863
286H18002925H14456616H07972396G97615982G82810127G63322494G38985767
279G09595573F75025193F35541041E92568456E49722728E13166805D90461663
272D87824277E06833975E42856862E86834832F29458143F64785780F91205726
265G10130622G24021133G34971446G44338057G52889603G60783755G67655277
258G73272523G78012456G82336148G86051231G88592121G89944385G90830650
251G92017889G93842120G96234640G98643816H00113846H00142576G99408359
244G99019391G99204750G99360337G99027996G98159497G96563373G93678344
237G89011832G82346766G73182654G60479728G43975667G26006850G11011266
230G02149863F98641652F97193273F95550168F93818859F92975828F93351264
223F94711647F96990496G00194680G03468469G04652169G01565820F94429688
216F86628806F82030997F81468745F82680481F83382776F83099360F82185822
209F80812877F79458878F78910853F79315782F80544798F82535720F85195695
202F88291620F91314193F93759039F95839482F98421317G01984837G06149680
195G10506405G15393320G21301408G27850304G33998990G39091181G43219799
188G46845082G50408255G54031318G57450701G60406723G62947544G65246240
181G67282617G68764097G69499147G69863827G70419417G71063626G71077228
174G69932599G67774292G64365457G56162560G36496230G04234331F72067922
167F58249722F67458177F86381546F99480935G02389975F99308901F94933786
160F91746674F90548956F90774148F91295456F91670684F92428427F94180555
153F96853923G00151793G04237524G09252337G14651192G19692723G24080259
146G27802490G30978707G33894409G36591790G38431427G38256408G34958677
139G28526506G21338465G17616304G20127285G27499572G35626343G41552127
132G45236883G47930793G50250863G52080785G53313964G54181145G54969978
125G55521057G55320084G54333540G53336518G53125622G53820074G55020637
118G56184904G56716484G55833550G52659137G47086097G40641642G35684220
111G33415642G33270325G34227583G35736545G37149461G37376874G35712880
104G32458314G28451835G24164646G19614096G15131417G11661860G10006401
97G09875103G10163099G10324655G10708835G11314599G11437986G11091974
90G11477958G13306006G15950228G18529010G20603971G21515496G20183427
83G16513313G12292398G09929718G10780244G14640366G20090296G25242654
76G28888756G31287245G33544095G36150635G38534481G39962803G40495076
69G40969472G42052754G43475387G44282609G43909602G42792870G41862052
62G41707367G41936237G41104865G38298116G34698578G32152899G31482458
55G32831113G36449943G41981831G47468264G50837960G52354624G53909180
48G56244170G58359382G59118719G58461533G57445149G56975542G56670197
41G55890178G55403776G56435358G58080754G57644734G54401480G50879528
34G48187283G41451363G25771596G07755658F97144973F96843375G03739880
27G11833339G17318245G20609661G23398645G26094568G28070569G28956349
20G29673840G32463519G38008592G41789602G39852532G35184008G32387807
13G32186765G32176910G30664063G28451835G27826709G30898901G37839750
6G46880058G55880046G62716939G64945475G62404376G61712283
$$ === CHEMSPECTRA INTEGRALS AND MULTIPLETS ===
##$OBSERVEDINTEGRALS= (X Y Z)

##$OBSERVEDMULTIPLETS=
##$OBSERVEDMULTIPLETSPEAKS=
$$ === CHEMSPECTRA SIMULATION ===
##$CSSIMULATIONPEAKS=
##END=


$$ === CHEMSPECTRA PEAK TABLE EDIT ===
##TITLE=LSH-R228A
##JCAMP-DX=5.00
##DATA TYPE=INFRAREDPEAKTABLE
##DATA CLASS=PEAKTABLE
##$CSCATEGORY=EDIT_PEAK
##$CSTHRESHOLD=0.93
##MAXX=3997.453
##MAXY=0.9222341137330514
##MINX=373.96442
##MINY=0.4189910275633937
##$CSSOLVENTNAME=- - -
##$CSSOLVENTVALUE=0
##$CSSOLVENTX=0
##NPOINTS=100
##PEAKTABLE= (XY..XY)
385.29667513682534, 0.6251285044019921
413.6273129788897, 0.5985169978368937
429.2091637920248, 0.6488143769267712
451.8736740656759, 0.6282684178959321
460.3728654182951, 0.6370505661625142
487.2869713682562, 0.6097568244694191
501.45229028928816, 0.6107550831840663
509.9514816419073, 0.6097099157851874
528.3663962392493, 0.6298040123031713
543.9482470523844, 0.6468576762654639
566.6127573260355, 0.6163588135840248
597.7764589523063, 0.5931107374085622
609.1087140891318, 0.5653690076890089
665.76998977326, 0.5831148004190249
675.6857130179824, 0.5853117673352003
691.267563831118, 0.5951951715808386
718.1816697810787, 0.686275717430453
757.8445627599685, 0.4189910275633937
787.5917324941356, 0.6540051666107187
817.3389022283031, 0.723783131770045
842.8364762861606, 0.700405773491511
865.5009865598122, 0.655601200772617
872.5836460203282, 0.6595141262660442
889.5820287255665, 0.6935517752761008
909.4134752150117, 0.7266769376475596
917.9126665676308, 0.7262484989859608
958.9920914386234, 0.6772212952366311
995.821920633307, 0.6466349933591922
1008.5707076622357, 0.6722858514700814
1028.4021541516809, 0.6446936102750083
1046.8170687490224, 0.7049047917090744
1072.3146428068803, 0.6682196823525225
1117.6436633541825, 0.665671702944276
1127.5593865989053, 0.6918765868430055
1150.2238968725565, 0.7288065515435008
1181.3875984988272, 0.724342283457867
1194.136385527756, 0.7004745574348968
1236.6323422908522, 0.7370040380090985
1247.9645974276777, 0.7386867366414966
1273.4621714855352, 0.7289231984061854
1287.6274904065672, 0.7075397937480574
1300.3762774354964, 0.694119331275471
1327.290383385457, 0.6994488801369533
1338.6226385222826, 0.7381767594093795
1374.035935824863, 0.6829198565040441
1417.9484244800624, 0.7174665894928698
1456.194785566849, 0.6772965157575073
1461.8609131352619, 0.6779452530260565
1474.6097001641906, 0.7387360897478711
1500.107274222048, 0.7932223640941429
1528.4379120641124, 0.7561974491394475
1559.6016136903827, 0.7589255539442157
1576.5999963956215, 0.7956337891146089
1596.4314428850662, 0.8030466401215284
1610.5967618060981, 0.7974579893840996
1619.0959531587177, 0.8025862539103794
1630.4282082955433, 0.8003095349303817
1637.5108677560593, 0.801968988362193
1647.4265910007816, 0.8062187992024338
1654.5092504612976, 0.8043491804357871
1663.0084418139168, 0.8051569425672039
1687.0894839796715, 0.815263088983038
1708.3374623612194, 0.8167629798821782
1725.3358450664578, 0.820138748333683
1736.6681002032838, 0.820284720532003
1752.249951016419, 0.8246009911391298
1763.5822061532444, 0.8248699265319814
1783.4136526426896, 0.827739175672503
1793.329375887412, 0.8291674216408513
1798.9955034558247, 0.829371269784942
1820.2434818373727, 0.827579017923899
1845.7410558952306, 0.830158766231026
1857.0733110320562, 0.8324699957105648
1871.238629953088, 0.8328311998797776
1879.7378213057073, 0.8349496687224076
1891.0700764425333, 0.8346787054726765
1913.7345867161844, 0.8351675237661129
1927.8999056372163, 0.8360134922327981
1944.898288342455, 0.8409386240765632
1956.2305434792804, 0.8383371791609515
1973.228926184519, 0.8464950876320532
1984.5611813213445, 0.8434835037239126
1991.6438407818607, 0.8453701698871469
2004.3926278107895, 0.8413190203092962
2018.5579467318216, 0.8442693313322512
2034.1397975449568, 0.8466964922128987
2041.222457005473, 0.8443604071000543
2051.1381802501955, 0.842472668173905
2073.8026905238466, 0.8455123268629938
2078.0522862001562, 0.8454886041154248
2086.5514775527754, 0.8479319174215169
2097.883732689601, 0.8470170456247004
2110.6325197185297, 0.8470829685806802
2133.2970299921813, 0.8493760787596137
2163.044199726349, 0.848974521870405
2197.0409651368254, 0.8511821588696018
2850.0621673964033, 0.7126330101049926
2869.893613885848, 0.7284861175184446
2919.4722301094607, 0.6501052946407365
2953.4689955199374, 0.673767026993786
##END=


$$ === CHEMSPECTRA PEAK TABLE AUTO ===
##TITLE=LSH-R228A
##JCAMP-DX=5.00
##DATA TYPE=INFRAREDPEAKTABLE
##DATA CLASS=PEAKTABLE
##$CSCATEGORY=AUTO_PEAK
##$CSTHRESHOLD=0.93
##MAXX=3997.453
##MAXY=0.9222341137330514
##MINX=373.96442
##MINY=0.4189910275633937
##NPOINTS=100
##PEAKTABLE= (XY..XY)
2197.0409651368254, 0.8511821588696018
2133.2970299921813, 0.8493760787596137
2163.044199726349, 0.848974521870405
2086.5514775527754, 0.8479319174215169
2110.6325197185297, 0.8470829685806802
2097.883732689601, 0.8470170456247004
2034.1397975449568, 0.8466964922128987
1973.228926184519, 0.8464950876320532
2073.8026905238466, 0.8455123268629938
2078.0522862001562, 0.8454886041154248
1991.6438407818607, 0.8453701698871469
2041.222457005473, 0.8443604071000543
2018.5579467318216, 0.8442693313322512
1984.5611813213445, 0.8434835037239126
2051.1381802501955, 0.842472668173905
2004.3926278107895, 0.8413190203092962
1944.898288342455, 0.8409386240765632
1956.2305434792804, 0.8383371791609515
1927.8999056372163, 0.8360134922327981
1913.7345867161844, 0.8351675237661129
1879.7378213057073, 0.8349496687224076
1891.0700764425333, 0.8346787054726765
1871.238629953088, 0.8328311998797776
1857.0733110320562, 0.8324699957105648
1845.7410558952306, 0.830158766231026
1798.9955034558247, 0.829371269784942
1793.329375887412, 0.8291674216408513
1783.4136526426896, 0.827739175672503
1820.2434818373727, 0.827579017923899
1763.5822061532444, 0.8248699265319814
1752.249951016419, 0.8246009911391298
1736.6681002032838, 0.820284720532003
1725.3358450664578, 0.820138748333683
1708.3374623612194, 0.8167629798821782
1687.0894839796715, 0.815263088983038
1647.4265910007816, 0.8062187992024338
1663.0084418139168, 0.8051569425672039
1654.5092504612976, 0.8043491804357871
1596.4314428850662, 0.8030466401215284
1619.0959531587177, 0.8025862539103794
1637.5108677560593, 0.801968988362193
1630.4282082955433, 0.8003095349303817
1610.5967618060981, 0.7974579893840996
1576.5999963956215, 0.7956337891146089
1500.107274222048, 0.7932223640941429
1559.6016136903827, 0.7589255539442157
1528.4379120641124, 0.7561974491394475
1474.6097001641906, 0.7387360897478711
1247.9645974276777, 0.7386867366414966
1338.6226385222826, 0.7381767594093795
1236.6323422908522, 0.7370040380090985
1273.4621714855352, 0.7289231984061854
1150.2238968725565, 0.7288065515435008
2869.893613885848, 0.7284861175184446
909.4134752150117, 0.7266769376475596
917.9126665676308, 0.7262484989859608
1181.3875984988272, 0.724342283457867
817.3389022283031, 0.723783131770045
1417.9484244800624, 0.7174665894928698
2850.0621673964033, 0.7126330101049926
1287.6274904065672, 0.7075397937480574
1046.8170687490224, 0.7049047917090744
1194.136385527756, 0.7004745574348968
842.8364762861606, 0.700405773491511
1327.290383385457, 0.6994488801369533
1300.3762774354964, 0.694119331275471
889.5820287255665, 0.6935517752761008
1127.5593865989053, 0.6918765868430055
718.1816697810787, 0.686275717430453
1374.035935824863, 0.6829198565040441
1461.8609131352619, 0.6779452530260565
1456.194785566849, 0.6772965157575073
958.9920914386234, 0.6772212952366311
2953.4689955199374, 0.673767026993786
1008.5707076622357, 0.6722858514700814
1072.3146428068803, 0.6682196823525225
1117.6436633541825, 0.665671702944276
872.5836460203282, 0.6595141262660442
865.5009865598122, 0.655601200772617
787.5917324941356, 0.6540051666107187
2919.4722301094607, 0.6501052946407365
429.2091637920248, 0.6488143769267712
543.9482470523844, 0.6468576762654639
995.821920633307, 0.6466349933591922
1028.4021541516809, 0.6446936102750083
460.3728654182951, 0.6370505661625142
528.3663962392493, 0.6298040123031713
451.8736740656759, 0.6282684178959321
385.29667513682534, 0.6251285044019921
566.6127573260355, 0.6163588135840248
501.45229028928816, 0.6107550831840663
487.2869713682562, 0.6097568244694191
509.9514816419073, 0.6097099157851874
413.6273129788897, 0.5985169978368937
691.267563831118, 0.5951951715808386
597.7764589523063, 0.5931107374085622
675.6857130179824, 0.5853117673352003
665.76998977326, 0.5831148004190249
609.1087140891318, 0.5653690076890089
757.8445627599685, 0.4189910275633937
##END=

##END=

