##TITLE=X7818
##JCAMP-DX=4.24
##DATA TYPE=INFRARED SPECTRUM
##DATE=30/10/2018
##SAMPLING PROCEDURE=Diamant-ATR
##ORIGIN=ComPlat
##XUNITS=1/CM
##YUNITS=TRANSMITTANCE
##RESOLUTION=4
##FIRSTX=3997.453
##LASTX=373.96442
##DELTAX=-1.4165319
##MAXY=0.99372768
##MINY=0.40533492
##XFACTOR=1
##YFACTOR=9.2548103e-010
##NPOINTS=2559
##FIRSTY=0.9698348
##XYDATA=(X++(Y..Y))
3997+1047925108+1048478338+1049146916+1049211256+1048552339+1047609143
3989+1046920471+1046812401+1047252667+1047867338+1048277269+1048464685
3980+1048655063+1048924078+1049110850+1048988804+1048426364+1047612749
3972+1047106341+1047336971+1048061323+1048590723+1048525740+1048086634
3963+1047842092+1048213187+1049062289+1049801582+1050005421+1049683594
3955+1049014566+1048209066+1047614553+1047602895+1048287316+1049319647
3946+1049980110+1049828374+1049331884+1049375421+1049961433+1050252474
3938+1049918991+1049294787+1048579581+1047809825+1047312240+1047401053
3929+1047811307+1048056686+1048005291+1047871138+1047905658+1048041164
3921+1047924915+1047378383+1046665496+1046312369+1046617193+1047406657
3912+1048379543+1049427202+1050348630+1050531730+1049478661+1047626338
3904+1046165335+1045716954+1045943399+1046725263+1048132296+1049588985
3895+1050305479+1050017336+1049183304+1048779427+1049136032+1049324349
3887+1048476406+1046829082+1045404853+1044691386+1044606823+1045374647
3878+1046787412+1047785287+1047633874+1046492185+1045072786+1044080192
3870+1044186780+1045648235+1047475440+1048338131+1047820903+1046681532
3861+1046003165+1046053723+1046477372+1046843379+1046680695+1045545124
3853+1044209837+1044758559+1047049601+1049478146+1050993249+1051149686
3844+1049997499+1048015016+1045931613+1044419858+1043950547+1044751732
3836+1046519170+1048406786+1049494633+1049363700+1048521167+1047913000
3827+1047992217+1048530892+1048998916+1049001299+1048476406+1047721205
3819+1047054882+1046650554+1046976760+1048314237+1049853041+1050535723
3810+1050033372+1048687523+1047454444+1047301742+1047763068+1047489480
3802+1046257625+1045509445+1046453478+1048600706+1050941919+1052580034
3793+1053094621+1052824318+1052286094+1051651908+1050907076+1050205395
3785+1049816975+1049729257+1049540553+1048975215+1048390169+1048378706
3776+1048811371+1049066862+1048916929+1048633616+1048598967+1048898188
3768+1049203398+1049313143+1049536238+1050105698+1050553112+1050141120
3759+1048765194+1047327182+1046761908+1046865019+1046698149+1045575845
3751+1043966648+1043238432+1043426814+1043516850+1043161212+1042737176
3742+1042632713+1042537781+1041828307+1040224391+1038297231+1037371296
3734+1038083153+1039925106+1042463459+1045186008+1047178087+1047789474
3725+1047296075+1046674190+1046559809+1046827150+1047135323+1047430550
3717+1047806476+1048050181+1047686878+1046644114+1045828953+1046311274
3708+1047762102+1049108918+1049687652+1049335298+1048375550+1047548796
3700+1047401569+1047781359+1048210096+1048396223+1048490189+1048950291
3691+1049992991+1051147947+1051547316+1051053209+1050342189+1049799135
3683+1049232638+1048288604+1047001620+1045780779+1044898251+1044759010
3674+1046000396+1047850335+1048654419+1047896255+1047126693+1048098162
3666+1050130880+1051563481+1051558200+1050466231+1049165851+1048168684
3657+1047770668+1048363828+1049504487+1049761072+1048257240+1045615518
3649+1043916735+1044416316+1045989705+1047637094+1049110141+1050232509
3640+1051025966+1051759527+1052321967+1051994537+1050318102+1047787928
3632+1045133390+1042518975+1040523097+1040770730+1043005225+1045153806
3623+1046270957+1046640571+1046899282+1047393003+1047909909+1047990800
3615+1047516014+1046956602+1046974892+1047538234+1048173772+1048994858
3606+1050153550+1050832368+1050289056+1048958341+1047858708+1047423852
3598+1047303288+1047094619+1046802290+1046774660+1047133197+1047355649
3589+1046886337+1046133712+1046448712+1048195927+1050115487+1051096682
3581+1051063385+1050711224+1050663114+1050854136+1051013922+1051261362
3572+1051667623+1051732606+1050905273+1049491735+1048773115+1049438022
3564+1050523873+1051077940+1051111494+1051102349+1051449486+1052097326
3555+1052476601+1052061775+1051143696+1050605408+1050671809+1050713478
3547+1050308119+1049742266+1049564704+1050173644+1051677412+1053557686
3538+1054772538+1054736021+1053938249+1053177574+1052666721+1052258465
3530+1051863153+1051356616+1050624150+1049955443+1050010316+1051137256
3521+1052776852+1053797268+1053591820+1052743426+1052362670+1052755277
3513+1053157286+1052855683+1052086635+1051602961+1051688232+1051986873
3504+1052103702+1051983331+1051793919+1051588985+1051204236+1050558522
3496+1050028606+1050278816+1051454574+1052795207+1053418058+1053286931
3488+1053079229+1053216989+1053470612+1053495472+1053298267+1053061582
3479+1052784709+1052349918+1051894711+1051838615+1052401699+1053270380
3471+1053887498+1053844026+1052982945+1051515436+1050106471+1049482589
3462+1049808473+1050599032+1051286287+1051754310+1052260654+1052957698
3454+1053686236+1054281007+1054799394+1055240304+1055281458+1054613589
3445+1053446847+1052408977+1052019912+1052297171+1052691066+1052561163
3437+1051897158+1051333431+1051310631+1051594460+1051826765+1052116905
3428+1052745037+1053564255+1053998531+1053555238+1052322031+1051004391
3420+1050311082+1050287381+1050464363+1050479305+1050258271+1049803192
3411+1049139510+1048458566+1048094555+1048184592+1048361703+1048022230
3403+1047021328+1045864439+1045110784+1044858514+1044881764+1044977790
3394+1045099449+1045320355+1045772342+1046562900+1047691258+1048968388
3386+1050032599+1050590016+1050775563+1051147367+1052052114+1053078971
3377+1053516532+1053307992+1053025323+1052953834+1052784065+1052232896
3369+1051515307+1051130751+1051306445+1051707296+1051935221+1052292019
3360+1053401313+1054984878+1055852850+1055379416+1054216474+1053295046
3352+1052903019+1052934964+1053265227+1053619385+1053647400+1053290409
3343+1052763971+1052259946+1051911005+1051772344+1051637610+1051259946
3335+1050873200+1051053338+1051978823+1053169523+1053961692+1054062742
3326+1053713672+1053425980+1053481753+1053649719+1053472286+1052854781
3318+1052214477+1051970965+1052158188+1052659959+1053366148+1053869401
3309+1053636581+1052793211+1052168106+1052317781+1052981335+1053488773
3301+1053355586+1052597873+1051701306+1051169329+1051109498+1051362283
3292+1051809762+1052368531+1052885824+1053223365+1053339034+1053210548
3284+1052814335+1052334139+1052243394+1052845893+1053708584+1053981593
3275+1053423725+1052693191+1052462303+1052710323+1053044257+1053202305
3267+1053038525+1052524582+1052016048+1052056365+1052665884+1053228775
3258+1053266644+1052951773+1052713801+1052634262+1052414129+1051874359
3250+1051352752+1051364602+1051863153+1052201532+1052019784+1051828246
3241+1052314174+1053257306+1053645855+1053015920+1052143182+1051965684
3233+1052395774+1052753280+1052786770+1052674707+1052560455+1052590338
3224+1052904308+1053233734+1053055013+1052404790+1051999432+1052260010
3216+1052760816+1052960983+1052993443+1053292728+1053807702+1054079293
3207+1053931873+1053647207+1053453673+1053192258+1052687009+1052265356
3199+1052562709+1053760236+1055276112+1056289766+1056386437+1055741560
3190+1054863283+1054101964+1053401571+1052642570+1052038589+1051939536
3182+1052409943+1053185366+1053863411+1054051664+1053573529+1052725651
3173+1052151683+1052219693+1052641346+1052969356+1053213189+1053564255
3165+1053897674+1054009029+1053914419+1053581837+1052863025+1051817555
3156+1050662728+1049616550+1049091400+1049469773+1050454188+1051282809
3148+1051570888+1051380123+1050851174+1050269219+1049948230+1049782583
3139+1049513375+1049348372+1049642504+1050193738+1050454703+1050250478
3131+1049909588+1049844862+1050202046+1050768479+1051130558+1050979853
3122+1050347084+1049571403+1048998722+1048683787+1048444140+1048109239
3114+1047577713+1046778074+1045816007+1045043160+1044787605+1045007931
3105+1045234762+1044918796+1043965682+1042851493+1042014499+1041360735
3097+1040614035+1039821673+1039166170+1038540356+1037670066+1036559033
3088+1035615772+1035337418+1035843505+1036684105+1037194249+1037104019
3080+1036728286+1036525092+1036619830+1036910936+1037445489+1038317519
3071+1039256722+1039736853+1039574104+1039132100+1038981652+1039512341
3063+1040664013+1041907782+1042729770+1043063962+1042986162+1042344441
3054+1041175895+1040065120+1039586792+1039707227+1040024417+1040300388
3046+1040581833+1040952607+1041291178+1041371168+1041234374+1041212734
3037+1041487546+1041939469+1042472411+1043084185+1043616612+1043786896
3029+1043477242+1042818454+1042081995+1041503840+1041089787+1040676120
3020+1040166943+1039442913+1038183430+1036252985+1034110394+1032318998
3012+1030795393+1028928258+1026210347+1022483354+1017827463+1012394988
3003+1006228760+999350417+992141295+985370506+979794733+975994062+974408694
2993+975100328+977520565+980718930+983723890+985851411+986884321+986887155
2983+985873823+983839431+980894238+977097173+972465305+967236089+961618261
2973+955197057+947131105+937068050+925519132+913316706+901005760+888812222
2963+876916166+865397840+853977729+842320419+830856578+821081345+814901398
2953+813703678+817766731+826072974+836545187+846769767+854831533+859629499
2944+860699571+858085156+852279204+843895354+833391647+821351262+808798672
2934+796846392+786182062+777156619+770111083+765348475+762918127+762507230
2924+763551153+765602355+768599394+772602679+777425957+782846323+789055960
2914+796557153+805558058+815571522+825631614+834948742+843391908+851281908
2904+858806223+865860582+872388504+878565294+884591573+890501860+896214427
2894+901630736+906720195+911585399+916328557+920763092+924444873+927067532
2884+928616189+929061414+928112808+925343051+920454018+913514619+905122848
2874+896353669+888547586+883088063+880993581+882304138+885854213+889830513
2864+892617208+893318825+891927313+889225631+886376786+884362810+883611409
2854+883900712+884476612+884469656+883602264+882678260+883273739+886813703
2844+893796574+903643489+915113770+926943232+938224230+948340933+956855008
2834+963654328+969018405+973323874+976818819+979770453+982608285+985755900
2825+989345454+993146576+996774258+999967149+1002661682+1004912922+1006889995
2815+1008861401+1010989501+1013149288+1015056997+1016582598+1017909062
2806+1019349650+1020984480+1022532430+1023647069+1024264188+1024621179
2798+1025043669+1025744513+1026719202+1027787857+1028759520+1029549241
2789+1030174604+1030724356+1031329624+1032079608+1032919951+1033668454
2781+1034171514+1034413866+1034473053+1034448193+1034429001+1034449867
2772+1034505641+1034667231+1035053655+1035659696+1036414961+1037365306
2764+1038491409+1039459143+1039909263+1039918794+1039888267+1040091526
2755+1040479431+1040772211+1040703106+1040320804+1039973409+1039862441
2747+1039826246+1039706583+1039620089+1039644691+1039575586+1039298327
2738+1039121666+1039403369+1040046765+1040636254+1040889684+1040765642
2730+1040341349+1039840157+1039598964+1039782838+1040214280+1040585891
2721+1040757720+1040820450+1040962783+1041285704+1041677989+1041916541
2713+1041938245+1041950610+1042236951+1042884919+1043685267+1044274370
2704+1044444718+1044334201+1044235792+1044252022+1044266448+1044232250
2696+1044305477+1044590207+1044897414+1044973539+1044893163+1044914996
2687+1045004002+1044903597+1044669424+1044691579+1045107177+1045572561
2679+1045699243+1045433899+1044943720+1044375935+1043868303+1043609463
2670+1043695056+1043986935+1044242232+1044339482+1044321127+1044284932
2662+1044255371+1044150907+1043950482+1043839579+1044045414+1044600576
2653+1045360543+1046082189+1046464491+1046404016+1046205329+1046266449
2645+1046644564+1047111236+1047434672+1047506676+1047374777+1047186653
2636+1046994471+1046776399+1046737950+1047284353+1048471705+1049723331
2628+1050364666+1050328149+1050023776+1049638254+1049043998+1048396030
2619+1048191870+1048553627+1048998851+1049118965+1048980239+1048734602
2611+1048392681+1048134937+1048322803+1049013664+1049870172+1050607920
2602+1051131460+1051257434+1050810664+1050071950+1049691645+1049983781
2594+1050579969+1050928716+1050905144+1050745680+1050604700+1050438087
2585+1050222398+1050053402+1050035884+1050157221+1050291052+1050370656
2577+1050498948+1050723718+1050876098+1050926591+1051182661+1051743362
2568+1052222334+1052492573+1053100031+1054328988+1055418509+1055366600
2560+1054145179+1052565285+1051315719+1050633746+1050535015+1050832561
2551+1051150330+1051255373+1051165594+1050893809+1050488837+1050305092
2543+1050711997+1051558200+1052307862+1052574946+1052329438+1051871719
2534+1051676510+1051944044+1052416512+1052844412+1053242815+1053528897
2526+1053467971+1053143890+1052912229+1052851432+1052802227+1052898060
2517+1053486584+1054479757+1055256018+1055436671+1055492445+1056244748
2509+1057806480+1059337297+1059946623+1059577138+1058793341+1057920797
2500+1056775952+1055232446+1053675416+1052709292+1052591755+1053017981
2492+1053387402+1053362349+1053185431+1053308636+1053855232+1054675674
2483+1055634134+1056500947+1056884215+1056626599+1056067379+1055677478
2475+1055567733+1055470483+1055161988+1054815560+1054826959+1055276048
2466+1055736150+1055753925+1055429845+1055285129+1055545900+1055864958
2458+1055876615+1055638964+1055341418+1055048895+1054928717+1055231287
2449+1055859805+1056364797+1056433516+1056091144+1055510607+1054899800
2441+1054441244+1054101577+1053608500+1052837456+1052137965+1052007418
2432+1052474089+1053081161+1053464880+1053616744+1053617581+1053454768
2424+1053119996+1052694222+1052392811+1052525934+1053151039+1053819101
2415+1054023970+1053854910+1053829470+1054198698+1054753925+1055187428
2407+1055407818+1055634263+1056186849+1056968842+1057349469+1056928460
2398+1056118902+1055594332+1055505133+1055604250+1055767128+1056042519
2390+1056396484+1056519688+1055791795+1053667688+1050319326+1046580225
2381+1043037427+1039547377+1035838546+1032120183+1028728091+1025519292
2373+1022005798+1017951698+1013618728+1009370771+1005133184+1000688473
2364+996658975+994349835+994203767+995354988+997040569+999388544+1002601400
2354+1006489338+1010828620+1015203903+1018684744+1020254590+1019397116
2346+1016537194+1013247182+1011284986+1011062470+1011751722+1012556900
2337+1013443356+1014692278+1016005603+1016682746+1016720809+1016889612
2329+1017513944+1018081987+1018230760+1018289368+1018804793+1020107749
2320+1022345207+1025401690+1028623305+1031068080+1032266831+1032559289
2312+1032663430+1033151741+1034325181+1036211638+1038478915+1040508541
2303+1041822382+1042552015+1043401310+1044969739+1047124760+1049160698
2295+1050491478+1051074462+1051300971+1051601866+1052108210+1052697828
2286+1053332529+1054109756+1054983718+1055808926+1056617003+1057415741
2278+1057806673+1057297302+1055907013+1054096296+1052335170+1051017143
2269+1050432612+1050535916+1051037494+1051872749+1053158832+1054548025
2261+1055190004+1054698344+1053615005+1052525548+1051414257+1050377096
2252+1050018495+1050504165+1051316363+1052403438+1054192516+1056092819
2244+1056667817+1055866890+1055458182+1056527610+1057883313+1057744136
2235+1056128112+1054689199+1054689263+1055915193+1057341547+1058248548
2227+1058731771+1059331372+1060220662+1061032152+1061454256+1061353850
2218+1060418060+1058590855+1056796239+1056354041+1057634070+1059706461
2210+1061391655+1062435321+1063313276+1063966525+1063574820+1061904504
2201+1059909398+1058610370+1058222465+1058372268+1058395776+1057593367
2193+1055780266+1053495472+1051586087+1050645467+1050653131+1051128497
2184+1051874424+1053290731+1055620609+1058398288+1060965751+1062906694
2176+1063598650+1062198572+1058987262+1056084318+1055600451+1057246680
2167+1058803582+1058978567+1058815625+1060264392+1063954224+1067909465
2159+1068700925+1065479246+1061409430+1059610756+1060584738+1063245394
2150+1066040848+1067597814+1067601485+1066618487+1064913199+1062597748
2142+1060347409+1058494958+1056493025+1054603284+1054519752+1056940053
2133+1060153167+1062232255+1063068541+1063463595+1063587830+1063044454
2125+1061931360+1061232062+1061797078+1063065707+1063462886+1062315336
2116+1060751930+1060273988+1060940827+1061539398+1061354751+1061048897
2108+1061519110+1062483495+1062808864+1062090631+1061252413+1061278948
2099+1061859743+1061900639+1061088892+1060153682+1059706010+1059664791
2091+1059782135+1060019400+1060385601+1060816527+1061151557+1061020559
2082+1060035694+1058499917+1057625376+1058334592+1059971805+1060990805
2074+1060772346+1059824384+1058594526+1057280557+1056490835+1056965106
2065+1058603092+1060298977+1060854783+1059884602+1057822709+1055560134
2057+1054394551+1055327507+1057379868+1057731191+1055045160+1051744199
2048+1051645854+1055733252+1061394295+1065649336+1067947077+1069467912
2040+1070483369+1069863352+1067580940+1065837847+1066413039+1068320877
2031+1069510612+1069555179+1069160769+1068446594+1067486653+1067497022
2023+1069383865+1071515636+1071064808+1067638582+1063953902+1063057657
2014+1065901671+1070699444+1073741823+1072575596+1069011030+1066804808
2006+1066698219+1066512607+1065296338+1064384829+1064997504+1066644120
1997+1067743496+1067385345+1066366281+1066114075+1066826383+1067447495
1989+1067275923+1066433197+1065035051+1062878742+1059991577+1057303678
1980+1056731899+1059985459+1066229680+1071460313+1072355785+1070000919
1972+1067467525+1065370338+1062505071+1059547834+1058744974+1060115104
1963+1061342837+1061258467+1060885504+1061334207+1062252543+1062430233
1955+1061071632+1058662086+1057056431+1058123347+1061645793+1065057979
1946+1066024747+1064735766+1063045291+1062277531+1062535598+1063411041
1938+1064423471+1064953838+1064512478+1063172940+1061488325+1060088892
1929+1059464560+1059689458+1060157804+1060158255+1059773570+1059522072
1921+1059307607+1058832950+1058632525+1059363252+1060370530+1060376069
1912+1059257372+1058296465+1058602641+1059699248+1060447622+1060685208
1904+1060831405+1060797077+1060328989+1059712257+1059394681+1059435900
1895+1059612109+1059657127+1059396485+1058855105+1058320294+1058363574
1887+1059499016+1061524842+1063372334+1063934452+1063257116+1062476604
1878+1062415420+1062757856+1062843063+1062646308+1062470292+1062237279
1870+1061618936+1060660477+1059968907+1060079295+1060904696+1061877068
1861+1062401187+1062203402+1061412586+1060548349+1060240434+1060646501
1853+1061334657+1061744524+1061572501+1060964914+1060446398+1060378645
1844+1060638257+1060956026+1061172359+1061191745+1061117616+1061106410
1836+1060936705+1060255891+1059070665+1057636775+1056516726+1056502364
1827+1057547254+1058706074+1059299299+1059265487+1058754699+1058023650
1819+1057543969+1057706525+1058380705+1058964527+1058917899+1058192774
1810+1057189812+1056429136+1056282231+1056649978+1056858646+1056345476
1802+1055338262+1054467714+1054000463+1053754633+1053320357+1052338261
1793+1050970257+1049913259+1049564769+1049627370+1049609594+1049076973
1785+1047909974+1046422306+1044858771+1043209000+1041480075+1039686360
1776+1037836421+1035887171+1033475436+1030447548+1027720555+1025958012
1768+1024620213+1023092164+1021154764+1018833452+1016657758+1015316481
1759+1014700071+1014462484+1014603207+1014796612+1014520319+1013584658
1751+1011915694+1009879756+1008337152+1007234170+1005888964+1004289621
1742+1002578214+1000329937+997404773+994137045+989964892+983061689+971930494
1732+958396517+944865309+930318000+913105719+892377948+866365767+833061512
1723+793911181+751900283+705345686+650184530+593222768+550869563+524322605
1713+504391704+486303014+469314794+454255602+443225393+438058682+437972155
1703+442114361+452621513+469745850+487345746+503813936+523571912+545597455
1693+566650209+589047846+615658597+643327698+667927951+693811323+728756655
1683+765124607+790341849+807300636+821461071+834886849+848264969+860341227
1673+868550285+873611470+879969301+890197938+900989208+909611868+917429221
1663+926487445+936525704+945294626+951478050+955274535+957560553+960165951
1653+965652654+971834726+974855787+976102969+978508071+983252711+987922062
1643+990695039+991991620+992424608+992308552+991843877+991389572+991513549
1633+991944283+991899265+991306233+990772389+990949177+992006948+993938101
1623+996712752+999591738+1001416109+1001701419+1000739288+999400587+998089580
1613+995910794+991838661+985141164+974987557+960361095+940061675+912664809
1604+877373628+836063767+794452368+760233512+739849143+736548311+749402118
1594+773119328+800369997+825302703+844592269+856412586+860042393+856574175
1584+849477696+843842285+843797524+850713479+865326094+888655656+914979552
1574+934193379+945686588+954614330+964265714+973777278+981238992+986728142
1564+990629734+992662902+992915430+993494229+997927347+1003791843+1007660073
1554+1010183421+1012139369+1013702389+1015058865+1016163844+1016545630
1545+1015953629+1014724351+1013457396+1013237843+1015793070+1019820057
1537+1022201136+1022462744+1021796099+1021796163+1022771626+1023617701
1528+1023742838+1023435244+1023015008+1022275071+1021146972+1020313262
1520+1020229279+1020493142+1021073100+1022216142+1023382111+1023640629
1511+1022456240+1019637729+1015585883+1012923616+1014819025+1018275328
1503+1019990534+1019887616+1018662395+1017068913+1015761705+1014785341
1494+1013499194+1011213884+1007552712+1002901394+998680809+995578405+992434784
1485+987735420+980211298+968897003+953376550+933319546+908621206+881456710
1475+857163021+841086697+833133065+827333617+818849876+806258709+790203767
1465+774074761+762138775+754604284+748957795+744075138+741871685+744742427
1455+750545224+757368631+765878391+776393754+787970495+798726730+806616795
1445+811207187+814168932+817425454+821640500+826903527+834078580+843546928
1435+852859870+860074724+866689719+875174104+886051740+897378593+907687735
1425+917298803+926403591+934339898+941379509+949350852+959015375+968363738
1415+975844774+981605064+986136913+989819210+992766979+994870735+996301018
1405+997549231+998688730+999150829+998489142+996781343+994207245+990321239
1395+984203893+975779404+966318913+957329665+950276079+947035207+948424723
1385+952150556+954681954+953979758+949621026+942721301+935829884+931898730
1375+933165106+939626755+947720852+953065157+954269640+952646982+949936863
1366+946299778+939869365+928762644+914666291+902684320+896654628+897238064
1356+902758127+910216106+916987861+922506829+928022900+934720976+942429100
1346+949995664+956160862+959960632+960887920+959006551+955081903+950646337
1336+947742169+948248642+952810246+960081582+967436450+972638487+974590636
1326+972710297+966159062+953627854+933551594+905005504+869251065+830084761
1316+791891473+758400511+733560804+721047308+721648519+732199305+746926430
1306+759510964+765553344+764806000+761468651+761633590+769315308+784319113
1296+803520832+823768536+843617966+862894587+881333956+898030426+912015038
1286+922852550+930452024+934717241+935889715+935124789+934236337+934625079
1276+936567502+939572913+943180244+947186492+951148753+953947298+954266291
1266+951779783+947535240+942436829+935165171+922287727+901213270+873229040
1256+843618094+819142335+805178525+804070970+814995170+834578612+857694096
1247+878642837+892727082+897613732+893887834+884578692+873855690+865308318
1237+860495926+858656935+857647403+855053340+849030797+839616612+830167907
1227+826642047+833774529+851227101+873828769+895636466+913441006+927020968
1217+937437020+945552435+951449197+954441985+953355232+946768639+933220493
1207+911853190+883795991+853352947+827242679+811466993+807916982+813557803
1197+822694342+829924073+831318870+824308241+808584465+787645964+767347703
1187+751045707+736955731+721521192+704375054+688958549+679502244+678408794
1177+685266334+696750720+707635956+713478232+713814357+713187513+718462841
1167+734186682+759846638+790996709+822427323+850511573+873700477+891878881
1157+905587587+915541219+922377055+926585532+928600926+928820221+927336354
1147+923610327+916599891+905693660+892050389+879075245+871046067+870714516
1137+877860844+889782468+902998354+914752013+923391096+927835227+927094968
1128+920373191+907482673+889287008+868217574+848471448+834911452+830560062
1118+834595937+843098097+852104927+860013926+867304906+874738862+882437518
1108+890354504+898682838+907389674+915673118+922102759+925116027+923377764
1098+915993528+902682904+883998863+861620612+838394611+817744382+802734910
1088+795260830+795393503+801102914+808968634+815731952+819466416+819488828
1078+815560122+807630255+796635469+785458612+778539887+779747784+789994003
1068+806486441+824179175+838315008+846094105+846156963+836864953+815852645
1058+781895914+737647880+690909860+652783294+632912418+634767381+654562003
1048+684284947+715910577+744037204+766578011+784215487+799126099+813540027
1038+828774205+844979079+861453033+877206628+891376337+903333384+912646261
1028+918859053+920922814+916818221+904155758+881290612+847856584+805186898
1018+757706365+713886875+683912821+674511066+685349029+710148161+740824477
1009+770833245+796053321+814207059+824285506+826402980+821673733+811911187
999+799522054+787673400+779912529+778768200+784501569+795489400+809797127
989+826158116+843729320+861556530+878541078+893748078+906625907+917020514
979+925136121+931457885+936454345+940229447+942615614+943630363+943721301
969+943686072+944472574+946721238+950190615+953809796+956498275+957868662
959+958210389+958084802+958005327+958345831+959341259+961005908+963009193
949+964699153+965170075+963333016+958440827+950978984+942760265+935746416
939+930955212+928603051+928634287+930510117+932863824+934108302+933318001
929+929983485+923192281+912068107+897238965+881077306+866217767+854421666
919+846930197+844761265+847540489+852571018+856926143+861266068+870084323
909+886687922+908798382+930414992+947166784+958622575+966384927+971752289
899+975239570+977085709+977487139+976333922+972789901+965347959+952786030
890+935310144+914598023+892733458+871307097+851422567+834418633+822813361
880+820347269+829918019+850574753+877018311+902798637+923881403+939312270
870+949823770+956721627+961433164+965108311+968349054+971310606+973960378
860+976165892+977525846+977244852+974386346+967990904+956335268+936346339
850+905343753+865158322+825190253+800062275+801070390+827427196+866390885
840+903246438+930792592+949842511+963744493+974430720+982390020+988134080
830+992685315+996777543+1000150700+1002038187+1002228308+1001375857+1000303917
820+999243248+997974684+996665931+996131185+997042243+999226375+1001964509
810+1004709664+1007194046+1008872929+1008662843+1005568555+999443158+991071481
800+981878523+973442957+966388662+959264618+948881476+932352585+909653795
790+884917972+864890401+855247453+857806803+870370212+888351605+906948185
781+922829493+934224551+939443204+936002036+922905554+904937557+892885000
771+896187506+914742288+939485904+960642605+973947626+980085710+981250520
761+979407086+976342681+973541817+971599973+970545423+970867636+973226753
751+977074568+980749200+983124096+984382678+985375272+986909246+989328387
741+992137559+994148766+994292452+992151406+987628252+980562171+971158162
731+960495442+949782873+938943493+926458528+910603947+890569742+867263494
721+844516787+829199722+827834487+841882021+866858264+895720706+922818223
711+945488932+963155197+976155072+985533899+992612345+997861461+1000557927
701+999941645+996611316+992689179+990566489+991217291+993576473+995558118
691+995425253+992065878+984774319+974005912+962563968+954985425+954658769
681+961182890+970740631+978843487+982510326+981229976+977095499+972994641
671+970155457+969399354+974509680+987358528+1000122749+1006453530+1006890639
662+1003394792+996328261+985052608+971289804+960640351+958634039+965447463
652+975816114+983991102+987425508+985921740+979971909+971424859+964086736
642+961659866+965132914+972787775+982330124+992261537+1001556059+1009336380
632+1015194693+1019094739+1021034071+1021413926+1021392801+1022074324
623+1023299674+1023836095+1022964194+1021539256+1021138213+1022280095
615+1023975851+1024848074+1023778324+1019705804+1011885811+999920585+982440319
605+956740562+921705129+881042400+842428940+813568236+799448312+801591933
595+817148581+839251570+861565933+882991907+905697267+929567565+951323223
585+968051959+979568740+987262308+992084555+994413209+994816571+994033226
575+992695942+991350028+990032065+987514385+981781209+972127892+960326704
565+948932033+939220817+931620054+927346143+928237494+934735467+945082157
555+957030895+969471937+981686471+992005660+998557990+1001234555+1001846585
545+1002301471+1003500608+1005674950+1008550523+1011216653+1012950923
537+1014091582+1015235525+1016215045+1016787403+1017444903+1018638630
528+1019831263+1019785407+1017513944+1013032781+1007117406+1000541310+994423964
518+991055766+992668956+998697683+1005967537+1011840084+1015773105+1018204161
509+1019306049+1019387004+1019491468+1020087140+1019611839+1016356090
500+1011805112+1009324787+1009942936+1011705480+1012480452+1012143491
492+1012003734+1013197333+1015748825+1018166549+1017935210+1013750949
483+1007536997+1002752749+1000868869+1000706378+1000458809+999490109+998424932
473+998218517+999323560+1001421777+1003872734+1006173437+1008002316+1009183356
463+1009579762+1009126938+1008496874+1009531653+1013431248+1017964257
455+1019829975+1018943519+1016948348+1013792425+1008381076+1001881428+997357951
445+995698004+994229851+990271261+984212781+977968495+972379841+967549608
435+964469811+964634105+968139613+973766200+980487076+987402129+992842268
425+995150312+994169955+990782500+986433429+985601588+993413531+1005766404
415+1014583242+1016573904+1012583950+1005742059+998954654+993470657+989734583
405+987619171+985706695+981459704+972156230+956833884+941207550+936011117
395+942065218+951298363+959045838+964443083+965647115+960133556+949614972
385+942447455+947646980+963913360+980825003+989821013+988450497+979784235
375+972568093+974972744
##END=
