##TITLE=X7382
##JCAMP-DX=5.0
##DATA TYPE=LINK
##BLOCKS=1


$$ === CHEMSPECTRA SPECTRUM ORIG ===
##TITLE=X7382
##JCAMP-DX=5.00
##DATA TYPE=INFRARED SPECTRUM
##DATA CLASS=XYDATA
##ORIGIN=ComPlat
##OWNER=
##XUNITS=1/CM
##YUNITS=TRANSMITTANCE
##XFACTOR=1
##YFACTOR=8.4066931e-010
##FIRSTX=3997.453
##LASTX=373.96442
##MAXX=3997.453
##MAXY=0.9026617974595521
##MINX=373.96442
##MINY=0.2686638226990337
##NPOINTS=2559
##XYDATA= (X++(Y..Y))
2559A072195958A071787567A070971634A070364080A069950370A069676761A070024958
2552A071303452A072899656A073741823A073261537A071890233A070689801A070182856
2545A069781624A068866074A067782131A067048020A066508744A066080783A066291502
2538A067341623A068330272A068002850A066249245A064592562A064590577A066000381
2531A067583184A068918045A069986385A069825155A067111761A062075846A057346083
2524A055859210A057058932A057366786A055488608A054642612A057768301A063110156
2517A066930324A067063122A062943183A055415863A047952780A045559786A049478366
2510A055219183A057655213A056153592A054296472A054244997A053802572A050727720
2503A047090406A047658185A053877444A062036850A067894229A069937608A068167625
2496A061937304A050505798A035805737A023440104A018277276A020053782A026770060
2489A037303316A048480287A055146792A053955932A046688395A041016849A042279036
2482A045738954A044586239A039079893A034797164A033000168A031812427A034288730
2475A042591499A050190216A050181708A043250740A034839989A028091663A024696477
2468A026745883A030968913A031286835A027988430A028192484A035066164A043246486
2461A046866499A043486629A031602701A011836520I97986354A006434967A027170086
2454A045127288A054692314A055256477A048738013A038492617A027365419A017031963
2447A010579155A012224988A020639782A029385046A035269438A039724245A043983648
2440A046518090A046109556A044329221A041950337A035744265A024429746A016487228
2433A019031383A026159599A032862052A041565910A052579452A060711348A061692624
2426A055034484A044700532A037563666A034915924A030893474A023682942A020392194
2419A024840762A032110284A039861865A049427246A059339973A066031010A068490368
2412A068152523A065905728A062007355A058545735A057968170A058781199A057477322
2405A054782004A055443798A060373288A065200755A065903601A061464959A054145381
2398A048611738A047286590A048139180A049484180A051108531A050721197A045351691
2391A036888827A031999536A032742370A033367791A027341029A012389977I95292880
2384I89438763I95107686A001580560A004390879A007946514A016142434A024463354
2377A026886906A020053498A004864146I90868845I91595584A007698217A026998005
2370A039432061A041916233A036406484A028715170A025069348A026968017A032281511
2363A039284160A046536737A051416598A050822160A042816327A029122073A018676664
2356A021542144A034839563A048477238A056403094A056946625A052025925A047772123
2349A049449650A055087873A059522686A059992762A055846660A046610120A032671185
2342A019005504A015602165A025530136A040407168A052541591A058773116A058131316
2335A051294364A039492043A023228038A007380579A003237242A009679274A014059776
2328A013704489A018432621A032463019A047697393A057635574A061762603A062231262
2321A060584293A056491438A049769558A043188559A039040543A033202308A018881356
2314I95675464I78492577I85016854A007500473A028929434A042530807A049063876
2307A051865829A053385956A053710471A052049464A048578627A043827945A036367347
2300A023719243A010171684A009389854A022816668A037207883A044092552A041485649
2293A031172542A020047968A016299764A018862283A021015701A021233936A022511012
2286A025230365A027183485A029453112A035135860A042661975A047123375A046410178
2279A042988334A040529473A039671211A038922634A038484534A040178794A043093055
2272A042432892A034453009A022757678A018459705A026061542A037700010A046109839
2265A050121229A051639299A052630005A053954443A055400690A056071347A054465359
2258A048289420A035392169A017700706A005504102A008775210A022722936A036192149
2251A044403881A048806008A051806130A053259184A051649580A047367985A043562139
2244A042680407A042701963A039655684A033547385A029622566A032487621A040668865
2237A049046647A053659351A053835116A052126037A051885894A053810655A055522853
2230A054489961A050425112A045217616A040935667A038344007A037888678A040558398
2223A046174783A052347817A056648626A058638545A059085933A058259364A055775404
2216A051923401A048693203A048406762A050492965A051370157A048863438A045436347
2209A045375655A049201283A053583627A055885796A056440459A056911954A057704277
2202A057762416A056547591A055115808A054734075A054984357A054219898A051960978
2195A050030121A050741049A054133895A057876497A059749854A059479294A058289142
2188A057239233A056457334A055796391A055507680A055814754A056208825A055920327
2181A055054195A054547037A055013568A056254060A057723491A058910452A059432641
2174A058993407A057265185A054327810A051501396A050675465A052075697A054022012
2167A055280867A056027884A056523556A056487467A056029089A055879913A056338007
2160A056839562A056859700A056622180A056649760A056974489A056984770A056002927
2153A054196075A052922615A053583487A055936847A058201012A058891025A057997029
2146A056480802A055198054A054493223A054439267A054970460A055753496A056306810
2139A056373599A055978537A055276329A054612831A054297819A054116240A053721603
2132A053515705A054139992A055225918A055815960A055850560A056201734A057347643
2125A058758085A059552961A059347772A058526308A057926837A058137627A058907545
2118A059350537A058863090A057698818A056539934A055789726A055436850A055343047
2111A055483290A055934861A056560425A056814961A056229528A055064050A054141127
2104A054101067A054989249A056303549A057303613A057617068A057545600A057446338
2097A057077367A056071559A054749106A053851707A053675588A053963944A054444514
2090A055010307A055474428A055501299A054899487A053995708A053623688A054452100
2083A056227826A057900390A058595930A058334449A057750009A057312972A057006607
2076A056586233A055848787A054813414A054008754A054230888A055510658A056794754
2069A057122886A056619060A056011293A055762429A055864527A055983854A055793768
2062A055450036A055544478A056391750A057563538A058210868A057779504A056529795
2055A055376725A055098225A055720030A056654082A057186271A056845874A055711593
2048A054530163A054203945A054927849A056036534A056763557A056843250A056378988
2041A055624951A054991164A054815966A055049799A055373393A055491728A055242155
2034A054738825A054419273A054589507A054990100A055073338A054590854A053796829
2027A053204306A053120642A053392975A053718554A054079513A054583410A054985633
2020A054805827A054002443A053185092A052990326A053433672A054058952A054505702
2013A054674022A054567599A054318451A054165871A054140417A054047962A053926579
2006A054078521A054478617A054694370A054573200A054412608A054279030A053792008
1999A052837888A051931058A051577260A051674041A051863702A052176874A052853840
1992A053615747A053795411A053418925A053388366A054144104A054922389A054909698
1985A054354327A053930195A053751027A053593909A053464372A053416089A053195798
1978A052527056A051653621A051225802A051534152A052144330A052512237A052628019
1971A052769822A052957073A052954591A052620646A052129653A051941410A052383197
1964A053124542A053348449A052647730A051531245A050889658A051124909A051922338
1957A052717710A053144182A053123762A052890493A052867950A053114261A053072075
1950A052394754A051715305A051910284A052880499A053740037A053873474A053244720
1943A052077399A050765935A049815360A049476026A049595424A049981057A050631790
1936A051493242A052250469A052517555A052146244A051393342A050830597A050858887
1929A051219775A051176667A050258140A048735532A047396700A046898121A047270425
1922A048071823A049005524A050062948A050966516A051073577A050210777A049097625
1915A048476032A048235606A047889323A047528506A047717246A048584015A049519418
1908A049797918A049279913A048502975A048035238A047732345A046981076A045767669
1901A044937908A045128635A045938683A046403726A045969384A044945355A044226129
1894A044454362A045369983A046132032A046152664A045445990A044494422A043987264
1887A044289375A044967476A045258455A045044262A044840208A044838932A044654092
1880A044002437A042993439A041835193A040845551A040507635A040881002A041240047
1873A040815064A039608605A038067066A036292050A034009662A031028470A027307918
1866A022743002A017311386A011440181A005839679A000788662I95865055I90671384
1859I85591723I81432788I78481516I76351496I74569814I72752398I70369614I66910972
1851I62204891I56235559I48839761I39810608I29132784I17143992I04678318H92882378
1843H82696539H74655751H69133807H66432605H66617232H69477679H74611367H81466400
1835H89463654H98187506I07391219I16791187I25904784I34193159I41407024I47653084
1827I53024646I57385651I60666328I63157522I65318668I67312558I68796950I69270572
1819I68650184I67296251I65386025I62622146I58753410I54070725I49206463I44682244
1811I40750193I37565018I35448185I34880903I36137914I39048843I43187924I48085158
1803I53207147I58005896I62099531I65320299I67699464I69492351I71008647I72345708
1795I73474671I74499551I75588384I76742801I77852408I78901536I80004975I81325514
1787I82979715I84909581I86865042I88602693I90080917I91386921I92550909I93533178
1779I94327487I94944612I95340242I95512462I95637816I95951058I96508060I97208636
1771I97987914I98822920I99592697A000123181A000433942A000862825A001814534
1764A003342389A005097412A006759199A008305134A009748686A010980315A012111263
1757A013559212A015437320A017212478A018332154A018899152A019443746A020280454
1750A021347095A022492223A023705914A025036521A026327777A027208585A027535583
1743A027702556A028225312A029142847A030071443A030685095A030908647A030827465
1736A030623552A030456293A030293719A030025782A029773728A029868381A030442541
1729A031205227A031713732A031806117A031693384A031678353A031903110A032366025
1722A033003642A033710245A034392033A035051062A035751497A036488021A037077283
1715A037215044A036796371A036185272A035940732A036239015A036756241A037102878
1708A037170873A037083380A036988301A036950653A036983906A037102311A037299488
1701A037534030A037738864A037753469A037396481A036836360A036644571A037160379
1694A038065932A038839466A039266151A039306352A038943408A038370383A037927745
1687A037759354A037823307A038110245A038514809A038689864A038398460A037859822
1680A037455113A037272403A037211995A037334159A037770982A038415760A038984602
1673A039307770A039378601A039245519A039009346A038795082A038613078A038359463
1666A037982906A037540198A037086358A036639679A036259435A036054317A036059635
1659A036196120A036408257A036723201A037084302A037309272A037343305A037369538
1652A037515099A037635560A037513752A037150240A036771485A036597138A036644217
1645A036777441A036909317A037029779A037064875A036892230A036549493A036269574
1638A036248941A036457817A036745960A037050269A037355996A037527648A037422714
1631A037138825A036880319A036658326A036372806A036074452A035906488A035915988
1624A036074240A036347849A036663077A036914493A037069980A037202636A037371878
1617A037485320A037402933A037231068A037283180A037567211A037571749A036886700
1610A035865081A035316942A035621533A036413504A037098270A037401019A037366206
1603A037091321A036647833A036182578A035949950A036187257A036931438A037961211
1596A038932985A039555783A039683973A039398734A039016649A038844430A038883567
1589A038924477A038917174A039042032A039375198A039676316A039646396A039340739
1582A039146895A039311245A039656747A039879163A039890084A039738567A039509485
1575A039472333A039946238A040795991A041419215A041381140A040804145A040125051
1568A039702548A039585633A039553231A039493603A039605060A040001257A040412553
1561A040575913A040591440A040681202A040939496A041389365A041931548A042266557
1554A042181192A041803429A041365471A040967218A040711334A040703819A040750827
1547A040489697A040002530A039833433A040186381A040572296A040497071A040052661
1540A039610307A039382784A039470631A039865551A040214387A040048971A039454820
1533A039116762A039488144A040193116A040426240A039773593A038513745A037288073
1526A036638403A036744684A037416262A038267717A038902214A039031397A038633708
1519A038030340A037640453A037657256A038050476A038706597A039377041A039677734
1512A039316633A038294518A036970576A035978949A035782977A036191653A036575513
1505A036594728A036494969A036734545A037443274A038226878A038633640A038821387
1498A039296639A039942054A040005795A039191138A038002759A036911090A035947327
1491A035218177A035043474A035366857A035639473A035586297A035708673A036691012
1484A038437952A039934752A040111721A038788630A036752696A035047162A034300429
1477A034539366A035309569A035943073A035935486A035239589A034297379A033775120
1470A034080138A035070064A036294886A037351104A037880099A037703768A037255883
1463A037263683A037623578A037321679A035936833A034470663A034085668A034645435
1456A035099488A034863386A034273841A033962654A034225415A034870902A035507242
1449A035952715A036173786A035918895A034994483A033813052A032943021A032289806
1442A031481743A030736994A030583067A031052435A031771588A032538952A033339147
1435A033999949A034228109A033946063A033320784A032483864A031534494A030809809
1428A030736073A031310091A032033852A032399065A032272719A031886732A031543002
1421A031296903A030991601A030588810A030277766A030338245A031139644A033106803
1414A036377344A040491399A044509382A047516240A049329827A050782739A052900210
1407A055754276A058388263A059710575A059286939A057583887A055633956A054216920
1400A052994580A050536569A046010578A040972465A038197454A039117187A043200754
1393A048654917A053406801A056289013A057222857A056561771A055059229A053593413
1386A052319882A050799826A048950576A047186548A045724632A044326527A042723375
1379A040927797A039087692A037251487A035452719A033962654A033069509A032590570
1372A031993935A030943034A029440704A027746373A026379535A025831609A026109612
1365A026768217A027289768A027380025A027242193A027530549A028571382A029688007
1358A029809533A028785149A027690786A027644204A028478997A028956305A028411570
1351A027635057A027712269A028618956A029576126A030293576A031165948A032461671
1344A033969248A035422373A036739508A037745387A038096916A037702633A036909175
1337A036058500A035141887A034204003A033810004A034540288A036028651A037096497
1330A037004467A036011847A034575810A032747262A030671623A029083006A028730695
1323A029387315A029932476A029707222A029301948A029602359A030641207A031814554
1316A032763924A033711096A035012066A036165774A035619266A032672107A029177589
1309A027825924A029096050A031165310A032255915A031919701A030673821A029624977
1302A030012239A032055832A034489736A035830765A035716472A034606227A032960888
1295A031510883A031452106A033292069A035945058A037682781A037892011A037582172
1288A038119037A039500339A040176525A038809050A035774184A032565896A030245506
1281A029025292A028903342A029709278A030486996A030169500A029311238A029697934
1274A031758755A033884167A034538019A033600135A031808243A030505572A031307751
1267A034364453A037414419A037948874A035929531A033211950A031052080A029684108
1260A029763802A031941255A034906565A036049283A034245693A030823920A028143775
1253A028004099A030353843A032644810A031956144A028574572A025800838A025980926
1246A028441703A031121351A032578871A032398002A030860505A028645828A026579832
1239A025421373A025458739A026154494A026582242A026356563A025830616A025359760
1232A024793045A023890045A022999452A022936208A024103316A026013755A027727584
1225A028485874A028095349A027179020A026834084A027526082A028611086A029293229
1218A029462400A029174185A028167598A026561894A025304882A025255393A026225679
1211A027397183A028328119A028957511A028972683A028103220A026907609A026328841
1204A026538213A027014812A027477798A027868039A027796784A026872584A025249296
1197A023413871A021881620A021263644A021968758A023653163A025467247A026813381
1190A027622153A028146399A028756080A029688007A030822005A031839013A032551787
1183A033008109A033333475A033584395A033905295A034699249A036052403A036975256
1176A036287156A034465558A033070076A032161900A030470972A028477295A028442270
1169A030919564A033868710A035627278A036607774A037601953A037972200A036146276
1162A031764427A026947810A024355512A024220091A025014187A026243972A028272744
1155A030094769A030023655A028430146A027114783A026398040A025068993A022837513
1148A021221954A021551645A022770653A022466770A020280879A018788688A019824841
1141A021908067A022889909A022732366A022511934A022733288A023442160A024467466
1134A025100826A024723136A023879126A023881253A025445267A027696245A028359103
1127A026140810A023155718A022926069A025634078A028090386A028158523A026617622
1120A025050275A023676419A021694441A019121570A017450140A017880441A019523510
1113A020339940A019195591A016195894A012243069A009362274A009767972A013223707
1106A017340240A020540236A022522994A023143593A022643456A021998253A021864533
1099A021912036A021371059A019373624A015472274A011005485A008532160A008570872
1092A009385742A010528815A013343672A017327410A019557259A018289046A015078275
1085A013213000A014273686A016902781A018988417A019745786A019518972A018830449
1078A017927661A016732192A015480002A015199445A016058700A015931077A013127210
1071A009661619A009031235A011340778A014127274A016053453A017109033A017342228
1064A016948796A016470778A016204757A015938805A014958593A011785400A004925547
1057I95698720I90147139I93335009A002292764A010552352A014763826A015379677
1050A014659957A014504257A015296297A016353862A017107899A017219001A015864501
1043A012146218A006159515I98781726I91461013I87501382I90009803I96629088
1036A002225124A004565367A004899171A005199651A005034097A001915640I94889451
1029I87313706I84052099I84946733I86751812I89157922I93509639I98389358
1022A000736549I99653672I96799039I93469367I88679480I80660175I69293116
1015I56421462I43068811I27322387I06181428H77708695H41358674G98925169
1008G55491316G16373870F83162371F54657449F29465679F08452485E97307988
1001F01050519F15792200F35316252F57839575F83270779G09835129G35853680
994G61540979G86307695H06935611H20104911H24715205H22358300H17653848
987H14765183H12301714H06803380G97267210G83578203G64591371G41403772
980G19845416G03401960F89728763F77267343F66159857F53843642F36275122
973F13111771E89885106E71577970E56585263E41297181E24940897E08820858
966D94349595D83405501D77277066D74856137D76040474D84848309E02266128
959E22357392E41514990E57628790E67537440E69863822E66103601E58825819
952E49276497E36718046E22036137E13262973E18023330E31532567E46314838
945E59021542E68226425E73586430E76551208E79628259E83503482E86432809
938E87306421E88207365E92854741F03091274F19241412F37140474F50355222
931F57600070F61787508F65289329F67449411F68256411F74434406F92511077
924G15559993G36167135G52472263G64320031G73087842G80662737G86435317
917G89600286G94376205H06993325H24209819H37291201H43472883H46649335
910H52688224H61555084H67908560H67768175H59609407H45020023H36824386
903H45539730H54996987H55584901H53107322H59635428H75337681H89223653
896H96335632H96725519H90994274H81042976H74959706H82842525H98554208
889I09969903I13641602I11680542I08175105I05388537I03088070I02890751
882I07119383I12542419I13537663I09708490I08403975I14819277I23214571
875I27485389I27071396I25010788I24488741I25898828I27661650I29029268
868I30742033I33236558I35424363I35995899I35283978I35060780I36497810
861I39070681I41732107I44093408I46151960I47781770I48907756I49678880
854I49916541I48362382I43037189I33473510I24802763I25394223I32292789
847I35509161I31938565I27087490I27953339I32710469I35875437I35206553
840I28930573I12739311H86687509H73792311H87036344I04795447I16777786
833I22870274I25235545I27087845I28651292I25421662I13770928H95870448
826H77559519H66043144H73007010H95354498I13233921I19028197I17229641
819I17583368I23279375I27057854I23658982I15328561I07316276I00242867
812H92426482H87466077H88826747H92624226H96991541I04639677I13801770
805I17656964I11555683H95290829H73350953H62583651H81282481I09639857
798I26552185I31085834I27090610I19477145I15463700I19635539I26432929
791I26458169I15536515H98380854H87959906H90264769H96750476H98409286
784H92798148H82418464H71438458H61691286H52146466H42173048H34311711
777H35030791H48449595H66649989H78339364H79154092H70604090H58822473
770H49343308H40074011H25522063H04223135G86520824G91032778H12806319
763H34554761H50665336H61335502H68862751H77487767H89497970I02423511
756I12839000I19298757I21172682I17747009I10314626I05090964I07128954
749I11977690I13727466I12114246I10379714I09335832I06141935H99621913
742H92300987H85718996H77869500H69651388H69120549H79207410H92083887
735I01018103I05085717I06595492I07107755I05623788I01041782H95068836
728H90051214H83678027H70138197H46716481H17566427G90273707G71317930
721G65519258G71886985G82811475G91529159G96559330H00314196H03859411
714H04258657G98360723G85859881G68471805G47428974G21898083F90157646
707F53377678F16561834E83243061E54960309E36954398E36399275E55189250
700E90437392F36782847F84267653G22866384G49604866G66567535G76951189
693G83675338G88577745G92494410G96116551G99888577H03275609H04762624
686H02278380G93842175G79215426G61805512G47267532G37868911G30742609
679G22632055G12930047G02688053F92898411F83781694F74813233F65064075
672F53578826F39571046F22751528F04005052E85457241E69016834E54954743
665E42675398E32182165E23801086E17173505E11675668E07551758E05812226
658E07098698E11099842E16815737E22903510E27974273E31003926E31533807
651E29507126E25077950E18613301E10889619E03357620D97946317D96213452
644D98771929E05581549E16261252E29910165E45090690E60258878E74204832
637E86350386E96892576F06529000F15730799F24096242F30346842F32881284
630F30367404F22214095F09072872E93089389E77260435E64129776E55074496
623E50544994E50404467E54018915E60457296E68809376E78259684E87905751
616E96708871F03734421F08338546F10098461F08792599F04603460E98179862
609E90301297E81438833E71626467E60690951E48585031E35692424E23129331
602E12796547E06799033E06549389E12398047E23928709E40305872E60389408
595E82793227F05992560F28444274F48742782F65869232F79423739F89561365
588F96630378G00916083G02722512G02533347G00964795F98574564F95738226
581F92693364F89664385F86862432F84337278F81896000F79185723F75805356
574F71351684F65428721F57676998F47864030F35938553F21941338F05954415
567E88255153E69375595E49836583E29955081E10019730D90448209D71643736
560D53841099D37143780D21569681D07011706C93258002C80146557C67713923
553C56171137C45764936C36735960C29367530C23942189C20645238C19583241
546C20885983C24793325C31681788C41961820C55909085C73603136C94884941
539D19157403D45281774D71898945D97892220E22517842E45298537E66038726
532E84878721F02092628F17776447F31870797F44469270F55896805F66468278
525F76346617F85596842F94207251G02131832G09438365G16315944G22881698
518G29081885G34792711G39982057G44788322G49378479G53724594G57698548
511G61396978G65110367G68949043G72719155G76192615G79361412G82399183
504G85418166G88367381G91213786G94029213G96756578G99144892H01092909
497H02825669H04602954H06445041H08171493H09511318H10152337H09829736
490H08433474H06024457H02744628G98693392G93837354G87949275G80630902
483G71487243G60316086G47162101G32401419G16933991G02204931F89836392
476F81005336F75971762F74218299F75090386F78120074F82740224F88119443
469F93433788F97950563G00780096G00972381F98038764F92197054F84110039
462F74619884F64838112F56295272F50588629F48660607F50569911F56005994
455F64713184F76304644F89996629G04745967G19585988G33863193G47241156
448G59502493G70429819G79906786G87941901G94527721G99690621H03715198
441H07037071H09828601H11932105H13262073H13997888H14287095H14018733
434H12998035H11197779H08863917H06499425H04651025H03618205H03415001
427H03903512H04814808H05744254H06195471H05541973H03084459G98428079
420G91804965G84015665G76306837G70350197G67900765G69989450G76262878
413G85156468G94800195H03818359H11467629H17460855H21888081H25107927
406H27526375H29468506H31118170H32447997H33308952H33636092H33403606
399H32357881H30068049H26464555H22219971H18363076H15568000H14041493
392H13913586H15205694H17315862H18968503H18927806H16659457H12329082
385H06440152G99666656G92979872G87693817G85055930G85586627G88852630
378G93898117G99749469H05549488H10653894H14949598H18920077H23131976
371H27642440H31885961H35025758H36446482H36004199H33872477H30297273
364H25556308H19980479H13985906H08259766H03777166H01330358H01080501
357H02586589H04996528H07270691H08667662H09121572H09010754H08754374
350H08780820H09487849H10855892H12266121H12934792H12363468H10125891
343H05393718G97096338G84640022G68325394G49212783G28907397G09373632
336F92440672F79060369F68981166F61373586F55985503F53650791F55602139
329F62438170F73815153F88735647G05689523G22699482G37779717G49570693
322G57540863G61757016G62582805G60410456G55472456G47932090G38270780
315G27631172G17769635G10598524G07534449G08967650G14198399G22010249
308G31450915G42054009G53406672G64774226G75257567G84204971G91402954
301G96925891H00866662H03183933H03740935H02536887G99885242G96125910
294G91098998G84118188G74565780G62476098G48687970G34590855G21500964
287G10052583G00344691F92800993F88583351F88948635F94357846G04225622
280G17227098G31679572G45867158G58433512G68648350G76258908G81161812
273G83338131G83002200G80634376G76774787G71717814G65419499G57895867
266G49810836G42386962G36403946G31350944G25897136G19325142G12256129
259G05856921G00818667F97479987F96477302F98633485G04269439G12890554
252G23411190G34616805G45630560G56104968G65978912G75130016G83340400
245G90454293G96354000H00896795H04142804H06545511H08605056H10289388
238H10958415H09906451H07076847H03437831H00545550G99376244G99673675
231H00786189H02803973H06174768H10420132H14199957H16812604H18876544
224H21377379H24509165H27518647H29492826H30215098H30189007H30000125
217H30000480H30473818H31531170H32730113H33311789H33103906H32827886
210H33235428H33874604H33097879H30917306H28879316H27633152H26999577
203H26662441H26480012H26245541H25412804H23488894H20688855H17868680
196H15668538H13938686H12180969H10342778H08768271H07451844H05974188
189H04349765H03291065H03451019H05049066H08162276H12541148H17233829
182H21089164H23535830H24683866H25144867H25758235H26861745H28052534
175H29094572H30309964H31594485H31996638H30843356H28502191H25743417
168H22813061H18961909H12794266H03664078G92737317G82087288G73104929
161G66598519G63711697G65065914G68845243G71224766G69774973G66292863
154G65395960G70188541G80204926G92748734H04491781H12905438H17756018
147H20530390H22225289H23029807H23813268H25807654H28751339H31123984
140H32037265H31823355H31326265H31135966H31198643H31270748H31839521
133H33778530H36735618H38852592H38712135H36927619H35215421H34385732
126H33861558H32808176H31167942H29739066H29532743H30874907H33109081
119H35474353H37862950H40232759H42002459H42783012H43080869H43556688
112H43971675H43417650H41674327H40171004H40873566H43600009H45759667
105H45276048H42628235H40444824H41189146H44640984H48241074H49873012
98H49453418H48200519H47183225H46424792H44796116H41354136H37361039
91H35664652H36928541H38573241H38353163H36597715H34851342H34104535
84H34591063H35880547H36832611H36364307H34581137H32970965H32811225
77H33209050H31818888H27482345H20974446H12948051H02795394G91053977
70G81177339G75857819G73937666G73273037G73351737G74547135G76519612
63G77215439G73684619G66225578G61657045G66754857G79360703G93183998
56H04716822H12844889H17092310H17783811H16214267H14161671H13973427
49H17551822H22966917H24914721H20876460H14940381H13783199H19063156
42H26771984H32719903H35178623H33754355H29187666H23956418H19532240
35H13264980H03089422G96917312H06831315H25598636H37901166H40575497
28H38856421H38129114H39118473H39527999H37930874H34173808H27911157
21H18230632H04141032G86807266G74265231G77014008G92050780H07896892
14H19283376H27735179H35002929H38497873H34853114H28384778H29387821
7H38428389H45857510H46673728H41672980H31035215H17294237H09858451
##END=


$$ === CHEMSPECTRA PEAK TABLE EDIT ===
##TITLE=X7382
##JCAMP-DX=5.00
##DATA TYPE=INFRAREDPEAKTABLE
##DATA CLASS=PEAKTABLE
##$CSTHRESHOLD=0.93
##MAXX=3997.453
##MAXY=0.9026617974595521
##MINX=373.96442
##MINY=0.2686638226990337
##$CSSOLVENTNAME=- - -
##$CSSOLVENTVALUE=0
##$CSSOLVENTX=0
##NPOINTS=26
##PEAKTABLE= (XY..XY)
398.0454621657541, 0.6509010175017605
457.5398016340887, 0.640301702476789
467.4555248788115, 0.6500669104563944
590.6937994917903, 0.6434448935699876
599.1929908444095, 0.642028985355919
735.180052486317, 0.5855070929030016
774.8429454652069, 0.5788708905626578
814.5058384440968, 0.5948024970420602
841.4199443940574, 0.5495041594509242
912.246538999218, 0.6599724269845083
961.8251552228303, 0.6455506062610221
1021.3194946911649, 0.5453090649108712
1043.984004964816, 0.5667946322097037
1147.39083308835, 0.2686638226990337
1222.4670233698198, 0.4258405253315516
1253.6307249960905, 0.46270814349380773
1286.210958514464, 0.41715142030555813
1306.0424050039092, 0.42522081586165333
1366.953276364347, 0.45093440839875026
1393.8673823143076, 0.6435485464145719
1457.6113174589523, 0.6612039184127114
1716.8366537138386, 0.4314844293604586
1736.6681002032838, 0.39919698104105544
1791.9128439953088, 0.5021384941294482
2930.804485246295, 0.7894295429011083
2980.3831014699067, 0.7306541178283632
##END=


$$ === CHEMSPECTRA PEAK TABLE AUTO ===
##TITLE=X7382
##JCAMP-DX=5.00
##DATA TYPE=INFRAREDPEAKTABLE
##DATA CLASS=PEAKTABLE
##$CSTHRESHOLD=0.93
##MAXX=3997.453
##MAXY=0.9026617974595521
##MINX=373.96442
##MINY=0.2686638226990337
##NPOINTS=72
##PEAKTABLE= (XY..XY)
3852.966747005473, 0.8389764996065957
3749.5599188819388, 0.8317908021784635
3735.394599960907, 0.8329930282266469
3648.9861545426115, 0.8225886795467119
2978.966569577795, 0.7283833002068525
2933.6375490304927, 0.785925683657187
1868.4055661688817, 0.8323863121416041
1844.3245240031274, 0.8301621054299864
1828.7426731899918, 0.8272623990703817
1791.9128439953088, 0.5021384941294482
1736.6681002032838, 0.39919698104105544
1716.8366537138386, 0.4314844293604586
1653.0927185691944, 0.7034925791697937
1647.4265910007816, 0.7171811437416878
1636.094335863956, 0.7355517723208228
1623.3455488350273, 0.7590325446485517
1616.262889374511, 0.7636673428645072
1607.7636980218917, 0.7771893119992387
1595.014910992963, 0.7860769007306618
1576.5999963956215, 0.7774533006573036
1569.5173369351055, 0.7793740005279319
1558.1850817982795, 0.7345703800123446
1541.1866990930412, 0.7280558922967106
1534.1040396325252, 0.7710868094110177
1521.3552526035965, 0.7460654945999968
1507.1899336825645, 0.7251476027034508
1497.2742104378417, 0.769602237009047
1488.7750190852225, 0.7464806414846848
1474.6097001641906, 0.7013802504112894
1457.6113174589523, 0.6612039184127114
1436.363339077404, 0.7608821961931148
1417.9484244800624, 0.7306429722346511
1393.8673823143076, 0.6435485464145719
1366.953276364347, 0.45093440839875026
1306.0424050039092, 0.4252208150209841
1286.210958514464, 0.41715142030555813
1253.6307249960905, 0.46270814349380773
1222.4670233698198, 0.4258405253315516
1147.39083308835, 0.2686638226990337
1043.984004964816, 0.5667946322097037
1021.3194946911649, 0.5453090649108712
978.8235379280686, 0.6754063345343193
961.8251552228303, 0.6455506062610221
927.8283898123532, 0.6842321727422457
912.246538999218, 0.6599724269845083
879.6663054808441, 0.6734437920301243
869.7505822361218, 0.6798949815500619
841.4199443940574, 0.5495041594509242
814.5058384440968, 0.5948024970420602
774.8429454652069, 0.5788708905626578
735.180052486317, 0.5855070929030016
702.5998189679435, 0.6720110754738716
681.3518405863952, 0.6977556323836638
671.4361173416728, 0.7001328442723787
638.8558838232993, 0.6753021453427152
599.1929908444095, 0.642028985355919
590.6937994917903, 0.6434448935699876
566.6127573260355, 0.6987104990534034
545.3647789444876, 0.6973627186802173
526.9498643471461, 0.7063059782146872
518.4506729945265, 0.7065361702851515
501.45229028928816, 0.7025176263882301
492.953098936669, 0.7012060839063209
483.03737569194664, 0.7001188378810047
467.4555248788115, 0.6500669104563944
457.5398016340887, 0.640301702476789
443.37448271305675, 0.6842824792344253
434.8752913604376, 0.6841225603929226
419.29344054730245, 0.6699439268060947
410.79424919468283, 0.7045894239572913
398.0454621657541, 0.6509010175017605
385.29667513682534, 0.6963976597357632
##END=

##END=

