##TITLE=X9612
##JCAMP-DX=5.0
##DATA TYPE=LINK
##BLOCKS=1


$$ === CHEMSPECTRA SPECTRUM ORIG ===
##TITLE=X9612
##JCAMP-DX=5.00
##DATA TYPE=INFRARED SPECTRUM
##DATA CLASS=XYDATA
##ORIGIN=Default
##OWNER=
##XUNITS=1/CM
##YUNITS=TRANSMITTANCE
##XFACTOR=1
##YFACTOR=1.0192053e-009
##FIRSTX=3996.5625
##LASTX=399.65625
##MAXX=3996.5625
##MAXY=1.0943633558140566
##MINX=399.65625
##MINY=0.6334585093321629
##NPOINTS=1765
##XYDATA= (X++(Y..Y))
1765I60991379I61480401I60715697I59870873I60047721I60342702I60277437I60768272
1757I61662688I61879128I61608534I61825266I62078082I61136647I59725956I59216582
1749I59653205I60417734I61004186I61365309I61796201I62556987I63222682I63439940
1741I63463157I63523861I63429998I62431252I61136179I60869854I61291623I61848366
1733I62627457I63012674I62961971I63370464I63898143I64275992I64915077I65068299
1725I63888844I62221478I61400515I62090129I64525942I67903716I70482632I70945396
1717I68472916I64816185I63704160I65635979I66917074I66656013I67745640I68702807
1709I68635494I68712339I67172872I65928854I67364516I70400115I72951136I72344508
1701I70727202I70531114I69022583I66543144I66880816I71784781I79677209I79528666
1693I71264939I66008681I65870899I68948721I72744638I76102821I77316546I74969215
1685I71799226I69406573I68023778I68091909I69118435I72180642I76688513I76845185
1677I74388494I71656297I67749558I65817915I67429431I70336429I71390674I72692999
1669I73528173I71132713I68777955I66286936I63526434I62669856I63188002I63665328
1661I63877616I64463717I66503493I67446683I65210818I63573337I65169296I68391393
1653I69458797I68568943I67384751I66962631I68694444I70328885I70626614I73302785
1645I79719725I83584883I81907518I80740111I78880575I74496743I73053303I76563713
1637I81136557I80276235I74326913I68685906I66304656I66769642I68376188I69297973
1629I68584265I67488322I68148051I71739224I75354199I73605953I69311131I67135678
1621I67485573I67700843I66314715I65294798I66188687I69686056I74706751I75996735
1613I70824281I65574222I64256049I66635135I71593079I78258331I81473235I80119856
1605I79071224I74681779I68000327I64274471I63575793I64603020I66719290I68364667
1597I69421193I73817189I81457444I82972348I75060797I67460835I64804723I64890164
1589I64641969I64804430I66507645I69989867I74890850I74489667I68657016I66340447
1581I69176624I73348810I74051115I73036519I72844349I71912271I70209699I68447827
1573I66421034I65229474I65367900I65986809I66998364I67957109I67560722I67611951
1565I70268766I72118652I70018874I67211704I65505448I64578575I64055750I63701060
1557I63923465I65614282I69053345I71425646I69636113I66780929I65447142I65084030
1549I65395854I66158452I66189155I65328717I64956424I64966541I64379212I63959022
1541I64321607I64802618I64860046I64850748I65625569I66713266I66711395I65925404
1533I65086545I63947326I63206131I63828023I64904375I65175554I64919756I64561147
1525I64273418I64995840I66462615I66561448I65401585I64812852I64853555I64746007
1517I64606705I64438687I64087096I64412897I65256200I65050638I63976449I63746734
1509I64638635I65341115I64904902I63960075I63921945I64883731I65385853I64676590
1501I64120548I64789108I65505740I64885954I63689890I63460116I64182421I64944260
1493I64913615I64129145I63280227I62633831I62537161I62998288I63472164I63686615
1485I63731704I63779952I63857966I63809543I63540119I63153790I62782725I62339669
1477I61558357I60749148I60427676I60280419I60069710I60336561I61265189I62220367
1469I62529150I62312885I62571841I63258004I63318650I62885594I62559735I62479733
1461I62521488I62626521I62858985I63221278I63835451I64215697I63769250I62983317
1453I62601374I62549033I62523009I62583537I62852377I63298298I63517896I63187183
1445I62621024I62426982I62496107I62508096I62868108I63626613I64058382I63920073
1437I63759425I63887733I64056686I63838901I63415612I63318591I63343387I63104257
1429I63032558I63374675I63423682I63140983I62943549I63049284I63469298I63277888
1421I62427333I62097732I62323061I62723834I63149463I63111567I63081390I63483801
1413I63689598I63476257I63041564I62601433I62326628I62336278I62882144I63612344
1405I63576144I63135018I63243325I63595852I63819602I63998614I64019024I63766793
1397I63675036I64541615I65895520I66237870I65501413I64669221I64028381I63562401
1389I63476784I63699774I63479474I62574414I62113288I62432012I62650148I62669037
1381I62765649I62695003I62196039I61629880I61609470I62044747I62227502I62005038
1373I61917199I61956031I61787663I61827196I62545349I63371692I63530762I63149872
1365I62820914I62748572I62969281I63196072I63161393I63158293I62819218I62549735
1357I63274379I63806970I63336194I62974077I63078349I63279643I63572518I63430583
1349I62997762I62737461I62325049I61996500I61913339I61731696I61425136I61274722
1341I60993543I60395394I60513819I61487185I62183290I62074047I61434259I60965413
1333I60664116I59971403I59230852I58787855I58097948I57056276I56641584I56851298
1325I56797671I57058148I58106662I59027102I58870840I57926305I57741913I58545741
1317I59415244I59994211I59812216I59274070I59174944I59274596I59014178I57773493
1309I55920916I54691285I54353612I54593679I55397098I56467777I57355584I57820044
1301I57850279I58014203I58379595I58375326I58056134I57689865I57375585I57212129
1293I57243417I57090605I56159345I54466833I51571706I46174625I38780927I33140563
1285I32883829I37240641I42531579I46481419I48698101I49530468I49588248I48870914
1277I47031496I43936363I39703999I34662076I29171307I23574570I18404513I15680211
1269I17186227I21215660I24548696I25554402I23892124I18812890I08995835H95656675
1261H84655780H81126188H83121518H84661394H81909957H73850447H60955571H47145225
1253H41096075H48201225H62760427H75289268H82477111H85523470H85383524H82542727
1245H77599754H71652771H66046326H60356311H53712872H47534829H44210390H45088548
1237H49511152H55550653H62445387H69846161H76961370H83834700H90051283H94750680
1229H97877627I00025944I02220111I04599372I06856582I08923494I10394303I11048594
1221I10286756I07255836I01900919H94769452H86915797H79314783H73641844H72744270
1213H77070380H83411411H88833932H93016060H96667528I00003253I02818494I05110618
1205I07055420I08905423I10909642I12924213I15014809I17281084I19095180I20341654
1197I22125340I24936837I28187940I31619810I34925476I37379476I38816191I39839676
1189I41153521I42702637I43918175I44881658I45804086I46418668I46869151I47566543
1181I48416688I49085366I49703106I50345759I50641792I50758287I50980575I51108942
1173I51271872I51726390I52193716I52323018I52492264I53076377I53388902I53100997
1165I52842275I52977368I53551422I54165828I54309108I54404784I54892578I55281304
1157I55543184I56088934I56349352I56025364I55674943I55338265I54705320I54030385
1149I53892954I54218813I54659120I55345283I56231570I56646555I56329644I56009808
1141I56060629I56205955I56407716I56855041I57491788I58088299I58363454I58216841
1133I58409011I59083420I59471211I59692037I60014855I60284981I60463642I60577096
1125I60614115I60503292I60153631I59637942I59140732I58698436I58384332I58360706
1117I58635101I58799200I58685570I58762941I59043945I59215237I59402437I59742623
1109I60192755I60621249I60733183I60673239I60894592I61352502I61822342I62225104
1101I62574297I62874834I63226541I63512399I63299292I62884834I62699389I62726875
1093I63206365I63505089I62512833I60989039I60183808I60102519I60538615I61155595
1085I61542040I62187442I63427016I64443541I64699749I64184351I63087238I62583128
1077I63182856I63347715I62667985I62450843I62854658I63665913I64556235I64512959
1069I63906155I63713049I63792116I64061540I64240376I64342427I64885603I64924317
1061I64268272I64190316I64690041I65363630I66011430I66062543I65819084I65916514
1053I65982306I65746158I65406322I65036310I64800746I64581499I64034054I63353856
1045I63074489I63387892I63595033I63614624I64178854I64677467I64817998I65545215
1037I66536301I66825843I66554314I65703876I64480443I64079260I64761213I65505273
1029I65894876I66457819I66937601I66985498I66794146I66727711I67229833I67462122
1021I66648352I65647558I65151927I65105376I65707794I66821340I67973192I68827899
1013I69406865I70231805I71138327I71335877I70868844I70818901I71027329I70619655
1005I70149054I69749099I69108200I69047964I69851383I70640065I71281197I71524422
997I71001071I70663165I70548424I70026886I69891209I70583104I71165111I70998381
989I70258239I69511021I69440083I69840623I70127533I70384734I70645971I70873406
981I71057798I71166456I71455998I71859170I71910224I71521439I70820655I69752725
973I68685613I67911844I67102110I66364541I66082368I66641042I67845293I68287179
965I67925120I67605986I66844440I65609136I64556820I64430675I65391468I66734554
957I67778682I67936582I67168077I66533143I66705605I67437033I68084365I67749500
949I66745899I65857507I65719666I66770344I67585518I66979065I66421093I67233635
941I68195070I68398060I68573212I68888778I69103639I69647400I70244437I70191921
933I70554389I72172280I73726601I74053688I73997545I74872487I76190251I76591141
925I76123932I75915563I75252090I73773210I72689081I72116196I72882362I74420834
917I74611777I74170943I74740436I76350197I77726676I77228882I75467302I74904535
909I75516076I75758072I75592336I75560639I76219140I77252976I77491347I77988030
901I79763704I81439315I82073721I81689733I81202347I81133808I80659932I79396791
893I78112128I77067122I76214696I76606346I78335469I80942164I83966067I86021106
885I86795167I86747212I85774079I84108059I82077114I80988832I82548124I83796938
877I81409139I78284765I77222156I78239442I80010905I80398052I80627651I82634794
869I84593104I83809219I82365193I82974922I82430460I79691537I78433074I78686650
861I77039285I74240595I74653357I77973117I81133223I82831058I82566955I81195096
853I80185531I79906749I79982717I79701011I78965841I78799812I79633290I80992107
845I82020269I81866698I81558384I82611869I83880215I83765826I82695731I81774531
837I82044716I83035743I83299261I83416574I83677636I82583447I80468639I79755984
829I81003336I82630115I84441053I86343338I87190502I87078802I86460887I85728582
821I85799694I85886130I84101627I81905530I81893015I83387685I84829136I85282251
813I84708782I84813113I86197369I86892013I86168012I85470444I84628662I82855503
805I81876523I83147794I84305844I83026386I81180593I82380516I87231322I89980420
797I86486853I81749384I81180593I85229501I89102144I88427970I87459166I89598067
789I92207161I92920753I91671471I88889389I85794783I85631386I89352212I93484631
781I94292144I92457813I90057733I87656483I87611919I90830741I93638320I94589813
773I95141529I94524081I93449892I92567641I90340549I88058600I87410860I87917310
765I88839328I89860065I91437077I91622580I88283170I85445530I86876106
758I88842136I88254046I87855319I88073924I86964296I86049879I87285241
751I88452299I88478031I89220278I90128144I89817022I89282853I89119572
744I89398178I90989343I91850423I90325110I89087875I89604852I90965131
737I91907735I92315937I92717939I92838411I93830959I96128812I96530815
730I94748767I93402874I92775952I92577115I92685072I93108829I94218106
723I96494089I99078620I98465032I94987255I93062629I92297691I91161395
716I91180109I92421321I93228482I93195031I93421120I95455106I98650535
709I98679074I95793363I94683736I95128546I94943393I95040824I97278792
702I99413835I99218857I97821384I95701314I93588610I92312545I91976861
695I92293713I93183919I93921722I93312462I91852179I91236368I92128210
688I93475391I93565569I92778057I93085203I93072220I88699675I82551515
681I77922648I73992341I69999692I64730802I57991161I52965262I51071105
674I47833219I40232788I32874238I28255896I26564319I25916344I24190380
667I22550968I21410345I21152968I23142333I24668524I21377303I14718191
660I06948925H96825662H79623740H58062082H33602374G98189374G64444326
653G41222027G24422809G11465884G00034214F93242291F95762551G04491381
646G07132289G03168588F99653792G01736377G13165415G32024935G52734343
639G80858911H09709117H28059323H42291729H52861089H64155620H77102428
632H90909031I05531684I09363801I06007724I05810992I09813992I14740472
625I20012228I27272705I31455301I32223807I35096476I37092625I35120103
618I34099717I38519105I46480249I43977007I38582558I37341347I29925893
611I17402199I08673193I03672207H96803497H70870114H25688366G85391987
604G54289132G32339683G15230805F94156474F69972155F51952428F41251894
597F36347051F37581245F45964684F59601515F74202296F87982641G01207236
590G14051819G26370535G38446145G50080920G60930524G70808282G79340907
583G85775918G90022843G92822352G95235182G98103173G98690151G95160326
576G96703886H08619607H23368698H34894347H47172595H61663957H84020964
569I05371270I07435783I07783046I11463462I15929810I20217439I26536248
562I37233448I50631733I56771530I51679780I49832525I52692680I53510134
555I54401743I58871892I64613371I70043495I71836596I67781314I61812693
548I54440340I47695378I43850103I42146712I30172393H96834609H64557972
541H37003014H15044033H11466018H29508494H56039558H86568242I13724415
534I27096442I31337169I31683613I27508035I17719286I04864878H87981389
527H52210717H02530923G63809743G37386460G21506571G20308344G28478325
520G32000724G21784183G16037324G22612749G36404380G54707684G76148987
513G97596372H14015402H21232135H24486981H29846049H33610737H32094019
506H21411556G99253211G69749065G44752028G43720824G75085501H17845764
499H48435210H71636455H90683292I04529662I13929042I19210739I19918716
492I17478342I10696653H95971189H68431435H28968066G93308977G78179757
485G89489492H09162023H17607978H11366483G96767455G85898261G88077983
478H01520597H14334711H13671589G96461656G77066386G71539300G81588701
471G98232183H15349598H30160913H41394916H48739548H52752898H54417867
464H53355024H49152368H46439120H52888575H67476959H82696592H94861795
457I04010698I10805019I16342807I21327652I25453814I27983665I28776147
450I28144021I23647379I09172567H81133089H49700808H35196638H43598089
443H62061748H79123782H92090474I02159349I11178774I19599875I26648357
436I31465185I33481744I32993482I32998745I37542581I46000350I54156062
429I59959824I63510352I64778055I64310262I62655762I58847740I51957684
422I42670765I31371673I14621463H84036988H34863761G80863180G48243315
415G48420982G69796552G95554315H16564610H30117169H36074620H32548830
408H11013430G66675862G23087151G16297742G45549950G80672121H06679074
401H27289823H44947959H56462379H57545340H44580461H14402140G65836887
394G07027373F59529466F44994651F65277611G04541909G47958159G88614083
387H23289689H49553201H65692104H70191670H60104548H30753389G81968831
380G30088789G02993963G11174646G35842256G50372217G40742830G10644161
373F77187776F56601882F52178225F58308314F70032975F84492290F99493261
366G15242502G33538319G53743207G73188244G90223493H04855972H17568562
359H27625331H30441800H15619140G73934585G12644637F56677323F26232619
352F21521993F32318729F49428893F65867924F75894985F75951419F67155160
345F54667197F44855290F43757241F52680640F67764069F85838417G05438548
338G24849490G43383094G61385042G78129404G92879840H06172098H18264725
331H29142283H39397539H48551471H55097012H57662069H54358098H42620571
324H20283740G89457503G57149871G27066641F98930025F80298992F82038114
317G02124811G30155048G58893087G83940710G99914169H01741248G95474781
310G97402623H12391956H31173053H47442545H60308239H66748514H60850070
303H39104780H06070925G74068332G53833853G47738795G52830369G65169555
296G81126405G97890183H13390352H26339850H36963071H46226364H54511203
289H61326461H66284989H69095142H68175579H59790912H40057795H14012361
282G97501164G99585269H13336549H28666302H41394214H51820119H61134992
275H69368601H76448897H82644017H87970453H92792310H97177954I00248174
268I02190344I03858938I04936811I03572262H91796253H55801480H11290691
261H04306480H36719905H68681561H85596221H94995425I01275869I05760756
254I09230873I10859465I07409057H95365203H77673967H66103580H68255757
247H78835527H89016453H94255809H92896875H88668605H89410910H96343891
240I04006487I09818553I14265076I17504951I18919326I16040107I04481415
233H83262693H64970442H64045908H75265933H87556638I00316948I13188257
226I22896477I29755946I35758428I40435778I43047152I44364857I44870078
219I44495329I41723131I34639736I25617328I19628122I17229796I13263288
212H97617559H54860454G81296996G13897077G01123608G37702143G84195748
205H22172283H50737041H68997244H79954687H90988215I03335119I14379232
198I23600886I30414331I34411424I35727667I31087570I08023405H46774511
191G57702462G03861711G22814451G79492198H32525671H69278540H87439382
184H89116865H87159607H96187219I12971875I26571746I35149753I40791521
177I44948327I48261420I50541321I52801982I56135368I59506943I61575199
170I62101240I59614315I53256558I48749740I51477493I57613137I62613363
163I66414601I69418971I71326696I71830046I70890716I67400658I58923181
156I39386035H98520514H41274619H04025476H13567375H46741410H69807797
149H81639656H96551325I17241667I37169996I51653931I60967577I67367206
142I71847883I75592102I78783612I80849588I82651520I84294148I85698639
135I86830139I85578752I74839036I42168760I07488241H98226059I21517658
128I53147139I72254739I81471246I86163450I89489292I92117801I89967788
121I75011907I38284185H91903216H69356671H69056252H64828391H69351115
114H98126933I31700631I54078340I67668035I77609187I85088676I89333381
107I91174729I91865629I90469910I87214011I86247196I90972734I98688197
100A004375171A007217606A008926902A011230839A013968943A015483146A016578855
93A018684539A020043415A019889843A020868823A023356275A025307217A026583284
86A028014793A028906637A028423228A023804945A009388673I81169716I42726147
79I13677688I15087209I41005329I69084457I88208899I96356656I91663984
72I70230519I34941266I08264934I08689919I28037234I50841331I68887082
65I80162138I88541425I96561693A002865763A006834551A008591335A009658623
58A012883059A016805295A019465151A022820818A027126343A030291010A031539590
51A031824044A031268938A028845816A023987174A013758176I91734514I57132477
44I20916176H94586990H85762075H97788735I21479762I44684575I66114825
37I86837976A000498550A006712208A014268602A022598238A026019405A029698242
30A039119960A046923263A045395142A041875608A043783508A045420640A041129970
23A036672393A040396612A051011354A059560412A064173315A067360673A068552994
16A067728990A065652429A061501998A056410364A057003601A063268841A059905687
9A047557085A040670072A043467708A053774487A061803996A065201186A069848943
2A073741822A070593063
##END=


$$ === CHEMSPECTRA PEAK TABLE EDIT ===
##TITLE=X9612
##JCAMP-DX=5.00
##DATA TYPE=INFRAREDPEAKTABLE
##DATA CLASS=PEAKTABLE
##$CSTHRESHOLD=0.93
##MAXX=3996.5625
##MAXY=1.0943633558140566
##MINX=399.65625
##MINY=0.6334585093321629
##$CSSOLVENTNAME=- - -
##$CSSOLVENTVALUE=0
##$CSSOLVENTX=0
##NPOINTS=51
##PEAKTABLE= (XY..XY)
413.9296875, 1.0606564529337816
444.515625, 1.056581997309283
483.2578125, 0.9027734013789975
540.3515625, 0.9257084345369502
558.703125, 0.9312251421013464
605.6015625, 1.0100046626482901
634.1484375, 0.8814376796976723
662.6953125, 0.9154767599309127
709.59375, 0.8194670264742228
738.140625, 0.966970763381622
770.765625, 0.904197773400317
785.0390625, 0.7173795863182683
821.7421875, 0.7145888972287224
868.640625, 0.8806401688769124
893.109375, 0.9057357521596064
905.34375, 0.882737359084974
929.8125, 0.819753427240344
972.6328125, 0.8128174131049692
1007.296875, 0.7620993428796135
1031.765625, 0.8107521128115392
1048.078125, 0.6933643382310576
1097.015625, 0.6561207919405773
1115.3671875, 0.6334585093321629
1154.109375, 0.6647035034645925
1170.421875, 0.7164951729576039
1196.9296875, 0.6573819667708503
1223.4375, 0.7300544550244326
1245.8671875, 0.7626135523375694
1282.5703125, 0.9509119017198546
1305.0, 0.8512368399917813
1339.6640625, 0.862695237231336
1362.09375, 0.78635694371829
1376.3671875, 0.8009916728719833
1388.6015625, 0.793124932687112
1421.2265625, 0.7580042055411672
1453.8515625, 0.7297890356186172
1462.0078125, 0.7341420818390232
1496.671875, 0.8270504663154954
1574.15625, 0.8104316186089278
1614.9375, 0.6485682870185703
1657.7578125, 0.9520393822949
1678.1484375, 0.9232073638446576
1710.7734375, 0.7130908529714975
1720.96875, 0.7065562171713423
1753.59375, 0.9388439870963304
2873.0390625, 0.889505585528631
2924.015625, 0.860423703803067
2952.5625, 0.8572495774491975
2966.8359375, 0.8980484807783964
2987.2265625, 0.9332661241563183
3017.8125, 0.9508001428010937
##END=


$$ === CHEMSPECTRA PEAK TABLE AUTO ===
##TITLE=X9612
##JCAMP-DX=5.00
##DATA TYPE=INFRAREDPEAKTABLE
##DATA CLASS=PEAKTABLE
##$CSTHRESHOLD=0.93
##MAXX=3996.5625
##MAXY=1.0943633558140566
##MINX=399.65625
##MINY=0.6334585093321629
##NPOINTS=190
##PEAKTABLE= (XY..XY)
3990.4453125, 0.9783054810772269
3984.328125, 0.9787198532608161
3976.171875, 0.9800765143780302
3965.9765625, 0.9776386242222845
3937.4296875, 0.9793236478070262
3927.234375, 0.9814559445416463
3910.921875, 0.9798645003107295
3894.609375, 0.982212387504048
3888.4921875, 0.9852209317264689
3882.375, 0.9872384292529182
3876.2578125, 0.9844798074197262
3859.9453125, 0.9851058950434632
3845.671875, 0.9844207393765647
3829.359375, 0.9866149650636233
3811.0078125, 0.9843667378029495
3790.6171875, 0.9811582193854368
3774.3046875, 0.9820790520090861
3762.0703125, 0.9855334384171442
3739.640625, 0.9917410836001059
3727.40625, 0.9848628268098768
3717.2109375, 0.9860692254705066
3704.9765625, 0.9857098088366933
3696.8203125, 0.9838335741840294
3682.546875, 0.9827748756978597
3662.15625, 0.9820815551773029
3641.765625, 0.9833340871466318
3637.6875, 0.9831682074072357
3623.4140625, 0.984899305186769
3603.0234375, 0.9837669956170122
3592.828125, 0.9861430159342266
3574.4765625, 0.982209227967618
3558.1640625, 0.983618758321359
3547.96875, 0.9834887016098471
3541.8515625, 0.9824721442052166
3533.6953125, 0.9833809960705644
3519.421875, 0.9817047937076943
3507.1875, 0.9827925782747154
3496.9921875, 0.9833423722665156
3486.796875, 0.9826026779048088
3476.6015625, 0.9822557791504902
3466.40625, 0.9824343551303085
3458.25, 0.9826367723605044
3448.0546875, 0.9819636565658147
3433.78125, 0.9810229759381532
3401.15625, 0.978508136801463
3390.9609375, 0.9807943926502904
3378.7265625, 0.9809644450161848
3356.296875, 0.9810085521447477
3342.0234375, 0.9809106809174046
3327.75, 0.9822687138849525
3317.5546875, 0.9818194135357323
3311.4375, 0.9815278871861574
3303.28125, 0.9814371687416097
3293.0859375, 0.9805751075723796
3282.890625, 0.981577657019367
3270.65625, 0.9808083995887283
3260.4609375, 0.9816323149611954
3246.1875, 0.9821827041688908
3229.875, 0.9819806446797552
3221.71875, 0.9805909623300264
3205.40625, 0.980077468354191
3197.25, 0.9803911073819547
3193.171875, 0.9802590836042139
3178.8984375, 0.9812384471498315
3166.6640625, 0.9810357914255955
3158.5078125, 0.9814682830410081
3129.9609375, 0.9788400756603882
3103.453125, 0.9750141726131952
3099.375, 0.9751732573108562
3087.140625, 0.9761356337617388
3074.90625, 0.9775961865520032
3062.671875, 0.9726822594245436
3036.1640625, 0.9755956751010837
3017.8125, 0.9508001428010937
2987.2265625, 0.9332661241563183
2966.8359375, 0.8980484807783964
2952.5625, 0.8572495774491975
2924.015625, 0.860423703803067
2873.0390625, 0.889505585528631
2773.125, 0.9711418967440575
2740.5, 0.9722127543494562
2726.2265625, 0.9743702631655824
2709.9140625, 0.9766196828964573
2677.2890625, 0.9767663108669418
2671.171875, 0.977097413977521
2652.8203125, 0.9791232567569667
2630.390625, 0.9811883195755617
2616.1171875, 0.9785415759081507
2595.7265625, 0.9810698257481784
2587.5703125, 0.9809350001750679
2575.3359375, 0.9822214472199597
2559.0234375, 0.9827078802758747
2548.828125, 0.9843679292539452
2528.4375, 0.9815706234835917
2501.9296875, 0.982594691412078
2485.6171875, 0.9852940067080683
2473.3828125, 0.9836405142776928
2452.9921875, 0.9894637692393753
2440.7578125, 0.9876588208630092
2422.40625, 0.9885182606362077
2410.171875, 0.9880584706260399
2373.46875, 0.9846362697021503
2355.1171875, 0.9829528554425775
2342.8828125, 0.9850957019712578
2328.609375, 0.9842666019014298
2320.453125, 0.9849815000173929
2302.1015625, 0.9888247479003813
2291.90625, 0.9927034600509885
2273.5546875, 0.9907859791790388
2265.3984375, 0.9928801882115978
2253.1640625, 0.9936278690660355
2245.0078125, 0.9942965737401867
2214.421875, 0.9949631921010887
2191.9921875, 0.9998290168152096
2181.796875, 0.9959900006726268
2165.484375, 1.001231811241123
2157.328125, 0.9972241747160921
2151.2109375, 0.9929511778991534
2134.8984375, 0.9987261520865697
2126.7421875, 0.9975979560294036
2116.546875, 1.0004095072322352
2106.3515625, 1.0006298054002143
2090.0390625, 0.9985724915995152
2073.7265625, 1.0046597951358847
2063.53125, 1.0007505649209796
2055.375, 1.0036204095709447
2039.0625, 1.0007337561871719
2030.90625, 1.0000244606427429
2018.671875, 1.0000244606427429
2010.515625, 1.0064236155207797
1996.2421875, 1.0045607324575458
1981.96875, 1.0065793021879708
1961.578125, 1.006374381789558
1947.3046875, 1.004371307037309
1939.1484375, 1.0068273767579907
1933.03125, 1.0049872627411587
1916.71875, 1.0081159101161317
1906.5234375, 1.0080836043657375
1880.015625, 1.0116398562667095
1859.625, 1.0101969469393934
1851.46875, 1.0122696395288644
1839.234375, 1.0137869355550009
1835.15625, 1.0140515793455829
1816.8046875, 1.0110280742085633
1804.5703125, 1.0102733598183504
1796.4140625, 1.0118446574181021
1753.59375, 0.9388439870963304
1720.96875, 0.7065562171713423
1710.7734375, 0.7130908529714975
1678.1484375, 0.9232073638446576
1657.7578125, 0.9520393822949
1614.9375, 0.6485682870185703
1574.15625, 0.8104316186089278
1535.4140625, 0.9680743435923825
1496.671875, 0.8270504663154954
1462.0078125, 0.7341420818390232
1453.8515625, 0.7297890356186172
1421.2265625, 0.7580042055411672
1388.6015625, 0.793124932687112
1376.3671875, 0.8009916728719833
1362.09375, 0.78635694371829
1339.6640625, 0.862695237231336
1305.0, 0.8512368399917813
1282.5703125, 0.9509119017198546
1245.8671875, 0.7626135523375694
1223.4375, 0.7300544550244326
1196.9296875, 0.6573819667708503
1170.421875, 0.7164951729576039
1154.109375, 0.6647035034645925
1115.3671875, 0.6334585093321629
1097.015625, 0.6561207919405773
1048.078125, 0.6933643382310576
1031.765625, 0.8107521128115392
1007.296875, 0.7620993428796135
972.6328125, 0.8128174131049692
929.8125, 0.819753427240344
905.34375, 0.882737359084974
893.109375, 0.9057357521596064
868.640625, 0.8806401688769124
821.7421875, 0.7145888972287224
785.0390625, 0.7173795863182683
770.765625, 0.904197773400317
738.140625, 0.966970763381622
709.59375, 0.8194670264742228
662.6953125, 0.9154767599309127
634.1484375, 0.8814376796976723
607.640625, 1.0051883692733388
558.703125, 0.9312251421013464
540.3515625, 0.9257084345369502
483.2578125, 0.9027734013789975
##END=

##END=

