##TITLE=S. Graessle SG-V2455 7-18
##JCAMP-DX=5.0
##DATA TYPE=LINK
##BLOCKS=1


$$ === CHEMSPECTRA SPECTRUM ORIG ===
##TITLE=S. Graessle SG-V2455 7-18
##JCAMP-DX=5.00
##DATA TYPE=INFRARED SPECTRUM
##DATA CLASS=XYDATA
##ORIGIN=Angelika Moesle
##OWNER=
##XUNITS=1/CM
##YUNITS=TRANSMITTANCE
##XFACTOR=1
##YFACTOR=9.5349628e-010
##FIRSTX=3997.4121
##LASTX=373.82813
##MAXX=3997.4121
##MAXY=1.0238088339109186
##MINX=373.82813
##MINY=0.3653310527430846
##NPOINTS=2560
##XYDATA= (X++(Y..Y))
2560A049862115A049717087A049521301A049160734A048582126A047884183A047527617
2553A047873431A048563498A048916689A048724528A048247626A047774850A047505800
2546A047537306A047697961A047581627A046917440A045924568A045202433A045226625
2539A046004707A047175301A048250939A048771787A048415783A047185428A045629137
2532A044675584A044856306A045703214A046216059A045940633A045331769A045142359
2525A045599819A046097287A045947759A045347460A045022087A045166551A045348960
2518A045397782A045529994A045703026A045602070A045235126A045011772A044994581
2511A044634139A043841179A043515243A044337146A045466232A045461106A044234815
2504A042837616A041983457A041597760A041504680A041818614A042480987A042936697
2497A042602947A041620076A040783358A040754852A041490052A042434353A043226314
2490A043735659A043718406A043102166A042297328A041979706A042562565A043444917
2483A043454169A042735722A042558064A043313705A043786231A043404097A043118981
2476A043028964A042071036A040487803A039633143A039955828A040764292A041644831
2469A042367779A041985457A040423291A039115359A039209251A040313520A041152239
2462A041014151A039777045A037673152A035745605A036215755A040108107A043579630
2455A044125669A043041904A041459672A039791360A038309458A037138552A036251824
2448A036024657A037087230A038921760A040002775A040004150A039740163A039623829
2441A039336463A038614953A037652773A036678279A035750481A035195065A035547193
2434A036471865A037150242A038140989A039846120A040713220A039667962A037797800
2427A036336090A035818931A036266452A036708285A036086543A035253513A036058913
2420A038293956A039731224A040008151A039993710A039732099A039114046A038578884
2413A038252948A037590387A036366158A035338654A035290457A035847186A036124426
2406A036057413A036128364A036301896A036195939A035899133A035755919A035853562
2399A035930577A035641648A035085544A034662340A034183063A033077794A031704163
2392A031392167A032836499A034717413A035187938A034338092A033803867A035363533
2385A038825367A040738787A039824866A038941826A040129736A041719845A040796673
2378A038068226A035507748A033970086A033644713A034313150A035015906A034775111
2371A033749857A032657653A031849690A031162999A030371602A029860194A030430300
2364A032141557A033993903A034936454A034665216A033499686A032126429A031389417
2357A031557573A031735044A031196005A030260081A029500001A029497188A030671908
2350A032372725A033020471A032195004A030989029A030427862A030516254A030595143
2343A030313778A030106740A030462494A030891261A030807120A030394918A030161812
2336A030370289A030653154A030410171A029861256A029840815A029823999A028830064
2329A028169565A029722480A032560323A033724853A032843438A031433237A030551698
2322A030233701A029982466A029771865A030035476A030177503A028558263A025148752
2315A022057862A022075490A026115682A030314591A031453178A030619523A029487874
2308A028875635A028885262A029086674A029110679A029120743A029246204A028976904
2301A028196008A028381668A030938957A033417608A032871006A030752235A028975904
2294A027869259A027123558A026451807A025572268A024661223A024324723A024549015
2287A024611714A024433055A024750927A025532886A025785308A025345726A025129873
2280A025712357A026576643A026774055A026290652A026069924A026529134A026726296
2273A025762304A024379295A024202887A025774993A027278774A026840442A025207700
2266A023880202A023412802A023534638A023673289A023464937A023035545A022746428
2259A022673164A022626531A022657974A023120748A023959717A024385422A024092304
2252A023606214A023334350A023246771A023115560A022762119A022216329A021804940
2245A021843072A022114498A022092619A021608153A020795314A019750869A018697110
2238A017966223A017518265A017052303A016639663A016704050A017344045A018215332
2231A019038298A019642036A019796315A019561083A019379925A019360483A019074868
2224A018430372A017983101A018064054A018320227A018350107A018202330A018030360
2217A017707237A017135443A016627848A016598093A017002856A017466005A017764561
2210A017931217A018072368A018200704A018162197A017744244A016991666A016284222
2203A015897462A015690486A015415560A015089436A014904214A014939408A015086686
2196A015184829A015186579A015208083A015370989A015661105A015960286A016028862
2189A015573026A014671296A013979917A014096751A014787880A015215647A014923530
2182A014241590A013661982A013217712A012758188A012459320A012566403A012884400
2175A013001921A012821700A012563590A012496015A012754000A013115568A013125695
2168A012715118A012290726A012142761A012240279A012460945A012526833A011987732
2161A010798073A009653671A009335299A009909157A010818889A011530522A011813700
2154A011602535A010973418A010246907A009816764A009821828A010088002A010261472
2147A010011988A009408001A009014740A009340988A010294604A011312294A011837767
2140A011711306A011319170A011200898A011341111A011152639A010294166A009152328
2133A008347865A008096943A008206964A008474264A008856398A009272850A009474575
2126A009316358A009034118A008969544A009075751A008958729A008444946A007888092
2119A007782447A008163331A008516334A008306732A007540464A006771571A006565220
2112A006973859A007555405A007879153A007967294A008150078A008531024A008766443
2105A008465575A007691993A006996238A006959731A007649360A008487266A008769319
2098A008320297A007505958A006735689A006212029A006022118A006133827A006307984
2091A006268790A005985237A005575473A004998677A004158333A003319676A003032060
2084A003519401A004401191A005110636A005407379A005441385A005425382A005353244
2077A005112574A004790264A004661740A004875029A005245661A005335428A004762633
2070A003587039A002342744A001556785A001320053A001379814A001450202A001368312
2063A001161399A001064193A001366687A002135768A003066379A003729065A004034310
2056A004234535A004391377A004231597A003690558A003141393A002879657A002795766
2049A002691809A002584602A002612044A002814957A002986427A002749695A002011995
2042A001260417A001096011A001546658A002105575A002321303A002142769A001778264
2035A001419947A001146333A000967925A000858342A000823273A001041126A001699186
2028A002525966A002855902A002456828A001889597A001771325A002063942A002265855
2021A002033686A001501587A001095949A001086635A001383753A001809207A002308425
2014A002744944A002822084A002467080A002025997A001843026A001823897A001639175
2007A001210158A000791454A000652241A000843714A001232287A001633112A001913226
2000A002042438A002035437A001859779A001473394A000938044A000410008A000068257
1993A000106389A000616297A001296174A001535843A001137644A000697374A000823210
1986A001268419A001299987A000646677I99665994I98843778I98461019I98515655
1979I98792331I99090199I99333495I99451204I99354311I99072509I98788206I98773515
1971I99256730A000156586A000947359A001042376A000364500I99387067I98595482
1964I98087075I97765452I97669059I97845842I98061132I97936484I97371879I96698440
1956I96445393I96903229I97809023I98551161I98736508I98439265I97963427I97548037
1948I97248043I97036128I97043630I97472960I98132146I98404884I97915293I96889101
1940I95729635I94588859I93448084I92340252I91362444I90520037I89675004I88794715
1932I88152658I88031010I88322314I88676943I88852601I88674693I87928178I86591679
1924I84952998I83219612I81188420I78550990I75525675I72955571I71638700I71640700
1916I72361460I73135792I73541805I73268942I72167611I70618259I69477921I69333457
1908I69983328I70856304I71671206I72422659I73015832I73286695I73193803I72702711
1900I71666330I70056404I68202996I66738410I66368466I67486737I69703901I71908750
1892I73158796I73475168I73538367I73731465I73822607I73554932I73107661I72862491
1884I73039649I73627071I74408592I75076904I75504421I75809978I76096782I76359456
1876I76655824I77067276I77499856I77748840I77728462I77549928I77433031I77496481
1868I77589686I77454223I77032394I76482291I76061775I76138415I76994074I78387335
1860I79583995I79990446I79594122I78757404I77793786I76871927I76154980I75733527
1852I75395276I74746092I73668329I72426034I71303950I70390279I69626199I68790230
1844I67575816I65943824I64252696I62822804I61553567I60201815I58906510I58150369
1836I58203942I58845249I59665527I60430795I61041409I61343403I61209690I60763419
1828I60334277I60161432I60271890I60582761I60929576I61110422I61156243I61380347
1820I61905258I62423917I62668588I62782796I63027655I63444232I63905068I64198936
1812I64049345I63297955I62090292I60774297I59598890I58487370I57116489I55300650
1804I53255455I51416237I50085864I49305531I48946839I48887202I49131123I49700479
1796I50455433I51249956I52257644I53812309I55835750I57726415I58957020I59552568
1788I59892257I60306147I60953017I61780672I62471238I62714534I62629705I62651459
1780I62972207I63375095I63644332I63821365I63964267I63951077I63745226I63635768
1772I63889003I64286077I64363592I64007150I63471175I62992586I62731537I62867375
1764I63394598I63994460I64332023I64284702I63808988I62893567I61742540I60699533
1756I59853000I58901947I57497310I55580202I53370914I51188820I49328285I47934587
1748I46894768I45936527I44885955I43776123I42742180I41977350I41803630I42576712
1740I44349480I46683103I48957090I50871698I52534946I54098113I55497686I56568886
1732I57244638I57622771I57946394I58463990I59191376I59908822I60458738I60867001
1724I61125175I61116298I60852999I60568821I60503558I60731351I61147616I61511184
1716I61573883I61281579I60859437I60673715I60911510I61339590I61528687I61401164
1708I61305333I61483741I61812928I62139739I62503432I62926761I63298955I63573006
1700I63867124I64240194I64463298I64181245I63361842I62466675I62054973I62253198
1692I62728536I63144927I63457235I63716033I63864498I63900130I64009025I64318958
1684I64714657I65023090I65169430I65079663I64661585I63971143I63254072I62748353
1676I62486241I62353466I62317897I62433106I62597324I62588823I62378033I62062787
1668I61511559I60505184I59253575I58363409I58217257I58615894I59077230I59355157
1660I59567321I59849436I60058038I59951830I59558757I59188876I59110798I59299146
1652I59481618I59410604I59088732I58707348I58393415I58101735I57751295I57371724
1644I57080795I57001280I57240262I57827934I58592702I59237572I59652900I60026407
1636I60553193I61180622I61728412I62125299I62410915I62578696I62562630I62413415
1628I62355967I62567881I62985334I63405163I63681964I63751290I63613889I63412852
1620I63402287I63675463I63985458I64003524I63745851I63567443I63679089I63860560
1612I63804550I63600137I63629392I64016589I64441106I64580507I64485177I64379157
1604I64348714I64389221I64520808I64690590I64757728I64690653I64617889I64634330
1596I64709969I64799360I64882313I64887502I64736724I64535374I64557628I64893315
1588I65237755I65241443I65029153I65126547I65798547I66674460I67198558I67291701
1580I67323894I67552374I67863245I68008585I67887437I67617512I67450105I67572066
1572I67968327I68492050I68978141I69265882I69256130I69038464I68883685I69034401
1564I69463481I69827987I69711590I68985017I67952324I67129483I66848555I67056969
1556I67489800I67979142I68521618I69103539I69595756I69864243I69896374
1549I69775664I69605070I69501676I69549310I69655329I69561875I69124980
1542I68495988I67959575I67614198I67248068I66667522I66200622I66507867
1535I67617074I68552561I68349773I67187119I66113418I65798359I65915256
1528I65794859I65386783I65261134I65723846I66308642I66357089I65904004
1521I65634579I65943824I66427977I66507054I66155614I65759540I65621201
1514I65819551I66208561I66464546I66415225I66299453I66519869I67217937
1507I68168302I68985454I69358024I69128794I68348460I67437415I67067784
1500I67550874I68497301I69292699I69675396I69722842I69531494I69058406
1493I68257006I67329708I66625014I66186869I65733972I65194309I64900754
1486I65169930I65933260I66755101I67126607I66949512I66734972I67026776
1479I67672522I68015211I67733033I67055219I66198497I65153427I64081164
1472I63376157I63220628I63456485I63811238I63878188I63101794I61206065
1465I58579512I56090985I54554823I54240764I54822310I55875069I57216257
1458I58634147I59742479I60367908I60671215I60778672I60721974I60752980
1451I61235383I62122861I62866312I62987710I62611077I62288579I62359405
1444I62654272I62846558I62897255I63032406I63396661I63878626I64242757
1437I64306331I64033843I63601574I63298018I63250821I63409351I63792360
1430I64398786I64912382I64974706I64712844I64545438I64567130I64533436
1423I64315208I64052158I63914008I63864498I63675088I63212127I62711971
1416I62622642I63064599I63521497I63256822I62186810I61147304I60959644
1409I61419730I61697781I61480366I61042972I60536565I60056162I60050474
1402I60743541I61475677I61394537I60463238I59274579I58328840I57832560
1395I57805555I58095109I58413668I58536566I58411168I57979087I57266267
1388I56787365I57349345I59151431I61351467I62796674I63095855I62749853
1381I62286454I61668151I60706659I59670841I59191314I59540629I60160870
1374I60240197I59674904I59068791I58841748I58794052I58642336I58552694
1367I58836935I59430983I60030970I60507934I60853811I60940640I60671527
1360I60230445I59900758I59743604I59616268I59366471I58890257I58173123
1353I57367035I56678282I56164311I55803994I55736419I56175188I57074543
1346I58177812I59370785I60537315I61140427I60650961I59514124I58918450
1339I59401540I60391413I61184248I61592512I61655086I61498994I61450173
1332I61729850I62233944I62820991I63325210I63290954I62371720I60932138
1325I59795114I59640085I60676903I62284578I63144426I62559130I61367470
1318I60858937I61327275I62323023I63558941I64851558I65791233I66199434
1311I66504679I67111792I67769915I67955700I67395595I65983019I63845307
1304I61772233I60978710I62125736I64799298I67992644I70869306I72875368
1297I73340455I71756097I68798357I66259508I65495428I66453107I68119293
1290I69291136I69267945I68384342I67548936I67173616I66970266I66512743
1283I65648269I64707593I64403412I65162116I66584319I67786793I68271071
1276I68459856I69235251I70823610I72461291I73360459I73535679I73395778
1269I72998704I72045026I70507801I69021649I68396657I69099288I71723215
1262I76749779I82216112I83762150I79751777I73386213I68667082I67068284
1255I67877560I69752160I71489922I72359772I72320640I71702774I70774913
1248I69954948I69911190I70802669I71792728I71980451I71553246I71431849
1241I72001142I72654077I72538993I71550433I70450415I69922442I69688648
1234I68859868I67178617I65453107I64570693I64632017I65341399I66462421
1227I67382405I67195683I65929321I64751164I64460172I64788483I65340274
1220I66029590I66590007I66839179I67277448I68368027I69546872I69917128
1213I69511615I68978953I68387280I67253506I65685088I64627828I64781545
1206I65852557I67058532I67983767I68760475I69623761I70396593I70539995
1199I69878871I69023962I68714654I68952198I69204683I69302826I69525805
1192I69777665I69519992I68866870I68826300I69689211I70081534I68756724
1185I66624076I65858183I67254631I69341521I70395530I70381152I70356460
1178I70954947I71992141I72852426I72772599I71592691I70568062I71190929
1171I73094534I74616631I75080967I75027832I74881305I74727464I74799915
1164I75228557I75736027I76112847I76839233I78752278I81568053I83233739
1157I81856420I78125723I74741279I73254439I72720839I71896935I71331017
1150I72317764I74736716I76907183I77486166I76723211I75542241I74218994
1143I72592628I71215496I71278507I73067842I75228307I76024393I75179923
1136I74097721I74360958I76171233I78366581I79984133I80989320I81295377
1129I80603311I79299942I78244870I77873864I78124035I78636756I78801599
1122I78409839I78167043I78731149I79665448I80105093I79866986I79438031
1115I79307631I79483539I79455722I78729961I77517235I76558618I76208990
1108I76059900I75615380I74901996I74187613I73573248I72943818I72154171
1101I71331392I70828799I70654078I70325392I69634075I68972077I68497426
1094I67574066I65645143I62999337I60226882I57608518I55373038I54136557
1087I54627774I56936580I60072666I62407539I62635144I60321149I55948771
1080I50979155I47623029I47645158I50968841I55685534I59594201I61853310
1073I63187184I64651583I66551312I68365026I69573439I70224123I70651140
1066I71171925I71933692I72760597I73288008I73367397I73180112I73037836
1059I73251126I74016206I75121975I75846485I75732651I75286568I75206241
1052I75519174I75667827I75309948I74808541I74651012I74829795I75121225
1045I75453974I75767345I75958819I76104908I76487230I77352329I78615190
1038I79748589I80349951I80472036I80194672I79481351I78465537I77524799
1031I77013766I77126474I77775658I78395774I78409526I77800162I76902495
1024I76099532I75745466I76122662I77224117I78533987I79376332I79603937
1017I79621002I79773593I79978507I80003636I79826103I79502293I79106469
1010I78954565I79497354I80672511I81707454I82001572I81678074I81168166
1003I80732835I80269873I79550302I78721960I78165106I78054210I78188735
996I78174857I77767281I76895681I75599252I74140354I72954695I72467354
989I72937505I74080468I75053650I75531176I75831857I76130163I76525487
982I77481791I79415527I81740523I83457093I84497350I85235175I85752897
975I86136719I86690947I87552608I88402704I88901922I89065078I88913675
968I88382638I87536355I86497286I85218547I83649504I81921244I80075462
961I78002325I76068527I75008204I75031583I75836796I76975133I78205113
954I79427279I80496978I81445781I82649005I84534107I86730892I87996066
947I88179037I88174662I88556170I89343755I90445148I91914047I93535975
940I94736699I95482463I96386757I97551037I98057569I97725632I97288863
933I96952300I96467522I95809900I95000123I93890354I92484654I91165220
926I90235984I89063828I86947683I84147972I81349700I79570180I79881614
919I82215424I85307251I88816969I93418016I98473272A002147520A004354495
912A006361244A009028867A011848644A013752062A014629100A014881272A014877147
905A015460943A017641350A019633722A019866891A019297659A018634160A017924840
898A017134443A016514827A016302163A016462630A016920028A018406180A022556268
891A028623338A033240137A035836809A037422355A038361281A038560005A038215128
884A038097981A039150803A041342087A043614074A045546684A047442976A048771787
877A047736781A042482175A030619398A008884465I76642634I39822260I08280934
870H88738411H81814806H83096483H84255262H75098052H48975613H09718910
863G73196404G56654816G64286991G87105251H14148737H39590049H62067932
856H81815181H99630445I16368757I31842833I45372796I57519314I69378778
849I79444719I85703950I89811530I94739637A001965424A009646358A015416122
842A019260965A021565833A021987474A018608218A004506961I76294131I52276960
835I39810633I34676862I35274161I40693423I48920959I57685345I66358464
828I75832108I86233612I96513593A006772821A016349171A021593213A022462375
821A020573335A016057992A008853897I99604733I87426022I67417599I32473388
814H81872442H21636697G52229740F76508042F13790021E75458428E54742560
807E45093196E44039562E48681366E55521643E61618156E64000226E59170637
800E51214652E49765944E55177391E65335038E79398163E96841857F16652305
793F35736993F50775550F62299389F73522672F87352691G03658735G19666786
786G34003838G46277191G54286311G53557425G41004269G19737549F97890283
779F83567422F81634749F92319743G09317104G24116054G34850371G44134291
772G54280748G65348689G75085694G82113444G87517828G93694356H02585203
765H11390659H15645016H16057093H14287263H10966705H06456551H01514003
758G97412675G94988597G94133500G94389110G95496380G98014225H03597955
751H12675399H21765784H28415275H34262242H41386884H49770887H57877087
744H65115876H72095929H78952209H85088417H90701653H96832797I02926372
737I06533921I05683512H97190302H75547886H38539040G94485566G59047763
730G44263690G51753401G72075757G93847384H13742411H33267681H52166459
723H68990850H83870065H96584376I05822163I11725703I15765582I18841156
716I20248106I18202037I11657877I01284816H89586632H80268955H76388168
709H79497061H90254444I06860169I23348560I34509831I40443501I44362295
702I49616901I58710536I73097660I91903483A010929410A026176756A037063101
695A044516867A048708650A048771787A043501553A030248766A004418132I60156869
688H93957198H08970895G15800627F26404501E47861026D84895709D44439906
681D30618670D39106098D61653714D91363760E23308942E53665484E79026281
674E95893555F01122844E94241997E79858687E66561579E62314474E69715668
667E83800610E94367895E91953382E74135368E48654486E28662567E22973348
660E31326001E47317799E64058674E77571072E86842053E92446161E95527987
653E97759278F01385018F08112774F17841090F29138324F40815066F52519876
646F63991580F74399461F83027509F90626302F99330865G10647040G23874072
639G36966516G48515234G58486658G67516969G76057313G84159701G91747742
632G98797808H05032972H09226818H08586948G99048168G77312110G44157983
625G06247218F73914433F56056224F55635083F68981949F89271362G10748871
618G30421481G47319573G61031071G70467395G73314364G66987245G51389208
611G31336652G15117062G09127819G13704923G24198445G35025716G42037775
604G42461354G35029217G21336598G06363303F96332868F95251791G03038932
597G16349167G30979398G44030709G54563363G62686630G68106829G69762888
590G67431953G63618241G62709196G67462646G76756881G87156323G96017102
583H02698849H07704909H11719721H15330770H18893685H22446848H25926810
576H29315631H32446715H34964373H36641873H37486468H37384699H35614056
569H30785718H21996327H10843682H01750172G98927083H02844814H10366031
562H17984328H24202614H29343011H34298436H39690880H45532095H51370498
555H56857897H62019798H66930090H71515509H75756050H79758797H83673903
548H87701593H92023212H96636823I01342702I05712830I08399957I05708079
541H91922818H64679607H31497413H07013592H00595707H09292768H24251185
534H39655061H53698245H65666792H75527945H84583573H94447915I05371079
527I15242422I18865723I08260931H77094925H27946375G72583290G21541699
520F77318631F41942902F24439947F32630351F61487988F96459766G25815622
513G45912811G57919365G64140214G67220601G70236352G75795514G84590844
506G95257398H05886882H15383592H23607565H30894550H37551918H43579981
499H48816771H53266477H57173831H60786256H64145070H67199078H70014853
492H72671287H74802435H74787119H69354793H55948978H37365696H22321387
485H18527867H25816290H37844973H48980677H57444194H63548459H67773435
478H70502257H72130311H73072737H73807499H74688476H75678036H76446867
471H76727669H76543635H76212823H76216636H77048979H79073357H82373598
464H86783296H92072284H97901059I03682764I08908364I13562608I17970868
457I22180092I24893661I22849342I13436522H99663326H90119232H91289575
450I01485353I14112273I24612421I32397687I38437439I43492008I48018540
443I52351537I56772925I61486117I66446605I71351959I75918374I79994009
436I83332570I85542670I86446339I86095148I83717830I76026769I56457491
429I17647183H57543213G84232402G13236461F58724972F26904032F15904416
422F19381440F30391058F44060484F57976520F70940940F82295872F92169965
415G01321611G10445940G19822878G29572885G40121605G52185357G66070949
408G81115820G95950339H09218941H20179863H28887426H35845850H41546976
401H46364938H50610418H54500832H58217276H61969852H65894209H69999663
394H74244893H78561636H82873691H87134987H91238253H94953009H98099784
387I00748778I03188984I05668009I08069207I09956060I11082457I11760334
380I12644437I14269427I16753516I19775268I22842653I25636237I28133516
373I30497019I32792948I34642981I35015800I32284666I24934106I13388450
366I01580059H95414908H98383962I08855917I22022875I33906218I43237335
359I50568329I56756859I62263637I67055032I70528805I71465605I68732095
352I63067475I58179562I58731978I66287388I77505607I86498286I88462028
345I80996884I62598950I30213029H77978840G99205009F93032814E72602957
338D65064757C98038275C83148902D12164756D66524185E28731079E87639452
331F38252900F79532169G12449189G38848242G60532227G78367307G91996289
324H00367852H02683284G98878949G88899523G72323179G50466411G27779676
317G06880399F81101837F37419057E72433238E04183747D62627989D66124423
310E08572660E68478187F26460636F73852358G10261030G38156863G60028008
303G77861087G92950029H05751732H16458293H25607501H33816783H41364192
296H48285297H54490393H59832265H64395804H68579961H72769368H77040665
289H81144181H84802176H88110794H91405472H94747533H97958132I01068588
282I04296878I07610997I10655815I13257614I15747328I18524409I21692126
275I25269856I29055938I32001238I30260413I12559983H61773690G74914100
268F83669066F37461940F57055598G17014353G78022868H21387338H48794579
261H66234773H77553636H85284454H90612074H93539182H94530117H95623009
254H99324825I06151850I13957369I19417576I18586983I07888111H88806611
247H70776746H65069868H74874386H93440852I11851101I25876282I35717431
240I42782188I48155378I52577516I56470368I60088606I63733474I67350774
233I69761037I68030839I57454989I33940475H99204740H63295974H36786588
226H15838490G79547840G12913713F32877272E76756607E60168448E64651535
219E72234388E90073656F31276848F89724071G46218618G88829385H17612321
212H36670066H49732817H60581967H72347601H83807803H91332270H95498111
205H98674079I02031955I05633753I09171976I12300497I14812591I16934300
198I19077700I21322057I23512278I25614233I27630922I29450761I31076690
191I32796386I34825765I36948536I38894212I40868580I43190264I45671602
184I47892204I49688164I50969591I51492314I50853820I48515446I44630095
177I41165698I40760373I43736116I47122686I47012790I42030922I35235341
170I32306607I36581218I45756931I54520442I59994776I63118109I65688276
163I68226500I70452916I72334392I74254250I76407965I78334325I79403587
156I79616627I79612813I80056709I81182231I82767090I84479034I86223297
149I88049951I89814280I91175159I91905546I92115897I92141465I92147278
142I91874665I90570421I86629936I76898244I55369037I12827471H43963865
135G61851849G00940103F93102890G38174429H06216506H67071116I09538357
128I36663983I54236451I65806361I72895997I76628319I78789535I81077087
121I83853105I86228048I86630436I82526732I70311577I48009851I20536660
114I00420342H98527926I13236235I31574595I41347670I40359173I35173392
107I31583597I26187090I09545671H78090674H43712381H27429591H38358631
100H66342355H96330579I20157839I36504578I47111246I54382728I60268015
93I65784607I71016209I75283818I77884053I78942188I79203987I79718396
86I81823476I86011320I90413830I92088080I90223857I86319940I81438154
79I74458039I63195186I47398049I30289293I17013940I11640624I15165970
72I26200842I41976787I57902635I69989829I78515483I86158910I94043132
65A000985491A005587037A007921160A009201962A010400811A011606661A012735497
58A014195832A016252466A018287096A019316163A019418744A019643474A019466066
51A014473571I98415573I70232000I37872521I10758459H90668834H71354228
44H46490524H20333266H07349842H18983764H51798703H91060032I25046502
37I50653407I68891562I80373018I82295377I68833989I45278279I30218592
30I30558468I42353483I59891694I77035832I89387826I96249294I99850529
23A003176337A007755129A013324169A019375861A026290090A034429109A042203873
16A047325954A048771787A047928942A041935073A033081545A026609962A027526821
9A037028094A050497359A061368263A067649061A071004562A073194971A073741823
2A067715323A048771787
##END=


$$ === CHEMSPECTRA PEAK TABLE EDIT ===
##TITLE=S. Graessle SG-V2455 7-18
##JCAMP-DX=5.00
##DATA TYPE=INFRAREDPEAKTABLE
##DATA CLASS=PEAKTABLE
##$CSTHRESHOLD=0.93
##MAXX=3997.4121
##MAXY=1.0238088339109186
##MINX=373.82813
##MINY=0.3653310527430846
##$CSSOLVENTNAME=- - -
##$CSSOLVENTVALUE=0
##$CSSOLVENTX=0
##NPOINTS=36
##PEAKTABLE= (XY..XY)
416.3085985814769, 0.8869599670588378
431.8847703946849, 0.7698050710055878
477.19727021492736, 0.8692459436808787
516.8457075576393, 0.7889510369804215
532.4218793708478, 0.8567430349171153
560.7421917584988, 0.6608710272722492
613.1347696756543, 0.888950881593922
685.3515662641653, 0.5341185313413734
720.7519567487298, 0.824840901078091
750.4882847557637, 0.6078175884315832
814.2089876279792, 0.44111406653538093
848.1933624931612, 0.3653310527430846
889.2578154552557, 0.8537747838345423
971.3867213794447, 0.5872625694915725
1012.4511743415392, 0.848725376468457
1036.5234398710431, 0.8354656672187984
1059.1796897811641, 0.7804632762608348
1105.9082052207891, 0.5954011665478972
1132.812501989058, 0.76336502840847
1172.46093933177, 0.7617740016317512
1205.029298577569, 0.7272403811077909
1220.6054703907776, 0.6629199963818375
1234.765626584603, 0.6761507374610134
1253.1738296365766, 0.6251456126779913
1308.3984387924966, 0.4986531418571455
1319.7265637475575, 0.5361647591491567
1336.718751180148, 0.4105932999435476
1377.783204142243, 0.8356328580240151
1406.103516529894, 0.7096526597540732
1442.919922633841, 0.75720333807338
1474.0722662602575, 0.6499361974902338
1503.8085942672915, 0.5241997824746883
1513.7207036029695, 0.5187396985398294
1551.9531253264122, 0.8917804332936211
1593.0175782883935, 0.7214675523000845
1602.9296876240714, 0.8408071371699217
##END=


$$ === CHEMSPECTRA PEAK TABLE AUTO ===
##TITLE=S. Graessle SG-V2455 7-18
##JCAMP-DX=5.00
##DATA TYPE=INFRAREDPEAKTABLE
##DATA CLASS=PEAKTABLE
##$CSTHRESHOLD=0.93
##MAXX=3997.4121
##MAXY=1.0238088339109186
##MINX=373.82813
##MINY=0.3653310527430846
##NPOINTS=139
##PEAKTABLE= (XY..XY)
3177.539056377491, 0.9520288673415094
3150.6347596092223, 0.9512737364276006
3142.138665892927, 0.9501069754486381
3129.394525318484, 0.9506702390736039
3106.738275408363, 0.9420838925596429
3088.330072356389, 0.926453885954036
3075.585931781946, 0.92425584532904
3057.1777287299724, 0.9214287374403065
3041.6015569167644, 0.9276207661200335
3020.361322626026, 0.9319787590076247
3011.8652289097304, 0.930671271512697
2973.632807186401, 0.9135928125221273
2959.472650992575, 0.915510353611473
2919.824213649863, 0.9047604172466086
2895.7519481203594, 0.9178638427349974
2883.007807545916, 0.9188231200629431
2873.095698210238, 0.9179609391681824
2839.1113233450565, 0.8980062576954965
2807.95897971864, 0.9158365694797643
2798.046870382962, 0.9159988135462802
2790.966792286049, 0.9166010589596613
2771.142573614693, 0.9173158379110005
2742.822261227042, 0.9175665349669232
2728.662105033216, 0.913656589981304
2714.50194883939, 0.9145085780008315
2698.925777026182, 0.9124971604352384
2677.6855427354435, 0.9176028345703028
2666.357417780383, 0.9186004967979924
2659.27733968347, 0.9187579724296121
2653.61327720594, 0.9187891460369904
2643.701167870262, 0.919502911421784
2635.205074153966, 0.919759568782953
2625.292964818288, 0.9196808910374088
2618.212886721375, 0.9201517074770509
2601.2206992887845, 0.9224600762031094
2589.892574333724, 0.9238269894001918
2578.564449378663, 0.9218865005158754
2562.988277565455, 0.9244162415197653
2548.828121371629, 0.9212686988106862
2538.916012035951, 0.9208851425366046
2533.251949558421, 0.9203729004975816
2526.171871461508, 0.9207289789158661
2517.675777745213, 0.9207162230426323
2510.5956996483, 0.9213629338015349
2497.851559073857, 0.9220955345518436
2478.027340402501, 0.9200292795081951
2469.531246686205, 0.9217781995479042
2455.3710904923796, 0.9184272856172638
2442.6269499179366, 0.909865018698358
2429.882809343493, 0.9160448283232567
2419.970700007815, 0.9175385803629862
2401.562496955842, 0.9184560745304459
2391.650387620164, 0.9196904870239707
2377.490231426338, 0.9178571081907718
2368.994137710043, 0.9162714457841243
2359.082028374365, 0.9154045555712368
2347.753903419304, 0.9132640336558354
2337.841794083626, 0.9122931932785022
2322.265622270418, 0.914585349707312
2309.521481695975, 0.9139764279129784
2282.617184927706, 0.9112911201770214
2269.873044353263, 0.9143251748983661
2259.960935017585, 0.9167391633608565
2247.2167944431417, 0.9150132511863839
2238.720700726846, 0.9161754220342544
2217.4804664361077, 0.9162896251441989
2203.320310242282, 0.9205962989550078
2186.328122809691, 0.9195550657613074
2163.67187289957, 0.923362610013936
2150.9277323251267, 0.9220960112999835
2138.1835917506837, 0.9248067115953732
2131.1035136537707, 0.9262566542950218
2115.5273418405623, 0.9197145675725221
2104.199216885502, 0.9196091862101602
2082.9589825947633, 0.9197690455824798
2067.3828107815552, 0.9236658189704872
2056.0546858264943, 0.923772273016164
2048.9746077295817, 0.9209421844980593
2041.8945296326688, 0.9252312748839688
2033.3984359163733, 0.9254330366038094
2023.4863265806953, 0.929399010937834
2002.2460922899568, 0.9261605113581168
1989.5019517155135, 0.9260503625143549
1981.0058579992183, 0.928798553329978
1966.8457018053925, 0.932399091633226
1959.7656237084796, 0.9326786367191001
1951.2695299921843, 0.9337661831341127
1913.0371082688548, 0.909765657711508
1900.2929676944118, 0.9035550329938321
1873.3886709261428, 0.9277879569252501
1863.4765615904648, 0.9298555230262835
1856.3964834935518, 0.9293261142402354
1832.3242179640483, 0.9315789913897905
1820.9960930089878, 0.9303696720578665
1802.5878899570143, 0.9334295360165182
1785.5957025244234, 0.9325710508733388
1774.2675775693629, 0.9272440044604432
1730.371093368503, 0.9296666954834811
1711.9628903165299, 0.9422208642072574
1676.5624998319654, 0.9340165226289304
1602.9296876240714, 0.8408071371699217
1593.0175782883935, 0.7214675523000845
1553.3691409456815, 0.8912109109190735
1513.7207036029695, 0.5187396985398294
1503.8085942672915, 0.5241997824746883
1474.0722662602575, 0.6499361974902338
1442.919922633841, 0.75720333807338
1406.103516529894, 0.7096526597540732
1377.783204142243, 0.8356328580240151
1336.718751180148, 0.4105932999435476
1319.7265637475575, 0.5361647591491567
1308.3984387924966, 0.4986531418571455
1253.1738296365766, 0.6251456126779913
1234.765626584603, 0.6761507374610134
1220.6054703907776, 0.6629199963818375
1205.029298577569, 0.7272403811077909
1172.46093933177, 0.7617740016317512
1132.812501989058, 0.76336502840847
1105.9082052207891, 0.5954011665478972
1059.1796897811641, 0.7804632762608348
1036.5234398710431, 0.8354656672187984
1012.4511743415392, 0.848725376468457
971.3867213794447, 0.5872625694915725
889.2578154552557, 0.8537747838345423
869.4335967838997, 0.9136206479390294
848.1933624931612, 0.3653310527430846
814.2089876279792, 0.44111406653538093
750.4882847557637, 0.6078175884315832
720.7519567487298, 0.824840901078091
685.3515662641653, 0.5341185313413734
621.6308633919498, 0.8970115160269124
613.1347696756543, 0.888950881593922
591.8945353849158, 0.9340571730358357
560.7421917584988, 0.6608710272722492
532.4218793708478, 0.8567430349171153
516.8457075576393, 0.7889510369804215
477.19727021492736, 0.8692459436808787
431.8847703946849, 0.7698050710055878
416.3085985814769, 0.8869599670588378
##END=

##END=

