##TITLE=[Cu(TMG2Meequ)2](BF4)2
##JCAMP-DX=5.0
##DATA TYPE=LINK
##BLOCKS=1


$$ === CHEMSPECTRA SPECTRUM ORIG ===
##TITLE=[Cu(TMG2Meequ)2](BF4)2
##JCAMP-DX=5.00
##DATA TYPE=INFRARED SPECTRUM
##DATA CLASS=XYDATA
##$CSCATEGORY=SPECTRUM
##ORIGIN=
##OWNER=
##XUNITS=1/CM
##YUNITS=TRANSMITTANCE
##XFACTOR=0.12501352010900002
##YFACTOR=0.00315660092549558
##FIRSTX=4000.433
##LASTX=249.7859
##MAXX=4000.433
##MAXY=101.01122961585857
##MINX=249.7859
##MINY=27.980110603592824
##NPOINTS=3890
##XYDATA= (X++(Y..Y))
3890C1668C1569C1556C1462C1361C1467C1585C1604C1631C1579C1567C1646C1648C1722
3876C1771C1712C1597C1574C1538C1509C1599C1701C1684C1596C1651C1661C1647
3863C1610C1568C1623C1759C1816C1777C1626C1507C1559C1636C1742C1752C1717
3850C1708C1635C1595C1608C1638C1624C1672C1711C1697C1654C1661C1604C1578
3837C1692C1714C1644C1636C1592C1575C1578C1637C1621C1557C1539C1530C1580
3824C1570C1549C1598C1630C1620C1550C1562C1595C1523C1548C1601C1572C1613
3811C1621C1573C1542C1576C1625C1655C1599C1619C1638C1587C1549C1535C1578
3798C1509C1347C1385C1674C1695C1644C1563C1535C1695C1623C1582C1515C1422
3785C1640C1716C1744C1647C1625C1651C1651C1566C1569C1608C1627C1734C1669
3772C1492C1661C1722C1820C1800C1659C1663C1748C1620C1553C1578C1576C1590
3759C1669C1707C1632C1422C1505C1665C1526C1474C1466C1442C1504C1581C1667
3746C1649C1640C1614C1638C1711C1764C1732C1750C1911C1648C1582C1512C1553
3733C1680C1677C1623C1650C1637C1673C1671C1682C1647C1596C1658C1692C1625
3720C1542C1547C1582C1589C1502C1533C1656C1557C1567C1642C1761C1803C1689
3707C1683C1729C1663C1548C1550C1627C1728C1661C1641C1678C1737C1775C1803
3694C1725C1668C1704C1712C1626C1534C1509C1483C1587C1544C1523C1703C1600
3681C1586C1626C1637C1664C1667C1644C1668C1767C1698C1711C1745C1718C1680
3668C1637C1677C1700C1738C1758C1714C1615C1650C1709C1718C1678C1677C1772
3655C1786C1763C1735C1666C1694C1697C1686C1670C1637C1627C1610C1535C1501
3642C1636C1782C1859C1704C1585C1651C1709C1672C1513C1536C1640C1595C1768
3629C1570C1510C1595C1570C1751C1701C1743C1780C1731C1675C1584C1484C1528
3616C1623C1680C1626C1587C1671C1638C1630C1697C1669C1553C1527C1544C1609
3603C1637C1683C1704C1786C1760C1683C1704C1691C1646C1576C1618C1579C1648
3590C1570C1530C1647C1725C1771C1769C1720C1743C1739C1648C1715C1812C1762
3577C1725C1764C1865C1883C1818C1842C1789C1714C1638C1565C1591C1608C1636
3564C1706C1731C1687C1643C1663C1654C1632C1574C1593C1740C1772C1798C1691
3551C1618C1545C1413C1542C1546C1535C1620C1574C1485C1525C1539C1454C1386
3538C1377C1363C1354C1299C1295C1371C1326C1275C1258C1243C1244C1140C1111
3525C1087C1054C1062C1104C1081C1051C0976C0946C0972C1007C1090C1030C0982
3512C1009C0958C0857C0880C0869C0787C0844C0925C0949C0956C0929C0859C0874
3499C0939C0984C0956C0875C0939C0929C0972C0955C0891C1004C1026C1045C1085
3486C1051C1053C1194C1248C1237C1233C1244C1280C1325C1297C1241C1225C1312
3473C1416C1379C1386C1334C1258C1277C1293C1251C1346C1453C1445C1390C1416
3460C1529C1512C1438C1329C1259C1320C1403C1409C1465C1493C1452C1456C1470
3447C1415C1333C1228C1255C1318C1310C1280C1291C1349C1317C1303C1307C1282
3434C1276C1274C1286C1309C1223C1204C1242C1265C1236C1223C1226C1214C1272
3421C1320C1328C1331C1314C1328C1347C1365C1375C1381C1405C1484C1515C1504
3408C1485C1461C1493C1515C1474C1499C1549C1581C1637C1654C1650C1635C1603
3395C1631C1674C1718C1648C1476C1498C1661C1646C1659C1706C1737C1708C1643
3382C1656C1695C1678C1635C1596C1663C1722C1684C1674C1802C1695C1643C1720
3369C1705C1654C1603C1565C1547C1593C1684C1644C1637C1593C1547C1613C1631
3356C1576C1616C1638C1661C1677C1634C1657C1634C1652C1661C1576C1610C1591
3343C1566C1624C1604C1636C1706C1634C1610C1599C1578C1559C1609C1629C1626
3330C1663C1676C1651C1652C1703C1670C1667C1691C1670C1608C1626C1738C1709
3317C1632C1593C1635C1705C1708C1644C1619C1593C1574C1627C1684C1712C1723
3304C1717C1642C1664C1747C1769C1666C1642C1667C1638C1678C1607C1583C1684
3291C1798C1768C1670C1691C1748C1764C1735C1667C1652C1682C1686C1671C1738
3278C1742C1613C1624C1690C1752C1836C1864C1803C1680C1613C1663C1684C1724
3265C1764C1825C1818C1735C1717C1734C1740C1677C1660C1714C1681C1661C1707
3252C1723C1725C1678C1663C1729C1718C1708C1718C1641C1616C1673C1748C1752
3239C1723C1733C1795C1837C1769C1672C1638C1657C1636C1688C1717C1691C1695
3226C1697C1763C1796C1751C1652C1624C1680C1680C1687C1699C1745C1689C1621
3213C1690C1773C1819C1791C1767C1763C1758C1708C1638C1651C1666C1701C1726
3200C1727C1735C1752C1752C1666C1600C1674C1767C1792C1782C1747C1766C1729
3187C1638C1656C1732C1749C1734C1694C1701C1733C1723C1745C1712C1656C1698
3174C1720C1738C1720C1651C1682C1751C1741C1751C1761C1692C1676C1687C1677
3161C1651C1731C1682C1658C1729C1781C1769C1712C1711C1803C1760C1656C1616
3148C1583C1650C1711C1720C1669C1599C1568C1612C1712C1743C1663C1610C1606
3135C1636C1710C1767C1777C1780C1712C1659C1701C1695C1625C1665C1674C1678
3122C1720C1737C1742C1705C1633C1627C1636C1653C1663C1683C1677C1656C1650
3109C1647C1663C1689C1726C1835C1843C1711C1658C1718C1729C1749C1740C1637
3096C1616C1621C1619C1663C1733C1769C1683C1603C1680C1732C1733C1732C1704
3083C1751C1781C1752C1688C1616C1604C1604C1669C1738C1734C1686C1709C1786
3070C1777C1700C1701C1704C1683C1626C1576C1596C1610C1638C1666C1704C1623
3057C1538C1596C1607C1627C1666C1621C1544C1549C1532C1615C1711C1721C1623
3044C1589C1610C1538C1532C1631C1610C1557C1604C1691C1758C1762C1697C1601
3031C1593C1627C1681C1718C1631C1575C1582C1567C1569C1564C1543C1584C1598
3018C1614C1661C1652C1585C1558C1621C1652C1650C1572C1564C1609C1640C1596
3005C1595C1615C1597C1579C1626C1618C1615C1652C1638C1625C1626C1609C1505
2992C1452C1522C1580C1578C1552C1527C1513C1526C1451C1405C1425C1408C1339
2979C1393C1455C1455C1487C1452C1392C1425C1451C1472C1474C1505C1549C1548
2966C1519C1517C1558C1502C1445C1453C1513C1506C1494C1464C1435C1513C1479
2953C1422C1474C1518C1440C1416C1417C1440C1481C1460C1344C1320C1349C1297
2940C1212C1218C1254C1231C1245C1279C1249C1169C1186C1219C1199C1170C1157
2927C1172C1210C1219C1150C1198C1277C1297C1301C1340C1425C1419C1347C1403
2914C1433C1454C1448C1461C1522C1529C1508C1451C1428C1511C1570C1552C1518
2901C1474C1488C1509C1512C1521C1487C1478C1557C1580C1535C1538C1519C1500
2888C1528C1540C1501C1513C1521C1519C1489C1468C1474C1458C1448C1454C1472
2875C1483C1470C1472C1496C1473C1422C1464C1548C1568C1598C1596C1578C1602
2862C1573C1533C1599C1687C1652C1600C1633C1678C1677C1661C1616C1604C1623
2849C1644C1688C1660C1595C1555C1598C1630C1572C1515C1475C1411C1377C1398
2836C1405C1421C1385C1320C1312C1255C1192C1175C1143C1056C1019C1051C1018
2823C0996C0946C0896C0876C0879C0838C0773C0825C0835C0745C0820C0922C0856
2810C0770C0795C0837C0840C0813C0780C0797C0818C0785C0723C0683C0657C0587
2797C0606C0689C0681C0622C0638C0648C0629C0623C0618C0562C0603C0713C0753
2784C0728C0688C0699C0715C0750C0783C0731C0773C0856C0859C0793C0773C0827
2771C0853C0897C0888C0871C0898C0881C0854C0897C0932C0920C0996C1034C0977
2758C1019C1005C0907C0908C0916C0895C0888C0882C0869C0897C0936C0920C0927
2745C0969C1011C0996C0888C0864C0897C0910C0971C0988C0990C0973C0982C0962
2732C0964C1030C0979C0896C0929C0983C0975C0956C0967C0970C0966C1000C1007
2719C0961C0992C1052C1096C1077C1032C1056C1110C1177C1212C1234C1242C1263
2706C1295C1305C1303C1291C1358C1426C1396C1403C1440C1442C1462C1468C1496
2693C1526C1540C1566C1603C1610C1653C1657C1606C1593C1613C1648C1632C1653
2680C1669C1655C1664C1670C1663C1620C1655C1653C1591C1597C1585C1557C1572
2667C1615C1629C1592C1513C1509C1567C1607C1582C1584C1606C1562C1469C1459
2654C1524C1513C1447C1439C1479C1477C1459C1455C1438C1422C1441C1443C1390
2641C1392C1449C1431C1399C1399C1397C1407C1462C1502C1495C1535C1563C1558
2628C1578C1580C1651C1668C1620C1586C1598C1643C1667C1635C1589C1584C1600
2615C1600C1596C1607C1616C1625C1651C1671C1656C1661C1638C1607C1614C1614
2602C1634C1638C1640C1687C1714C1664C1642C1635C1621C1578C1560C1563C1581
2589C1589C1612C1635C1602C1593C1610C1613C1615C1593C1587C1596C1627C1614
2576C1593C1644C1624C1565C1600C1660C1638C1607C1609C1629C1661C1661C1672
2563C1669C1621C1591C1583C1607C1647C1650C1642C1641C1619C1638C1604C1556
2550C1558C1560C1584C1576C1590C1610C1597C1619C1621C1587C1580C1619C1653
2537C1663C1683C1678C1654C1650C1661C1632C1615C1618C1642C1634C1627C1642
2524C1632C1659C1634C1587C1564C1568C1580C1586C1556C1521C1508C1553C1596
2511C1562C1584C1583C1573C1593C1593C1556C1525C1529C1513C1551C1593C1568
2498C1536C1527C1508C1530C1552C1593C1621C1586C1542C1519C1553C1517C1519
2485C1601C1627C1608C1614C1593C1590C1593C1607C1644C1640C1627C1666C1625
2472C1619C1661C1677C1657C1632C1644C1656C1676C1705C1684C1638C1614C1564
2459C1568C1568C1541C1589C1641C1668C1649C1561C1523C1550C1614C1646C1651
2446C1638C1682C1697C1678C1627C1635C1616C1572C1644C1754C1744C1670C1681
2433C1701C1715C1786C1764C1668C1603C1618C1638C1575C1584C1661C1651C1677
2420C1695C1728C1690C1598C1618C1686C1661C1625C1590C1584C1623C1718C1700
2407C1658C1625C1575C1575C1629C1712C1737C1701C1735C1749C1641C1655C1674
2394C1562C1510C1582C1638C1652C1649C1701C1695C1601C1610C1699C1747C1689
2381C1666C1692C1749C1731C1693C1678C1623C1616C1676C1707C1640C1609C1672
2368C1714C1683C1635C1633C1711C1745C1608C1619C1673C1632C1636C1656C1655
2355C1598C1624C1635C1615C1684C1747C1764C1667C1638C1735C1741C1674C1589
2342C1589C1660C1741C1715C1678C1673C1658C1693C1725C1758C1711C1580C1541
2329C1612C1678C1694C1722C1754C1716C1661C1573C1521C1559C1582C1532C1598
2316C1661C1657C1701C1686C1629C1661C1771C1741C1701C1675C1536C1556C1695
2303C1759C1732C1661C1632C1672C1687C1648C1640C1676C1642C1633C1661C1664
2290C1754C1764C1684C1632C1657C1660C1602C1585C1615C1704C1745C1708C1729
2277C1686C1576C1636C1668C1642C1647C1677C1633C1619C1663C1682C1697C1660
2264C1667C1659C1631C1567C1581C1684C1674C1674C1642C1635C1701C1745C1717
2251C1666C1693C1737C1745C1687C1642C1621C1539C1552C1649C1666C1630C1638
2238C1682C1733C1710C1732C1735C1695C1714C1735C1714C1735C1754C1710C1708
2225C1720C1684C1613C1566C1599C1644C1689C1734C1714C1674C1680C1687C1633
2212C1543C1565C1632C1716C1728C1692C1792C1867C1834C1883C1775C1778C1879
2199C1818C1689C1775C1880C1879C1721C1496C1417C1552C1690C1805C1776C1779
2186C1697C1470C1483C1573C1437C1317C1244C1160C1015C1054C1159C1308C1301
2173C1263C1318C1417C1292C1232C1227C1222C1189C1242C1216C1153C1140C1096
2160C0950C0914C0908C1044C1090C0984C0943C0986C0952C0982C0927C1108C1070
2147C1084C1047C1214C1237C1237C1249C1209C1157C1161C1194C1038C0989C0970
2134C1062C1030C1040C0965C0993C0998C0994C1013C1047C1075C1089C1017C1040
2121C1020C1050C1149C1110C0960C0875C0912C0944C1046C1225C1252C1290C1231
2108C1172C1192C1259C1243C1258C1180C1280C1241C1064C1104C1090C1057C0990
2095C1151C1387C1365C1448C1374C1329C1362C1327C1212C1267C1557C1651C1329
2082C1117C1172C1308C1316C1292C1204C1026C0950C1161C1288C1100C0899C1009
2069C1237C1320C1331C1411C1312C1030C0970C1010C0954C0999C1023C1112C1150
2056C1030C0954C0826C0905C1054C0954C0996C1178C1180C1172C1135C1078C1093
2043C1107C0930C0870C0996C1200C1119C0905C1093C1276C1263C1193C1211C1263
2030C1158C0952C0967C1258C1276C1097C0988C1011C1117C1022C1044C1231C1424
2017C1204C0735C0753C1175C1083C1081C1246C1295C0951C1030C1198C1066C1007
2004C0905C1103C1251C1198C1002C0827C0901C1223C1405C1294C1118C1112C1127
1991C1029C1185C1447C1364C1206C0995C0700C0680C1294C1303C1221C1337C1559
1978C1843C1789C1403C1411C1617C1668C1410C1249C1170C1155C1191C1123C1206
1965C1102C1017C0807C0784C1055C0931C0778C1054C1158C0979C0800C0722C0738
1952C0744C0746C0765C0848C0843C0816C0830C0806C0818C0835C0742C0592C0500
1939C0465C0411C0371C0530C0506C0544C0648C0545C0513C0597C0678C0851C0871
1926C0711C0641C0573C0546C0558C0651C0791C0794C0700C0732C0715C0617C0705
1913C0726C0692C0632C0534C0705C0805C0737C0746C0757C0852C0800C0755C0788
1900C1063C1087C0679C0489C0452C0533C0730C0854C0709C0645C0780C0850C0721
1887C0801C0854C0694C0820C0826C0628C0598C0683C0678C0779C0918C0882C1093
1874C1096C0975C0973C0835C0615C0655C1032C1075C1102C1050C0930C0921C1018
1861C1028C1047C1023C0795C0625C0982C1306C0740C0606C1009C1024C1240C1381
1848C0856C0602C0856C1212C1159C1293C1432C1226C1467C1704C1690C1415C1332
1835C1595C1563C1511C1576C1591C1382C1238C1184C1444C1712C1450C1263C1161
1822C1425C1415C1254C1301C1549C1354C0885C0920C1041C1033C1063C1158C0976
1809C1030C1202C1218C1187C1226C1261C1416C1532C1460C1337C1111C1216C1502
1796C1848C1842C1431C1539C1630C1598C1623C1576C1398C1483C1565C1650C1566
1783C1600C1529C1445C1290C1316C1407C1337C1189C1219C1317C1667C1578C1334
1770C1274C1332C1409C1440C1428C1471C1550C1667C1799C1738C1653C1572C1558
1757C1552C1439C1553C1624C1584C1607C1687C1658C1517C1512C1516C1579C1585
1744C1618C1597C1585C1586C1513C1506C1604C1621C1604C1498C1399C1473C1558
1731C1489C1448C1435C1466C1519C1507C1472C1485C1553C1583C1579C1589C1593
1718C1602C1566C1466C1375C1399C1522C1570C1573C1513C1525C1547C1553C1539
1705C1458C1433C1484C1533C1609C1627C1589C1560C1539C1545C1604C1590C1546
1692C1589C1570C1536C1593C1591C1501C1526C1574C1519C1536C1563C1543C1534
1679C1547C1545C1566C1567C1570C1576C1551C1549C1566C1529C1509C1541C1599
1666C1578C1556C1584C1548C1545C1566C1566C1569C1556C1511C1560C1633C1576
1653C1556C1559C1547C1604C1612C1603C1616C1616C1600C1560C1538C1521C1496
1640C1493C1479C1473C1487C1500C1476C1498C1508C1484C1496C1536C1572C1559
1627C1540C1536C1532C1551C1536C1532C1565C1552C1544C1547C1530C1502C1491
1614C1470C1513C1556C1547C1524C1530C1522C1507C1490C1488C1484C1517C1551
1601C1495C1442C1489C1525C1555C1572C1587C1575C1553C1576C1604C1608C1604
1588C1606C1608C1641C1694C1692C1669C1675C1687C1649C1632C1673C1677C1664
1575C1654C1660C1666C1677C1658C1630C1610C1599C1608C1612C1607C1576C1575
1562C1591C1586C1583C1576C1550C1553C1553C1539C1519C1518C1538C1530C1502
1549C1492C1489C1502C1481C1466C1481C1483C1474C1468C1443C1384C1388C1388
1536C1341C1324C1331C1311C1263C1225C1200C1164C1125C1069C0928C0801C0713
1523C0560C0471C0427C0243C0075B9961B9783B9493B9211B8921B8671B8322B7878
1510B7464B6925B6474B6211B5999B5149B4754B4650B4380B4066B3366B3035B2720
1497B2406B2190B2078B2013B2108B2352B2676B2957B3278B3721B4259B4752B5235
1484B5733B6221B6675B7025B7331B7707B8082B8425B8669B8851B9029B9178B9375
1471B9588B9793B9895B9993C0077C0145C0249C0355C0461C0523C0568C0624C0688
1458C0736C0746C0691C0748C0848C0913C0960C0976C0952C0948C0990C1039C1054
1445C1046C1054C1080C1121C1145C1157C1178C1142C1182C1285C1350C1387C1426
1432C1426C1430C1430C1485C1556C1585C1578C1589C1644C1686C1718C1747C1786
1419C1807C1744C1768C1832C1823C1788C1786C1784C1715C1614C1502C1365C1080
1406C0860C0587C0290B9944B9708B9565B9394B9202B9046B8807B8476B8176B7976
1393B7869B7759B7596B7332B7060B6781B6603B6508B6458B6405B6310B6171B6014
1380B5794B5570B5398B5217B4855B4798B4731B4596B4443B4342B4177B3962B3878
1367B3849B3867B3964B4096B4329B4592B4873B5099B5400B5791B6234B6613B6962
1354B7355B7795B8198B8601B8913B9215B9521B9761B9841B9969C0098C0154C0173
1341C0121C0115C0087B9858B9711B9666B9566B9239B8883B8361B7945B7544B7079
1328B6580B5971B5316B4735B4159B3540B3215B2863B2545B2314B2370B2596B2912
1315B3391B3980B4661B5362B5942B6488B6907B7078B6890B6607B6010B4879B3844
1302B3205B2925B2795B3176B3950B4952B6311B7481B8405B9511C0151C0472C0941
1289C1314C1574C1726C1769C1761C1575C1401C1052C0740C0347B9819B9313B8813
1276B8431B7919B7426B6923B6372B6071B5601B5084B4458B4015B3524B2935B2207
1263B1455B0693A9706A8759A8242A7755A7555A7582A7843A8260A8801A9449B0099
1250B0714B1319B1897B2444B2920B3337B3651B3896B4119B4306B4479B4629B4826
1237B5111B5457B5902B6484B7108B7885B8741B9197B9211B9093B8638B8039B7499
1224B6960B6686B6553B6516B6516B6450B6414B6527B6920B7298B7488B7454B7282
1211B7000B6792B6727B6677B6453B6146B5607B4827B3808B2590B1252B0018A8806
1198A7804A7208A6827A6690A6712A6857A7207A7739A8484A9420B0615B1879B2923
1185B3848B4569B5066B5178B5150B4922B4670B4506B4407B4498B4782B5219B5771
1172B6397B7096B7835B8548B9204B9758C0224C0640C0979C1231C1297C1519C1653
1159C1689C1728C1715C1699C1533C1382C1126C0752C0376B9885B9250B8528B7636
1146B6630B5659B4538B3427B2445B1593B0959B0561B0455B0578B0948B1512B2193
1133B2866B3494B3960B4198B4161B3802B2972B2135B1193B0288A9441A8610A7815
1120A7152A6593A6174A5857A5650A5516A5479A5565A5737A5978A6253A6517A6717
1107A6853A6929A6880A6755A6595A6419A6279A6200A6157A6157A6222A6373A6620
1094A6951A7370A7891A8509A9197A9891B0590B1340B2080B2754B3395B4014B4564
1081B5034B5404B5697B5925B6097B6240B6377B6503B6621B6747B6828B6792B6674
1068B6457B6092B5624B5159B4763B4521B4440B4497B4725B5148B5732B6397B7073
1055B7733B8318B8824B9285B9672B9996C0273C0513C0751C0967C1123C1250C1356
1042C1453C1539C1631C1712C1748C1742C1734C1722C1700C1642C1506C1354C1189
1029C0973C0699C0362C0000B9625B9225B8821B8396B7969B7547B7147B6857B6715
1016B6715B6888B7170B7524B7959B8472B8969B9386B9788C0102C0321C0514C0638
1003C0712C0745C0719C0635C0499C0342C0182B9991B9754B9539B9338B9170B9085
990B9171B9380B9642B9897C0152C0435C0705C0914C1100C1244C1370C1502C1601
977C1681C1733C1741C1733C1729C1708C1711C1650C1576C1456C1316C1158C0919
964C0642C0306B9893B9417B8917B8440B8017B7633B7206B6755B6308B5878B5478
951B5180B5037B5031B5149B5372B5691B6103B6558B6988B7373B7727B8023B8209
938B8309B8357B8422B8454B8488B8538B8557B8595B8656B8716B8826B9023B9247
925B9482B9740C0024C0303C0585C0893C1159C1382C1538C1633C1678C1692C1666
912C1596C1508C1410C1263C1114C0955C0771C0567C0325C0045B9770B9528B9239
899B8878B8531B8151B7737B7377B7009B6638B6276B5888B5504B5214B5023B4886
886B4781B4711B4669B4640B4526B4380B4257B4105B3975B3850B3687B3543B3382
873B3250B3104B2958B2833B2707B2535B2364B2221B2042B1754B1445B1184B0932
860B0635B0329B0035A9764A9432A9033A8612A8205A7792A7355A6962A6568A6154
847A5810A5594A5428A5231A5015A4821A4610A4380A4170A3927A3644A3369A3119
834A2843A2564A2279A2016A1810A1662A1545A1477A1477A1507A1582A1637A1677
821A1732A1724A1649A1526A1429A1345A1258A1177A1122A1086A1011A0855A0607
808A0249I823I441I135H919H864H934I033I151I358I577I776I989A0258A0545
793A0824A1098A1393A1717A2070A2428A2782A3182A3639A4099A4540A4962A5397
780A5870A6288A6696A7092A7458A7827A8210A8583A8887A9231A9622A9997B0325
767B0601B0882B1065B1134B1195B1274B1385B1558B1752B1933B2081B2205B2315
754B2339B2370B2383B2341B2258B2145B2012B1841B1641B1406B1123B0809B0550
741B0411B0422B0629B1028B1610B2330B3094B3836B4512B5080B5551B5966B6351
728B6704B7005B7301B7609B7872B8065B8260B8455B8660B8830B8985B9131B9262
715B9399B9490B9563B9622B9615B9541B9438B9387B9284B9188B9079B8972B8883
702B8929B9137B9420B9734B9986C0123C0215C0206C0092B9926B9702B9444B9243
689B9096B9021B8994B8989B8989B8964B8927B8915B9012B9171B9358B9635B9907
676C0185C0392C0551C0680C0802C0969C1057C1072C1121C1292C1405C1468C1535
663C1570C1548C1553C1635C1671C1640C1668C1690C1670C1644C1557C1442C1309
650C1075C0788C0414B9833B9203B8392B7295B6148B4940B3755B2923B2553B2669
637B3239B4078B4701B4845B4451B3489B2256B1035B0017A9284A8885A9032A9931
624B1516B3483B5451B7082B8279B9179B9899C0361C0630C0962C1308C1484C1570
611C1677C1764C1796C1634C1385C1050C0612C0011B9258B8413B7403B6323B5412
598B4788B4782B5553B6789B8112B9273C0069C0512C0718C0698C0301B9535B8566
585B7658B7251B7318B7868B8887B9866C0580C0973C1290C1552C1648C1735C1667
572C1435C1144C0679B9895B8735B7401B6305B5612B5599B6209B7263B8400B9310
559C0027C0573C0945C1199C1271C1289C1237C1034C0757C0351B9744B8805B7718
546B6692B5874B5365B4926B4253B3183B1687A9904A7931A6026A4563A3654A3327
533A3826A4969A6440A8073A9731B1262B2508B3638B4532B5228B5901B6526B7189
520B7840B8427B8874B9151B9345B9640B9940C0153C0310C0516C0678C0730C0763
507C0828C0913C0998C1087C1141C1201C1245C1274C1318C1391C1455C1513C1563
494C1616C1689C1735C1735C1712C1677C1678C1677C1660C1570C1494C1410C1296
481C1050C0732C0369B9850B9190B8630B8063B7352B6444B5305B4352B3534B3202
468B3314B3788B4526B5244B5980B6834B7596B8164B8634B9005B9332B9427B9737
455C0017C0210C0339C0486C0642C0696C0814C0964C1113C1234C1266C1345C1485
442C1589C1610C1618C1642C1648C1637C1576C1559C1545C1517C1496C1214C0806
429C0250B9707B9294B8972B8720B8503B8445B8670B9021B9395B9762C0012C0156
416C0244C0428C0527C0323C0115B9919B9360B8655B7934B7153B6431B6156B6274
403B6772B7500B8253B8950B9583B9976C0364C0705C0939C1038C1079C1172C1299
390C1345C1403C1478C1570C1579C1560C1540C1484C1509C1541C1567C1580C1465
377C1390C1411C1388C1337C1274C1241C1171C0892C0581C0478C0637C0893C1187
364C1419C1517C1654C1585C1576C1653C1659C1567C1532C1576C1586C1593C1411
351C0937C0246B9542B9063B8896B8794B8671B8604B8664B8664B8727B9139B9629
338B9964C0321C0652C0916C1089C1215C1354C1444C1516C1552C1569C1565C1657
325C1742C1796C1767C1691C1439C1284C1432C1547C1430C1524C1699C1674C1600
312C1553C1500C1677C1677C1670C1764C1760C1735C1695C1542C1610C1817C1735
299C1489C1474C1350C1223C1113C0934C0859C0749C0524C0216B9927B9312B8465
286B7385B6132B4927B3466B1998B1161B0812B1051B2207B3774B5542B7108B7971
273B8520B9075B9620C0001C0284C0572C0772C0893C0822C1013C1437C1625C1615
260C1431C1373C1551C1498C1302C1445C1426C1337C1138C0973C1236C1237C1013
247C1037C1170C0875C0554C0401C0206C0099B9895B9580B9322B9094B8904B8635
234B8466B8412B8589B8678B8739B9278B9458B9528B9864B9961B9892B9914C0001
221C0107C0152C0159C0411C0441C0435C0406C0526C0450C0062B9699B9593B9458
208B9518B9626B9319B8796B8688B8463B8398B8290B8066B8188B8171B8261B8645
195B9161B9518B9394B9470B9770C0186C0358C0407C0450C0567C0580C0438C0639
182C1013C1089C1091C0973C0937C1352C1286C0750C0920C1386C1257C1034C1144
169C0871C0956C1455C1126C1291C1818C1509C1391C1487C1453C1632C2000C1956
156C1490C0983C1039C1400C0785B9802C0198C0683C0390C0308C0304B9870B9521
143B9404B9404B9495B9730B9937C0041B9893B9373B9226B9517C0005C0121B9454
130B9105B8540B8499B8928B8953B8938B8686B9245C0639C1517C1709C1722C1431
117C0888C0087B9438B9421B9554B9053B8699B9026B8149B7359B6931B6175B4851
104B5720B6262B6363B6010B5368B5887B6658B7813B7913B7647B7528B7272B6465
91B5765B5154B5763B7243B7754B7641B6747B6157B7045C1746B9777B6952B5246
78B2344B3128B4839B4428B4262B4238B3213B1896B1114B0073B1882B1784B1330
65B1633B1383B1263B1087B1530B2028B1734B0905A7647I620A4909B0546B2199
52B4080B4667B4230B2042B0689B1995B3196B3514B4318C1556B9083B2877B1953
39B0596A9468A8402B0265B1652A6919A4827A6544A8126B2622B5532B2405B0770
26B4040B6124B3292B0640B3891B4306B1129A9741A6464B2772B7622B5402B3981
13B4015B1792B0921B2171A9981A9862A9782A5334A1413B1254B0995A5850A2356
$$ === CHEMSPECTRA INTEGRALS AND MULTIPLETS ===
##$OBSERVEDINTEGRALS= (X Y Z)

##$OBSERVEDMULTIPLETS=
##$OBSERVEDMULTIPLETSPEAKS=
$$ === CHEMSPECTRA SIMULATION ===
##$CSSIMULATIONPEAKS=
##END=


$$ === CHEMSPECTRA PEAK TABLE EDIT ===
##TITLE=[Cu(TMG2Meequ)2](BF4)2
##JCAMP-DX=5.00
##DATA TYPE=INFRAREDPEAKTABLE
##DATA CLASS=PEAKTABLE
##$CSCATEGORY=EDIT_PEAK
##$CSTHRESHOLD=0.93
##MAXX=4000.433
##MAXY=101.01122961585857
##MINX=249.7859
##MINY=27.980110603592824
##$CSSOLVENTNAME=- - -
##$CSSOLVENTVALUE=0
##$CSSOLVENTX=0
##NPOINTS=41
##PEAKTABLE= (XY..XY)
441.70638673180747, 88.59316157495896
473.53239709436866, 89.68534549518043
518.8603512471072, 65.69517846141402
580.5835228593469, 90.29141287287558
603.7297122137779, 96.20688300725429
639.4134208022624, 82.5640538072624
656.7730628182048, 89.78951332572179
701.136592414502, 73.24261127427394
763.8241885831831, 42.0680205340796
792.7569252764206, 80.80582709176136
812.0454164052453, 86.02053182068006
824.5829356389818, 78.22688413563147
853.5156723322189, 59.61240847798403
865.088767009514, 71.19082067270182
906.5590229364875, 91.2731157607047
926.8119386217536, 91.17210453108885
963.4600717665207, 64.42938149029028
1023.2543942658781, 27.980110603592824
1164.0603795062998, 79.01287776607987
1204.566210876832, 91.80973791803895
1229.6412493443045, 84.33175032553991
1273.0403543841603, 77.14732661911198
1307.7596384160452, 51.00120115323209
1323.1904313191048, 48.86102572574609
1346.336620673695, 64.56827193101209
1383.9491783749036, 77.04631538949612
1401.308820390846, 52.683669446521236
1423.4905851889944, 83.38161344696574
1461.103142890203, 55.41412924707491
1502.5733988171764, 71.95471809667175
1520.8974653895602, 70.43639305150838
1567.1898440987397, 75.28177547214409
1689.671762766778, 69.4862561729342
2792.0090307789606, 99.11411245963572
2892.3091846488633, 97.42533096449559
2937.6371388016078, 96.47203748499592
3016.7199524298003, 99.18671428092212
3072.6565767034, 98.3502150356658
3122.8066536383512, 98.924716404106
3555.8332794805274, 98.49857527916409
3631.0583948829544, 97.18227269323243
##END=


$$ === CHEMSPECTRA PEAK TABLE AUTO ===
##TITLE=[Cu(TMG2Meequ)2](BF4)2
##JCAMP-DX=5.00
##DATA TYPE=INFRAREDPEAKTABLE
##DATA CLASS=PEAKTABLE
##$CSCATEGORY=AUTO_PEAK
##$CSTHRESHOLD=0.93
##MAXX=4000.433
##MAXY=101.01122961585857
##MINX=249.7859
##MINY=27.980110603592824
##NPOINTS=60
##PEAKTABLE= (XY..XY)
450.38620773977846, 92.9871500632488
358.76587487786037, 92.87035582900546
386.7341870146565, 92.81985021419753
434.9554148367188, 92.78512760401709
379.01879056312646, 92.25481864853383
1204.566210876832, 91.80973791803895
906.5590229364875, 91.2731157607047
926.8119386217536, 91.17210453108885
355.8726012085367, 90.59444656172315
368.4101204422727, 90.55025414876621
580.5835228593469, 90.29141287287558
372.26781866803776, 89.95996977569854
656.7730628182048, 89.78951332572179
473.53239709436866, 89.68534549518043
439.7775376189252, 88.92460467213598
441.70638673180747, 88.59316157495896
812.0454164052453, 86.02053182068006
1229.6412493443045, 84.33175032553991
1423.4905851889944, 83.38161344696574
329.8331381846233, 82.56721040818789
639.4134208022624, 82.5640538072624
792.7569252764206, 80.80582709176136
345.263931087683, 80.07980887889737
335.6196855232706, 79.40113967991583
1164.0603795062998, 79.01287776607987
350.0860538698894, 78.44468959949066
824.5829356389818, 78.22688413563147
1273.0403543841603, 77.14732661911198
1383.9491783749036, 77.04631538949612
262.3234192337359, 75.6984467943095
1567.1898440987397, 75.28177547214409
701.136592414502, 73.24261127427394
1502.5733988171764, 71.95471809667175
865.088767009514, 71.19082067270182
324.0465908459755, 70.53109107927324
1520.8974653895602, 70.43639305150838
1689.671762766778, 69.4862561729342
312.47349616868087, 67.33029774082073
308.61579794291583, 66.56640031685079
259.4301455644122, 66.03924796229303
518.8603512471072, 65.69517846141402
274.86093846747235, 65.56260122254321
295.11385415273844, 65.31007314850355
271.0032402417073, 65.15224310222878
1346.336620673695, 64.56827193101209
963.4600717665207, 64.42938149029028
315.36676983800453, 63.36245037747278
853.5156723322189, 59.61240847798403
284.5051840318847, 58.08777023096967
1461.103142890203, 55.41412924707491
1401.308820390846, 52.683669446521236
266.1811174595009, 51.97027763735923
1307.7596384160452, 51.00120115323209
1323.1904313191048, 48.86102572574609
280.6474858061197, 46.802921922322966
763.8241885831831, 42.0680205340796
1046.4005836204678, 36.228308821912776
253.6435982257649, 36.026286362681056
302.82925060426805, 30.366500903267482
1023.2543942658781, 27.980110603592824
##END=

##END=

