##TITLE=DMK- HES 2
##JCAMP-DX=4.24
##DATA TYPE=INFRARED SPECTRUM
##DATE=18/4/2019
##SAMPLING PROCEDURE=Diamant-ATR
##ORIGIN=Rieke
##XUNITS=1/CM
##YUNITS=TRANSMITTANCE
##RESOLUTION=4
##FIRSTX=3997.453
##LASTX=373.96442
##DELTAX=-1.4165319
##MAXY=1.0113164
##MINY=0.40687969
##XFACTOR=1
##YFACTOR=9.4186181e-010
##NPOINTS=2559
##FIRSTY=0.99882758
##XYDATA=(X++(Y..Y))
3997+1060482084+1060613524+1060807679+1060948422+1061037210+1061160550
3989+1061213139+1060974495+1060467718+1060007265+1059918288+1060302041
3980+1060962155+1061520952+1061726877+1061647076+1061485892+1061315849
3972+1061084356+1060768760+1060449746+1060307357+1060485058+1060835651
3963+1060948739+1060609221+1060070739+1059718248+1059682049+1059901708
3955+1060277361+1060655102+1060865268+1060852737+1060664658+1060331658
3946+1059903100+1059603261+1059751788+1060350960+1060877481+1060779391
3938+1059990558+1058921251+1058252657+1058581037+1059810452+1060972154
3929+1061209975+1060649216+1059895442+1059308801+1058897709+1058504147
3921+1058001990+1057434523+1057032924+1057001662+1057235432+1057416551
3912+1057395794+1057327953+1057437814+1057707909+1057858525+1057629564
3904+1057171199+1057162909+1058135455+1059672873+1060738763+1060792807
3895+1060182561+1059569151+1059424104+1059737359+1059992520+1059868737
3887+1059681353+1059967333+1060726043+1061416153+1061726877+1061563478
3878+1060790972+1059611235+1058570532+1058046605+1057934086+1058093245
3870+1058637359+1059275071+1059401892+1059054653+1058768673+1058801771
3861+1058921314+1058878851+1058627867+1058225698+1057932820+1058379351
3853+1059839943+1061019237+1060932032+1059957524+1058768990+1057970284
3844+1057951552+1058631094+1059513714+1060166044+1060343619+1059806908
3836+1058690961+1057698860+1057380416+1057631020+1057927441+1057974778
3827+1057931808+1057969905+1057962690+1057823086+1057812201+1058102927
3819+1058406500+1058657800+1059032947+1059254567+1059007570+1058552116
3810+1058196271+1058004837+1058011862+1058030784+1057576912+1056693849
3802+1056159543+1056394516+1056817316+1057159808+1057746956+1058389920
3793+1058445799+1057846248+1057178983+1056966982+1057248216+1057809417
3785+1058502818+1059111166+1059319623+1059144580+1059010418+1059113127
3776+1059156350+1058926820+1058462443+1057788723+1057020330+1056508870
3768+1056452041+1056707202+1057117724+1057457305+1057410349+1057092664
3759+1057208283+1058080841+1058907582+1058883723+1058211269+1057720060
3751+1057861120+1057835743+1056706126+1054791979+1053257852+1053280698
3742+1054486255+1055542969+1056083729+1056435018+1056943377+1057605896
3734+1057995155+1057858588+1057414399+1056887751+1056382049+1056057403
3725+1055966338+1055853629+1055616378+1055602582+1055988740+1056391605
3717+1056389327+1056023989+1055802306+1056397934+1057816568+1058930490
3708+1059067880+1058710769+1058228356+1057502996+1056518300+1055684788
3700+1055424565+1055643274+1055869071+1055731302+1055284644+1054883868
3691+1054884564+1055589356+1056898382+1057959526+1058256138+1058129190
3683+1057873966+1057335294+1056431601+1055603848+1055502784+1056315412
3674+1057137279+1057010268+1056340852+1056023167+1056184667+1056180111
3666+1055881664+1055719088+1055846035+1056005764+1055987854+1055874197
3657+1055868374+1055969375+1055812432+1055100362+1054038459+1053380117
3649+1053909170+1055127637+1055766867+1055554423+1054931204+1054234069
3640+1053592244+1053212668+1053345564+1053869238+1054276912+1054237296
3632+1053972770+1054095794+1055174910+1056837757+1057906747+1058013128
3623+1057522235+1056882561+1056518553+1056702139+1057192905+1057435409
3615+1057253152+1056880030+1056631261+1056671257+1056937618+1057185185
3606+1057113927+1056582406+1055746490+1055027079+1054786094+1054871274
3598+1054898296+1055031699+1055721936+1056633856+1056828011+1056179668
3589+1055615366+1055972730+1056873702+1057267517+1056995207+1056543930
3581+1056166378+1055847934+1055662955+1055783574+1056107651+1056185933
3572+1055728897+1055014106+1054573777+1054623518+1054903043+1055101184
3564+1055216424+1055284011+1055232562+1055029167+1054718760+1054387532
3555+1054175088+1054212679+1054426832+1054538211+1054413479+1054264888
3547+1054363231+1054607064+1054565993+1054091237+1053564146+1053447387
3538+1053795006+1054207743+1054264888+1054014727+1053872275+1054069847
3530+1054456702+1054785588+1054932849+1054869945+1054701167+1054650856
3521+1054781538+1054937469+1055069226+1055249458+1055333816+1055039799
3513+1054398227+1053765768+1053424352+1053396191+1053541111+1053650339
3504+1053555666+1053276521+1052981745+1052786451+1052725445+1052857708
3496+1053174887+1053471435+1053554021+1053502697+1053455108+1053281837
3488+1052829927+1052350995+1052250880+1052545529+1052934662+1053213933
3479+1053290507+1053064773+1052643113+1052435922+1052725129+1053279938
3471+1053615153+1053510988+1053177102+1052956052+1052922954+1052829800
3462+1052472563+1051992175+1051725497+1051857127+1052243665+1052479714
3454+1052254677+1051752836+1051498751+1051754101+1052305936+1052791134
3445+1052947192+1052636848+1051977303+1051359969+1051069623+1051006592
3437+1050951789+1050919704+1051116833+1051625635+1052215947+1052511419
3428+1052347894+1051910476+1051540645+1051486031+1051787578+1052257651
3420+1052531354+1052270181+1051504636+1050783264+1050718398+1051262133
3411+1051722270+1051583551+1051006466+1050497727+1050377741+1050546898
3403+1050618916+1050377108+1050041703+1049911655+1049968041+1050046387
3394+1050117328+1050170676+1050074738+1049753572+1049402157+1049368363
3386+1049742940+1050145552+1050125428+1049701173+1049268122+1049109406
3377+1049226101+1049480123+1049713387+1049825209+1049814388+1049738257
3369+1049715602+1049925704+1050430330+1051035070+1051476538+1051660884
3360+1051624939+1051408571+1051082660+1050800667+1050701438+1050739281
3352+1050712322+1050526458+1050310913+1050202001+1050193395+1050297307
3343+1050609550+1051088672+1051467742+1051488879+1051120060+1050571389
3335+1050179789+1050179915+1050508928+1050866545+1050977039+1050821677
3326+1050669669+1050801932+1051128920+1051226567+1050851610+1050254401
3318+1049881405+1049934184+1050273639+1050596197+1050632395+1050314267
3309+1049858687+1049607893+1049683264+1049874571+1049936589+1049833246
3301+1049627574+1049402916+1049384817+1049784834+1050460769+1051085887
3292+1051595892+1052083177+1052382826+1052176205+1051448061+1050596766
3284+1050125301+1050253135+1050740990+1051145184+1051244033+1051091709
3275+1050772126+1050349706+1050001961+1049960320+1050289650+1050780669
3267+1051038487+1050803515+1050336416+1050264906+1050795477+1051355350
3258+1051340225+1050894833+1050539811+1050416027+1050400080+1050583034
3250+1051051397+1051449326+1051299027+1050663467+1050087774+1049892797
3241+1049895201+1049872989+1049908301+1050104924+1050342365+1050548734
3233+1050870532+1051335795+1051651645+1051577666+1051292319+1051143349
3224+1051132970+1050924577+1050406535+1049973294+1050040944+1050506144
3216+1050976786+1051291876+1051497485+1051527039+1051267891+1050838194
3207+1050490702+1050302117+1050234466+1050379070+1050808261+1051275992
3199+1051412305+1051154107+1050747698+1050440455+1050339138+1050422419
3190+1050565124+1050663657+1050753141+1050948624+1051331112+1051838838
3182+1052211897+1052201518+1051931992+1051838332+1052142854+1052577677
3173+1052706207+1052353589+1051688792+1050999125+1050463997+1050143084
3165+1050096064+1050374323+1050898947+1051464198+1051914209+1052230945
3156+1052438706+1052540973+1052580842+1052663174+1052871378+1053195707
3148+1053499786+1053553451+1053227603+1052690323+1052259613+1052085709
3139+1052148423+1052437757+1052891059+1053262598+1053323731+1053136600
3131+1052939788+1052825307+1052676400+1052370359+1051977114+1051755557
3122+1051860671+1052044321+1051878391+1051334339+1050837878+1050671125
3114+1050672517+1050602905+1050405333+1050052272+1049528725+1049024669
3105+1048818427+1048924047+1049083649+1049131808+1049180157+1049417472
3097+1049887101+1050471274+1050966787+1051151386+1050926665+1050406978
3088+1049765469+1049047831+1048209952+1047181716+1045842630+1044142889
3080+1042253486+1040423380+1038737942+1037155466+1035655512+1034279974
3071+1033179151+1032634404+1032897285+1033935140+1035335359+1036499085
3063+1037058072+1037144644+1037220268+1037640030+1038370705+1039074042
3054+1039465706+1039542722+1039375590+1038798188+1037502767+1035356242
3046+1032464360+1028968876+1024907572+1020346705+1015610794+1011162888
3037+1007191700+1003652740+1000876415+999712245+1000789020+1003820633
3029+1007720184+1011231362+1013577990+1014842655+1015730147+1016795151
3020+1017891418+1018379526+1017783709+1016144847+1013850997+1011456779
3012+1009741217+1009486879+1010833243+1013072352+1015313360+1017194662
3003+1018832702+1020304747+1021451198+1022141688+1022419820+1022267623
2995+1021573462+1020524975+1019692350+1019478577+1019714309+1019850812
2986+1019339858+1017883127+1015510236+1012352309+1008295181+1003020345
2978+996392690+988674338+980379787+971991575+963747778+955644787+947618685
2968+939648021+931734438+924021845+916962848+911081373+906408240+902298776
2958+897961428+893170840+888554852+885332755+884674223+886964276+891408575
2948+896315478+899918354+901141251+899742172+895869707+889647195+881230189
2938+871013581+859502438+847107283+834358181+822237171+811948166+804233231
2928+799036488+795843628+794262923+794284756+796100307+799789566+805306842
2918+812719912+822164964+833391900+845557208+857630312+868835540+878675104
2908+886822900+893137806+897622036+900306411+901261111+900653017+898706152
2898+895742000+892401435+889765916+889070932+891105888+895795411+902414586
2888+910182932+918539628+926964165+934876481+941807456+947522810+952007357
2878+955428925+957986732+959724317+960612063+960799763+960578143+960058772
2868+958986111+956834143+953010090+947056788+938857859+928735037+917280722
2859+905073077+892700071+881105773+871614208+865424604+863291116+865694257
2849+872853306+884256676+898429981+913443000+927692498+940250673+950740921
2839+959189062+965998721+971758185+976839625+981283797+985089498+988400699
2829+991358460+993963540+996142656+997857332+999163384+1000192949+1001073417
2819+1001928888+1002965541+1004351964+1005934630+1007282766+1008142224
2810+1008709184+1009302533+1009921639+1010356652+1010641240+1011059926
2802+1011690296+1012269786+1012596204+1012786626+1013078744+1013552297
2793+1014078376+1014472001+1014704126+1014957009+1015428157+1016137506
2785+1016949501+1017681948+1018200306+1018541533+1018906680+1019381056
2776+1019752912+1019800691+1019668492+1019721080+1020103821+1020676983
2768+1021294190+1021919878+1022539617+1023160811+1023830228+1024518376
2759+1025057365+1025285883+1025241900+1025175009+1025331194+1025703936
2751+1026077437+1026340825+1026610983+1026980688+1027315206+1027395577
2742+1027177817+1026872346+1026796405+1027126177+1027740980+1028305029
2734+1028548608+1028492855+1028369705+1028315787+1028250605+1028103913
2725+1028020505+1028214343+1028687770+1029198660+1029505587+1029585514
2717+1029578870+1029611334+1029739547+1029996796+1030356691+1030715194
2708+1031000794+1031212479+1031332718+1031321137+1031211909+1031120970
2700+1031141031+1031259625+1031384421+1031459539+1031527949+1031627621
2691+1031699828+1031645277+1031414165+1031052750+1030739622+1030691083
2683+1030921943+1031191659+1031277345+1031211846+1031168243+1031192481
2674+1031186343+1031138880+1031188937+1031391003+1031604396+1031687551
2666+1031644265+1031548516+1031477512+1031489662+1031577437+1031697993
2657+1031842027+1031989288+1032076620+1032110160+1032190531+1032343741
2649+1032422340+1032224957+1031710523+1031123628+1030845559+1031038132
2640+1031484789+1031813043+1031830636+1031659263+1031597055+1031822535
2632+1032267041+1032798942+1033387735+1033986084+1034426666+1034597406
2623+1034622656+1034709481+1034821873+1034690496+1034227575+1033756110
2615+1033678018+1034068985+1034714291+1035347889+1035752336+1035800305
2606+1035535336+1035217018+1035229991+1035763854+1036519400+1036947325
2598+1036868600+1036594391+1036420360+1036316765+1036140013+1035871499
2589+1035657537+1035737338+1036232724+1036930618+1037428535+1037526499
2581+1037343102+1037075475+1036847779+1036757790+1036839742+1036937453
2572+1036817087+1036471304+1036166149+1036161023+1036491745+1036974284
2564+1037311903+1037294690+1037022633+1036824301+1036857145+1036924163
2555+1036793419+1036555851+1036469215+1036555788+1036645524+1036830060
2547+1037472897+1038562582+1039432925+1039472287+1038877293+1038355644
2538+1038276033+1038470694+1038740093+1039103532+1039515257+1039729030
2530+1039607715+1039325342+1039190738+1039471781+1040323708+1041585968
2521+1042729128+1043287481+1043264952+1042933218+1042465804+1041979594
2513+1041632482+1041432252+1041212467+1040949459+1040769860+1040594057
2504+1040266183+1040072851+1040493942+1041393649+1042125083+1042440680
2496+1042671729+1043114273+1043746226+1044338373+1044511960+1044024358
2487+1043141359+1042327971+1041663364+1040997618+1040456098+1040323519
2479+1040617029+1041084823+1041460033+1041540214+1041231515+1040704930
2470+1040402307+1040659050+1041307329+1041802272+1041818663+1041603624
2462+1041657036+1042136221+1042684386+1042860189+1042625912+1042270763
2453+1042006996+1041895046+1042024019+1042423340+1042858606+1043011184
2445+1042882464+1042805638+1042973973+1043123576+1042893286+1042353601
2436+1041865556+1041605586+1041597612+1041915487+1042466753+1042903981
2428+1042990806+1042720648+1042114958+1041330428+1040768404+1040658227
2419+1040770239+1040788465+1040708791+1040746951+1041026349+1041401939
2411+1041633304+1041780756+1042199252+1043003780+1043817230+1044164659
2402+1043909815+1043305644+1042776717+1042588258+1042669767+1042785197
2394+1042747164+1042443971+1041914095+1041426746+1041242843+1041345300
2385+1041591600+1041957444+1042429415+1042874301+1043224640+1043579916
2377+1043929812+1044036952+1043817040+1043560931+1043508975+1043559665
2368+1043655350+1044002209+1044644603+1045277442+1045568294+1045318387
2360+1044535249+1043661995+1043271723+1043375066+1043534225+1043483598
2351+1043182050+1042643251+1042055851+1041789616+1042042814+1042474663
2343+1042536998+1042208048+1041841761+1041539138+1041127160+1040509890
2334+1039772379+1039044109+1038445380+1038140732+1038231165+1038509867
2326+1038604856+1038462720+1038429939+1038751991+1039292435+1039857813
2317+1040388827+1040783212+1040922057+1040822702+1040530710+1040034185
2309+1039448429+1039056259+1039046514+1039370147+1039819716+1040143096
2300+1040211443+1040152399+1040197647+1040356300+1040365919+1040021085
2292+1039478932+1039149540+1039259147+1039636446+1040032476+1040452238
2283+1040928259+1041192153+1040947054+1040355224+1039939765+1040098101
2275+1040884403+1042002439+1042834559+1042818231+1042078760+1041432695
2266+1041558440+1042335692+1043123766+1043490749+1043492394+1043413986
2258+1043537705+1044105235+1045124548+1046092664+1046218536+1045164417
2249+1043436641+1041961938+1041382890+1041751139+1042671033+1043588206
2241+1044066758+1044028472+1043811598+1043899626+1044527718+1045553866
2232+1046653676+1047557496+1048154769+1048552571+1049081814+1050049487
2224+1051407369+1052856633+1054261091+1055520756+1056039494+1055052709
2215+1052790691+1050640052+1049793947+1050249844+1051343516+1052636025
2207+1053923092+1054877792+1055205856+1054990564+1054512138+1053871769
2198+1053145270+1052707599+1052862012+1053224565+1053169445+1052927194
2190+1053509152+1055341157+1057566533+1058982699+1059342025+1059449861
2181+1060102191+1061130490+1061726877+1061617143+1061080369+1060155286
2173+1058407576+1055733643+1051775744+1043768755+1025977132+992569017+942141088
2163+880581150+820605017+778156423+764948830+779764340+810394611+845094983
2153+877663765+905542833+928275406+946874088+962544372+975638118+985980155
2143+993801723+999853431+1004829187+1009201848+1013356687+1017169349+1019671149
2133+1020008326+1018696072+1017267945+1016792367+1017201877+1017928629
2125+1018684364+1019484462+1020270068+1020853672+1021151738+1021280268
2116+1021483536+1022007969+1022895398+1023935152+1025031988+1026412462
2108+1028102963+1029492993+1029921235+1029469895+1028772443+1028297182
2099+1028161121+1028381666+1028924135+1029536406+1029889846+1030014516
2091+1030311823+1030964596+1031651795+1032020297+1032119843+1032257169
2082+1032736734+1033733708+1035137027+1036557813+1037601364+1038055425
2074+1037948222+1037626867+1037636170+1038307801+1039454948+1040448694
2065+1040698729+1040262956+1039786302+1039679226+1039695490+1039384703
2057+1038631118+1037753371+1037322282+1037831400+1039368692+1041453768
2048+1043119779+1043618835+1043375762+1043580549+1044562841+1045342941
2040+1045132585+1044530756+1044667132+1045789915+1047251835+1048470998
2031+1049163830+1048889494+1047387452+1045285036+1043666805+1043066494
2023+1043438033+1044625808+1046273973+1047817719+1049021758+1050028034
2014+1050744218+1050849838+1050439506+1049959624+1049486704+1048588833
2006+1046998130+1045127649+1043888171+1044018536+1045376734+1046960476
1997+1047914417+1048247796+1048263048+1047860815+1046965349+1046077160
1989+1045708911+1045745616+1045892371+1046262392+1047085208+1048170210
1980+1049145288+1049986900+1050880404+1051913956+1053263738+1054865832
1972+1055661753+1054407403+1051539696+1049060044+1048193688+1048324686
1963+1048545736+1048844183+1049516891+1050416534+1050994885+1050705108
1955+1049529990+1048251150+1047703745+1047694189+1047168806+1045460142
1946+1042957899+1040785617+1040165752+1041522621+1043803245+1045483114
1938+1046102537+1046166200+1046061023+1045626262+1044588344+1043004476
1929+1041244995+1039728840+1038741422+1038492464+1039128023+1040417242
1921+1041701588+1042451755+1042617558+1042412519+1042024272+1041656087
1912+1041634127+1042191341+1043150535+1044009360+1044309768+1043779450
1904+1042367081+1040381170+1038340139+1036515413+1034846997+1033304074
1895+1032054154+1031285129+1031066356+1031388788+1032148637+1033072961
1887+1033818128+1034169101+1034188086+1034338448+1035297895+1037365315
1878+1040099620+1042676792+1044525946+1045583989+1046191134+1046867449
1870+1047937199+1049112950+1049755028+1049696553+1049183828+1048387780
1861+1047539460+1047096536+1047259302+1047578000+1047503831+1047097549
1853+1046824542+1046902571+1047219560+1047712605+1048468783+1049403233
1844+1050042716+1050021326+1049712691+1049694085+1050082901+1050623409
1836+1051025261+1051173219+1051147336+1051144551+1051309849+1051588804
1827+1051921867+1052415671+1053045725+1053471245+1053440110+1053064393
1819+1052500724+1051668035+1050467857+1049113646+1048004027+1047391629
1810+1047261834+1047431118+1047702859+1047927010+1047962512+1047673432
1802+1047061350+1046375733+1045877942+1045478178+1044888436+1044065050
1793+1043316718+1042920751+1042700334+1042407013+1042198366+1042322719
1785+1042686348+1042894362+1042667742+1042035473+1041234173+1040535266
1776+1040084938+1039923501+1040074686+1040446289+1040772897+1040915476
1768+1040902439+1040731636+1040449770+1040228466+1040176384+1040174105
1759+1040046209+1039741497+1039213393+1038407283+1037372339+1036192412
1751+1034800167+1032963037+1030639887+1028091826+1025485860+1022788892
1742+1020058826+1017579175+1015629589+1014234940+1013350801+1013172910
1734+1013852073+1014827024+1015563268+1016223762+1016946843+1017621069
1725+1018169107+1018518181+1018465655+1017928439+1017190043+1016821604
1717+1017159034+1017722513+1018056652+1018393448+1019030084+1019950421
1708+1021095163+1022620367+1024508630+1026289818+1027794075+1029453884
1700+1031309999+1032565931+1033176114+1033881349+1034760805+1035384720
1691+1035712530+1035949465+1036154252+1036308917+1036497820+1036606288
1683+1036068439+1034770677+1033237752+1032008337+1031520102+1031958153
1674+1032930003+1033811104+1034523364+1035316753+1036115522+1036630336
1666+1036906064+1037156288+1037469543+1037781849+1037976953+1037992458
1657+1037891520+1037949615+1038639345+1039849143+1040210873+1039671821
1649+1039295915+1039626194+1040345984+1040735053+1040837510+1041055903
1640+1041479525+1041977126+1042544845+1043385318+1044419186+1045164417
1632+1045512605+1045757450+1046211385+1046908203+1047571039+1048015924
1623+1048334811+1048639207+1048949677+1049355580+1049926780+1050352491
1615+1050159158+1049422028+1048447520+1047288793+1045741502+1043424364
1606+1039841422+1034585761+1027753257+1020164953+1012943759+1006815288
1598+1001917687+997981242+994463102+990818269+986948398+983441650+981384988
1588+981843669+985301182+991455411+999381903+1007735878+1015118572+1020899805
1578+1025641348+1030238540+1034310667+1036863157+1038289955+1039622776
1570+1041312392+1042883730+1043852859+1044393113+1044789523+1045132522
1561+1045560890+1046376999+1047300880+1047499908+1047216902+1046936175
1553+1046760436+1046590582+1046246951+1045571775+1044612518+1043670285
1544+1043142688+1043276976+1043982528+1044740732+1045097526+1045345978
1536+1045952238+1047121154+1048564722+1049627827+1050074421+1050110240
1527+1049906023+1049463859+1048773748+1047884547+1046857133+1045846680
1519+1044951340+1043928420+1042358031+1039798389+1035588684+1028822058
1510+1017337874+993654588+947368271+894717687+867470761+863978884+873242122
1500+891086207+915762923+943276654+966708133+982139901+991723291+998929487
1490+1005050364+1008806324+1008353465+1003298920+993673826+978875530+959132613
1480+937839621+920502124+911056059+910472013+917780538+930681775+944375451
1470+953821832+958561476+960942151+962868828+964982382+967017401+968711573
1460+970040534+970612684+968964266+963962690+957776250+953170641+951551460
1451+953798923+959950493+968354399+976175904+981564967+984243962+984004496
1441+980152788+972243445+961586381+953626222+954400436+962763840+974020139
1431+984861360+993089147+997804616+999542138+998988088+996420915+991752908
1421+983840401+970735454+953370618+936827523+924778087+918256939+917506836
1411+921502768+927833368+934369072+940493177+946552479+952564698+958022298
1401+962605947+965934615+966758697+963249671+954831906+944517017+937855189
1391+938050673+944660608+955418104+966947916+976131922+982132813+985785684
1381+987947587+989071508+989530632+989802943+990288836+991039826+991803915
1371+992447828+993138318+994105359+995498553+997507878+1000351728+1003854173
1361+1007241758+1009831270+1011535061+1012499886+1012841809+1012766375
1353+1012658413+1012892246+1013538628+1014325689+1014922772+1015201727
1344+1015240014+1015238875+1015466317+1016103839+1017070753+1018154489
1336+1019316127+1020644772+1022104983+1023494064+1024562548+1025078122
1327+1024887511+1024094881+1023172961+1022737632+1023083795+1023896106
1319+1024464079+1024294161+1023489254+1022456209+1021380573+1020072496
1310+1018220051+1015701037+1012708154+1009756088+1007587034+1006840791
1302+1007625131+1009458211+1011680424+1013825303+1015640158+1016978738
1293+1017759977+1017984128+1017812882+1017586326+1017652015+1018168158
1285+1019084382+1020196595+1021163762+1021610800+1021344501+1020454667
1276+1019153045+1017506842+1015281528+1011934319+1006739094+999013528+988293876
1266+974307322+956884454+936292015+914478577+896300163+887879993+891557038
1256+902318141+909493011+901407866+870545913+819570833+764873712+729965769
1247+729763830+760298986+804302780+845351915+876254813+897383773+911385705
1237+920272403+925102480+926185836+923160552+915582057+904208557+891951740
1227+883167118+881326444+886943139+897668613+910235331+922185411+932287033
1217+940211943+946134426+950364888+953163237+954850954+955965193+957097467
1207+958578310+960454106+962725680+965420876+968438947+971502012+974269794
1197+976445746+977850458+978443871+978269334+977437088+976169892+974701833
1187+972964248+970329425+966012960+960360256+955750407+955296346+960064215
1177+968050574+976138820+982463155+986802402+989622204+991342259+992146027
1167+991996108+990796752+988664972+986129948+984057718+983181680+983476582
1157+984149226+984592656+985276438+987299497+991076530+995871548+1000605117
1147+1004677179+1007968509+1010517330+1012406226+1013764741+1014750767
1139+1015500301+1016013976+1016156111+1015928036+1015629020+1015510236
1130+1015365949+1014700836+1013233346+1011028410+1008175194+1004527703
1122+999912665+994628336+989581639+985665001+982894940+980186518+975903720
1112+968766124+958868719+948295253+940263519+936915044+937825636+940755615
1102+943482516+944667190+943367592+938354625+928697130+915871707+904820765
1092+901092270+906159028+916469803+927195973+935792199+942104447+946813462
1082+950603152+953989028+957101834+959664640+961450700+962688469+963833591
1072+965033579+966049538+966671365+967008668+967362425+967944257+968766757
1062+969746075+970805636+971848364+972766613+973536271+974207017+974812137
1052+975373591+975899353+976305636+976473465+976414547+976245643+975977952
1043+975353087+973742703+970189758+963957374+955519105+947008882+941244103
1033+939945392+942724375+947583120+952363392+955973863+958444528+960020042
1023+960329057+957900476+950461902+937608066+924262007+918930469+926022691
1013+941443510+957451351+969903525+979344906+987461440+994878561+1001521277
1003+1007360162+1012553614+1017284082+1021643581+1025682103+1029447302
994+1032910511+1036000282+1038746991+1041235376+1043435755+1045285099
986+1046935289+1048695340+1050679731+1052699625+1054518656+1056025698
977+1057163415+1057911051+1058334863+1058572683+1058855246+1059471757
969+1060451834+1061373057+1061726877+1061397421+1060117252+1057501288
960+1053159256+1047307588+1041313278+1037513146+1037728754+1041473133
952+1046138735+1049281981+1050208203+1049290777+1046396617+1039847687
943+1026892913+1007097470+986471997+975652103+981108374+999156359+1020163371
933+1036988902+1048057122+1054771792+1058734627+1060923046+1061726877
925+1061406851+1059789948+1056889649+1052444022+1045728276+1035656588
916+1021275775+1002702470+982205463+964394286+954290069+953947893+960699901
907+969226451+975726905+980190315+984836932+990894842+997298978+1002126207
897+1004459356+1004711036+1003762222+1002164937+999927790+996667659+991732024
887+984315030+973935023+960985438+946485904+931131596+914733168+896418631
877+874978947+849072499+817594161+780246816+737916752+692668354+647543486
867+606218624+572296010+548442934+536085496+535697629+546760975+567007189
857+591841671+615100639+631262070+637497744+633325440+618457215+592761312
847+559368828+525831613+499682250+482829285+471295740+460099782+447816038
837+437124484+431995106+434480706+443698284+457251882+473094393+490145152
827+507907189+526023489+544152225+561970427+578950750+594037811+605786205
817+612912980+614829025+612266851+607706237+604415477+604416236+607720413
807+613563727+621469906+630750483+639772356+646484368+649798100+650535357
798+651140161+654233412+661186156+671986558+686093288+702865661+721292970
788+739992083+757767505+774053351+788901262+802644110+815406882+826930365
778+836972880+845617960+852949964+858693354+862356286+863438440+861312293
768+854981060+842845052+822717812+792895802+754260504+711506945+671996241
758+643289862+630992670+637031848+658634045+689381771+722296525+752430018
748+777148691+794714264+802961732+800247741+788637242+774818453+765456620
738+761929178+761364496+761799446+764118799+769750049+778810019+790595371
728+804268797+818274779+829303699+831980606+820107416+790727951+749996374
718+713688592+697428692+705245387+727995933+751571573+766234631+769793652
708+765179626+756990000+749110590+743680203+741586836+743598693+750306655
698+761123448+774607908+790015501+807412865+826096917+843908727+858430030
688+868564306+875170254+880609248+887374355+896420149+906602711+915922588
679+923143782+928130106+931211524+932792734+933507652+934323634+936414785
669+940536653+945105494+947298153+946442998+942269365+933292740+917333311
659+892493260+858618362+819437114+783314500+760767476+758661959+773920835
649+792355675+796020886+776031731+740519111+708944392+695348046+695886718
639+695088139+684676743+672698438+673084027+690898685+720688040+754353215
629+786132720+812948114+833945000+850083712+863269156+875141460+886240815
619+896518429+906612014+917687638+929735997+941063744+949818938+955267109
609+957285294+955496956+950224904+944261414+942086791+946352186+955673960
599+966177941+974568178+978999060+977218505+965847473+944183258+918930722
589+901578733+899342978+910680660+928944443+948127488+965275260+979420087
579+990205111+997620903+1002131586+1004725402+1006401032+1006886482+1003666157
569+992007436+966381778+924567162+873272308+828976142+809099443+819380158
560+850496133+887216526+919117093+943274439+960683953+972971146+981834303
550+989208454+996422813+1003261456+1008598500+1012038104+1014200450+1015445560
540+1015363924+1013812014+1011669286+1010027703+1008731396+1005945135+999617889
530+989862556+979758276+973392743+972386910+973753461+971725910+960406327
520+933922161+888751349+831495662+781514455+758239160+766573516+796188588
510+832104516+865175266+893615852+918137459+938678259+954041680+962280099
500+961743135+951666700+932432206+908024446+887717227+881496425+892230885
490+913643103+936962507+957511597+974488377+988133894+998586045+1005952602
480+1010682817+1013890992+1016758953+1019188357+1019291826+1014173618
472+1001574119+982079022+960305389+943661673+937605281+940696824+947242083
462+954535357+964351126+978306671+994158580+1007433761+1016139341+1021477524
452+1025640779+1030395358+1035942820+1040856938+1043730911+1044748515
443+1045480963+1047556990+1051464198+1056149545+1059892025+1061726877
435+1063064951+1063577930+1063825496+1064601483+1066623275+1069427889
426+1071359566+1070930248+1068568495+1066907547+1068400286+1072163017
418+1073741823+1071322734+1067041708+1062475905+1058800252+1057660510
409+1059413156+1061815981+1061726877+1059946576+1056197577+1053033131
401+1050401156+1044185289+1029515649+1009056928+992807913+987222354+992334866
391+1004874562+1020972645+1037587188+1051751127+1059561810+1058898279
382+1052571729+1045345915+1040624117+1040333707+1044625049+1051972367
374+1061726877
##END=
