##TITLE=CZ-220
##JCAMP-DX=4.24
##DATA TYPE=INFRARED SPECTRUM
##DATE=21/4/2020
##SAMPLING PROCEDURE=Diamant-ATR
##ORIGIN=Angelika Moesle
##XUNITS=1/CM
##YUNITS=TRANSMITTANCE
##RESOLUTION=4
##FIRSTX=3997.453
##LASTX=373.96442
##DELTAX=-1.4165319
##MAXY=0.90070939
##MINY=0.70655483
##XFACTOR=1
##YFACTOR=8.3885099e-010
##NPOINTS=2559
##FIRSTY=0.86499089
##XYDATA=(X++(Y..Y))
3997+1031161554+1031506953+1031791102+1032073120+1032289128+1032376952
3989+1032307531+1032054575+1031684520+1031420834+1031473344+1031789397
3980+1032066867+1032038232+1031705268+1031300467+1031062717+1031046303
3972+1031138817+1031207811+1031170507+1030985338+1030681577+1030400838
3963+1030328007+1030534635+1030921672+1031292864+1031414795+1031125174
3955+1030590058+1030296671+1030545506+1031149120+1031728219+1031983662
3946+1031736816+1031168731+1030889342+1031263660+1031814835+1031826133
3938+1031221738+1030491718+1030203234+1030679516+1031796787+1032955980
3929+1033498486+1033275799+1032758233+1032542368+1032604825+1032378515
3921+1031800979+1031565076+1032169116+1033242474+1034011077+1034074742
3912+1033542611+1032725264+1031774831+1030662605+1029658739+1029558977
3904+1030852464+1032652503+1033524207+1033292213+1032770739+1032261842
3895+1031446983+1030427839+1030057926+1030817150+1031711450+1031823290
3887+1031845104+1032617118+1033301663+1032936013+1032584930+1033423380
3878+1034365926+1034050513+1032999466+1032122290+1031404065+1030981998
3870+1031605222+1032757665+1032972607+1032451062+1032581662+1033490669
3861+1033785548+1032682133+1030524829+1027937571+1026043668+1027212951
3853+1032459020+1037061970+1037449078+1035354161+1033140368+1031916799
3844+1031747190+1031980464+1031804390+1031220104+1031230549+1032397487
3836+1033745047+1034262115+1034188928+1034095135+1033943219+1033556893
3827+1033207444+1032962375+1032335313+1031587956+1032203719+1034247548
3819+1035192084+1034333738+1033740783+1034427460+1035012954+1034562180
3810+1033669728+1033456137+1034670255+1036284840+1036081410+1034048026
3802+1032612499+1033206165+1034333880+1034810163+1035169488+1035636818
3793+1035822414+1035831225+1035981364+1036024352+1035545867+1034701377
3785+1033966312+1033511133+1033373784+1033833652+1034890313+1035720237
3776+1035585090+1034706351+1033730978+1033260664+1033693887+1034606235
3768+1034939838+1034632241+1034591881+1034974726+1035144690+1035016080
3759+1034947868+1034629399+1033384513+1031289169+1029100317+1027981412
3751+1029021659+1031161696+1031799487+1030840811+1030664666+1032647174
3742+1034401809+1033767642+1031724169+1030052668+1030043644+1032190290
3734+1035499397+1037789077+1037812951+1036250521+1034533474+1033584249
3725+1033366963+1033338327+1033467221+1034207971+1035373346+1035928712
3717+1035117121+1033319427+1031914738+1032423990+1034867007+1037017987
3708+1037280322+1036315394+1035172331+1034452116+1034627196+1035628220
3700+1036494666+1036561529+1036122124+1035503945+1034536174+1033178382
3691+1032241023+1032968841+1035220506+1036891722+1036748333+1035483907
3683+1034129526+1033204957+1032638861+1032171816+1032310515+1034163703
3674+1036796935+1037610515+1036834167+1036797290+1038080687+1038785198
3666+1038071095+1036861168+1035958058+1035320836+1034526084+1033606845
3657+1033365470+1034294942+1035215248+1034700809+1033277291+1033104840
3649+1035596032+1038788041+1040047208+1039453898+1038165740+1036947927
3640+1036168665+1035889774+1035880182+1035900361+1035804295+1035266408
3632+1034177559+1033659496+1035483694+1038691548+1039931033+1038711159
3623+1036681186+1035066814+1034621867+1035743898+1037442044+1038000040
3615+1037204933+1036021723+1035102981+1034748345+1035456622+1037187596
3606+1038690411+1038937896+1038311403+1037763142+1037753549+1038038551
3598+1038220310+1038314032+1038556330+1038770916+1038395888+1037358341
3589+1036507598+1036916236+1038396882+1039444945+1039446082+1039106225
3581+1039012575+1039016980+1038776103+1038335491+1038004658+1037858782
3572+1037503933+1036566787+1035485044+1035421379+1036847242+1038541195
3564+1039227801+1038935054+1038217895+1037569588+1037308602+1037360899
3555+1037418454+1037417672+1037502583+1037601136+1037500309+1037284515
3547+1037325869+1037846418+1038569617+1038919990+1038583331+1037770674
3538+1037006902+1036692341+1036747835+1036700513+1036259403+1035730682
3530+1035697712+1036290951+1037028077+1037473024+1037677449+1037814941
3521+1037866243+1037822757+1037778703+1037714469+1037509830+1037170329
3513+1036883338+1036952474+1037571009+1038360005+1038486767+1037664659
3504+1036571335+1036008649+1036039416+1036217764+1036322357+1036453028
3496+1036620434+1036583769+1036230625+1035870021+1035873787+1036237020
3488+1036715363+1037150576+1037483966+1037694574+1037790711+1037727046
3479+1037457108+1037112348+1036908065+1036888667+1036943095+1036959082
3471+1036870050+1036676070+1036437040+1036194885+1035999128+1035971061
3462+1036167955+1036416363+1036502198+1036541989+1036947358+1037859919
3454+1038708388+1038705119+1037906460+1037335390+1037765558+1038723025
3445+1039173941+1038911392+1038573312+1038572886+1038680037+1038569049
3437+1038271115+1038037557+1038013398+1038039120+1037797533+1037324803
3428+1037189372+1037805135+1038767861+1039306103+1039217853+1038918143
3420+1038687142+1038402638+1038058163+1037984052+1038375068+1038987919
3411+1039429668+1039501789+1039262191+1038974916+1038939885+1039207692
3403+1039507189+1039527227+1039218350+1038790314+1038439444+1038164745
3394+1037948383+1037966999+1038399227+1039138840+1039871915+1040311960
3386+1040317147+1039918385+1039295587+1038704764+1038383950+1038378834
3377+1038477672+1038508865+1038614950+1038983584+1039474433+1039738118
3369+1039571778+1039068993+1038547235+1038308987+1038392832+1038630440
3360+1038889436+1039128039+1039336515+1039546483+1039793328+1039987664
3352+1039943326+1039637078+1039370906+1039492623+1039949934+1040323755
3343+1040325034+1040043371+1039774996+1039782670+1040076909+1040312102
3335+1040143701+1039721207+1039501363+1039623933+1039819832+1039866870
3326+1039825303+1039797094+1039739113+1039626704+1039580163+1039627059
3318+1039526090+1039104236+1038625680+1038500054+1038715778+1038873094
3309+1038808078+1038860162+1039310864+1039844772+1039958105+1039723979
3301+1039653847+1039886624+1040069591+1040024968+1040006778+1040222004
3292+1040492511+1040551699+1040454993+1040517025+1040856810+1041173361
3284+1041121135+1040804087+1040659774+1040849207+1041025140+1040811335
3275+1040337610+1040152796+1040630642+1041544908+1042289494+1042536624
3267+1042549556+1042737994+1043074795+1043170791+1042806278+1042192930
3258+1041752957+1041730433+1041995610+1042220500+1042238121+1042146176
3250+1042094377+1042113349+1042131894+1042028367+1041705421+1041249603
3241+1040965240+1041125754+1041706345+1042398777+1042834132+1042798036
3233+1042392240+1042007619+1041992768+1042347617+1042836476+1043271120
3224+1043556051+1043646362+1043630588+1043701359+1043928664+1044157462
3216+1044182971+1043965826+1043649986+1043424670+1043443997+1043789183
3207+1044311296+1044579316+1044282377+1043633146+1043112454+1042921742
3199+1042998482+1043395822+1044230080+1045264074+1045898454+1045725719
3190+1044948021+1044120371+1043593426+1043320717+1043104070+1042878541
3182+1042793559+1043068329+1043731060+1044496537+1044996338+1045152375
3173+1045227836+1045416416+1045492161+1045098160+1044299856+1043511997
3165+1042987682+1042776506+1043001679+1043690346+1044475647+1044891390
3156+1044855862+1044604540+1044343839+1044185102+1044204642+1044313570
3148+1044218214+1043784636+1043317946+1043138603+1043060513+1042745668
3139+1042372700+1042396006+1042849622+1043417068+1043908698+1044204287
3131+1044121579+1043730136+1043396248+1043274105+1043167522+1042992940
3122+1042936025+1043064847+1043161909+1043063568+1042970344+1043257265
3114+1043954528+1044553736+1044517285+1043914098+1043375358+1043449682
3105+1044093299+1044760364+1044977722+1044780757+1044489076+1044228659
3097+1043981458+1043883402+1044037947+1044176860+1043903795+1043176759
3088+1042281394+1041439036+1040693099+1040078046+1039640631+1039312214
3080+1038993816+1038754147+1038724517+1038834582+1038866699+1038694248
3071+1038345723+1037987676+1037873633+1038036704+1038046296+1037410566
3063+1036233894+1035128063+1034448350+1033908118+1033002734+1031600959
3054+1030006269+1028575930+1027438764+1026548017+1025847272+1025354363
3046+1025140629+1025255028+1025631051+1026065269+1026379475+1026611398
3037+1026861228+1026943013+1026543825+1025837679+1025512318+1025993716
3029+1027031192+1028145265+1029097048+1029848172+1030387267+1030679943
3020+1030693159+1030473457+1030174030+1029947578+1029862027+1029916598
3012+1030030215+1030055581+1029909990+1029638772+1029355404+1029227647
3003+1029428662+1029946157+1030541030+1030995072+1031259326+1031349211
2995+1031329386+1031370598+1031536583+1031589590+1031326615+1031003741
2986+1031087941+1031659793+1032394360+1033037622+1033583894+1034026496
2978+1034260552+1034281797+1034263465+1034346599+1034479685+1034462064
2969+1033998287+1032776495+1030668858+1027795887+1024363215+1020714962
2961+1017581361+1015795675+1015562827+1016295405+1017205905+1017809803
2952+1017922993+1017458648+1016326030+1014519809+1012347228+1010464908
2944+1009501116+1009583398+1010269435+1010955685+1011298455+1011217665
2935+1010655477+1009547728+1007992758+1006324740+1005012565+1004361416
2927+1004117129+1003502218+1001905112+999486112+997058586+995542554+995482299
2917+996831138+999145403+1001990165+1005058111+1008024165+1010622010+1012886039
2907+1015036238+1017048163+1018568529+1019350775+1019532249+1019390281
2898+1019147912+1019122546+1019610907+1020459234+1021168506+1021522006
2890+1021731831+1021986635+1022199516+1022163562+1021789599+1021272744
2881+1021025401+1021356163+1022258847+1023504869+1024830260+1026082606
2873+1027254234+1028295476+1029002047+1029269996+1029274544+1029175280
2864+1028829313+1027999389+1026690625+1025154271+1023650532+1022291674
2856+1021068034+1019975065+1019091495+1018552542+1018473173+1018890835
2847+1019735680+1020841440+1022040353+1023267545+1024547745+1025904400
2839+1027348737+1028882249+1030399417+1031687362+1032637298+1033336551
2830+1033884457+1034264815+1034473930+1034636646+1034939838+1035477299
2822+1036173213+1036863442+1037442044+1037900847+1038304084+1038768287
2813+1039329765+1039782102+1039840864+1039522750+1039181118+1039146585
2805+1039466972+1039954055+1040339387+1040406250+1040122740+1039710833
2796+1039499302+1039622441+1039909290+1040119684+1040189105+1040215396
2788+1040319633+1040546228+1040804798+1040951740+1040971635+1040950958
2779+1040906549+1040815882+1040756907+1040815101+1040972204+1041218267
2771+1041567645+1041859824+1041845400+1041571198+1041378781+1041451683
2762+1041652059+1041856058+1042144755+1042556022+1042888418+1042935598
2754+1042795335+1042743110+1042848129+1042923021+1042861701+1042817149
2745+1042978444+1043322209+1043651905+1043804815+1043786980+1043745555
2737+1043819026+1044002704+1044178920+1044242159+1044128898+1043798633
2728+1043314677+1042892965+1042728970+1042816510+1043050068+1043400441
2720+1043836008+1044204216+1044362740+1044334531+1044232141+1044119874
2711+1043985437+1043766374+1043447053+1043197649+1043264868+1043615240
2703+1043881768+1043805739+1043538359+1043388290+1043461477+1043669171
2694+1043892710+1044034607+1044041926+1043951899+1043842759+1043742926
2686+1043629025+1043465669+1043229553+1042948104+1042698700+1042569664
2677+1042649886+1042990737+1043480307+1043864502+1044002277+1044002917
2669+1044032263+1044119021+1044226172+1044387112+1044668348+1045045153
2660+1045392613+1045595404+1045637326+1045565987+1045403058+1045142214
2652+1044850036+1044706362+1044836393+1045111661+1045254126+1045178950
2643+1045093755+1045196358+1045405758+1045469423+1045264358+1044930541
2635+1044743595+1044884284+1045302088+1045762526+1046046106+1046124978
2626+1046122278+1046102666+1045998855+1045767855+1045511488+1045389344
2618+1045491735+1045804164+1046228647+1046634087+1046937848+1047134884
2609+1047262215+1047373984+1047536274+1047755408+1047896737+1047801949
2601+1047557946+1047459890+1047595179+1047729118+1047758890+1047931767
2592+1048413307+1049026513+1049559923+1049901770+1049822898+1049161446
2584+1048252723+1047681724+1047620119+1047800954+1048023357+1048330457
2575+1048783291+1049314357+1049749143+1049905464+1049772023+1049582377
2567+1049616768+1049932252+1050317513+1050507514+1050453086+1050399937
2558+1050659430+1051282654+1051975015+1052321267+1052151801+1051726038
2550+1051471519+1051519339+1051597073+1051350938+1050658222+1049731877
2541+1049028858+1048916022+1049343845+1049961527+1050454720+1050621558
2533+1050391908+1050025263+1050015174+1050536789+1051190851+1051440681
2524+1051153547+1050701637+1050680818+1051432368+1052660484+1053579298
2516+1053580221+1052772751+1051800575+1051176498+1050935053+1050886025
2507+1050924608+1050992608+1051026714+1051096916+1051341417+1051681132
2499+1051875325+1051899200+1051982405+1052235859+1052518800+1052697433
2490+1052750156+1052592697+1052126931+1051556927+1051315482+1051524384
2482+1051811091+1051803559+1051587623+1051552309+1051907584+1052386282
2473+1052455987+1051925206+1051213944+1050885528+1051128891+1051823739
2465+1052765006+1053626976+1054036679+1053880358+1053366416+1052777441
2456+1052327449+1052173614+1052341944+1052635899+1052779359+1052687911
2448+1052536351+1052528961+1052656576+1052749303+1052715410+1052620977
2439+1052577136+1052656292+1052870381+1053098539+1053094204+1052753140
2431+1052325957+1052142137+1052182425+1052209924+1052253480+1052571594
2422+1053167462+1053729650+1054045561+1054126919+1053985591+1053645876
2414+1053322433+1053250241+1053362153+1053366345+1053106568+1052674837
2405+1052265631+1052072645+1052222856+1052668300+1053196382+1053613120
2397+1053884550+1054098213+1054317063+1054452067+1054354011+1054100700
2388+1054007618+1054198259+1054385134+1054261853+1053910414+1053650211
2380+1053651987+1053851865+1054139993+1054493137+1054922239+1055368252
2371+1055751950+1056077382+1056305327+1056213168+1055704272+1055183296
2363+1055173135+1055557756+1055709814+1055411596+1055099308+1055115154
2354+1055296202+1055342885+1055069536+1054374688+1053397468+1052616572
2346+1052512547+1052969432+1053392565+1053678206+1054190869+1054816296
2337+1054999831+1054554813+1053773491+1052949110+1052300732+1052081953
2329+1052258525+1052318851+1051900052+1051384476+1051482817+1052273305
2320+1053013202+1053061661+1052585095+1052155353+1052088775+1052380598
2312+1052900863+1053365564+1053419637+1053065285+1052753282+1052850059
2303+1053266087+1053657600+1053711531+1053266229+1052458901+1051716517
2295+1051412472+1051502073+1051574194+1051325359+1050954522+1050897962
2286+1051218350+1051625780+1052082522+1052857591+1053914749+1054753981
2278+1054999973+1054817788+1054602917+1054458676+1054181774+1053690357
2269+1053234538+1053159220+1053636710+1054570516+1055665333+1056754963
2261+1057932275+1058998670+1059232655+1058312847+1056951786+1055959573
2252+1055350915+1054977662+1055188980+1056119233+1057031155+1057116279
2244+1056512523+1055945646+1055698871+1055445773+1054892325+1054150510
2235+1053608430+1053683109+1054550692+1055967957+1057454003+1058599909
2227+1059152434+1059023824+1058402376+1057630860+1056873341+1056149290
2218+1055680823+1055757634+1056149148+1056101612+1055174129+1053776973
2210+1052713917+1052395946+1052617638+1053046740+1053785215+1055128086
2201+1056826018+1058181110+1058886048+1059042369+1058550526+1057393678
2193+1056163785+1055344733+1054658696+1053909277+1053605730+1054105319
2184+1055060583+1056122786+1057318644+1058499082+1059050825+1058269929
2176+1056131739+1054033837+1054099989+1056926846+1060606790+1062565708
2167+1061910224+1059792072+1058106574+1057962047+1058990144+1060203694
2159+1061380722+1062802037+1064170771+1065150408+1066079241+1067274032
2150+1068411553+1068934661+1068571072+1067394755+1065776191+1064197701
2142+1063028916+1062538423+1062833017+1063669620+1064578344+1065114312
2133+1064903136+1063875893+1062610188+1061911006+1061939286+1062139946
2125+1061976661+1061374540+1060533745+1059659767+1058974938+1058829630
2116+1059515170+1060734120+1061546138+1061341784+1060679479+1060563517
2108+1061145458+1061822969+1062326181+1062815609+1063078157+1062593277
2099+1061549193+1060936485+1061278616+1061928486+1062025760+1061533561
2091+1060869693+1060171932+1059489164+1059078181+1058977425+1058850592
2082+1058656540+1058821459+1059447241+1060074942+1060379342+1060378632
2074+1060040836+1059391037+1058841781+1058887043+1059684494+1061098278
2065+1062698012+1063690226+1063443096+1062247523+1061241809+1061400262
2057+1062484208+1063006036+1061640997+1058888748+1056822324+1056927343
2048+1058519617+1059703608+1059913789+1060563162+1062994312+1066620609
2040+1069487967+1070347023+1069506868+1067714574+1065285271+1062914233
2031+1062239067+1064242253+1067409250+1068626708+1066443824+1062710518
2023+1060281357+1059953722+1060630948+1061530293+1062754856+1064315298
2014+1065825219+1066721366+1066352945+1064704608+1063082989+1062939671
2006+1064039391+1064927579+1065018175+1065104649+1065843551+1066436790
1997+1065388869+1062612249+1059962604+1059143836+1059801664+1060523513
1989+1060969455+1061671692+1062718263+1063827788+1064846932+1065439602
1980+1065283281+1064809059+1064467000+1063619242+1062050487+1061345905
1972+1062675914+1064774527+1065564304+1064680663+1063577959+1063513725
1963+1064016653+1063562113+1061701962+1059854387+1059382794+1059955427
1955+1060634785+1061368998+1062468433+1063519694+1063812441+1063374954
1946+1062875437+1062765941+1063001204+1063320242+1063431585+1063110700
1938+1062444275+1061866597+1061712123+1061731237+1061354076+1060499781
1929+1059792498+1059776582+1060230340+1060526568+1060321432+1059668649
1921+1058853505+1058344892+1058477908+1058841568+1058588896+1057630007
1912+1056838524+1057079543+1058351785+1059905760+1061010454+1061420513
1904+1061250265+1060628461+1059565406+1058193190+1056975376+1056378371
1895+1056302200+1056131455+1055527771+1054927142+1055087655+1056208621
1887+1057682588+1058768381+1059145115+1058961651+1058648227+1058577456
1878+1058845476+1059401979+1060195452+1061012798+1061509118+1061677874
1870+1062012970+1062802676+1063456668+1063269011+1062414147+1061637373
1861+1061441474+1061743813+1062182152+1062502113+1062594556+1062500834
1853+1062491100+1062810279+1063269011+1063420430+1063229220+1063228865
1844+1063806756+1064502599+1064617708+1064170914+1063679212+1063535681
1836+1063643258+1063592241+1063262474+1063029342+1063234478+1063625992
1827+1063796524+1063818480+1063813506+1063502569+1062699291+1061704094
1819+1060845393+1060040694+1059054520+1057962545+1057097236+1056692080
1810+1056707001+1056965784+1057388420+1057961337+1058593514+1059181708
1802+1059737786+1060300968+1060757568+1060910479+1060733054+1060515128
1793+1060756929+1061625720+1062463530+1062591501+1062168652+1061775220
1785+1061731947+1061865318+1061869723+1061713544+1061561699+1061459451
1776+1061280108+1061022533+1060978905+1061316559+1061595948+1061409357
1768+1060952970+1060523158+1060220889+1060193178+1060506247+1060749610
1759+1060532537+1060135055+1059956422+1059939866+1059989605+1060370176
1751+1061238469+1062110031+1062414716+1062243402+1061957902+1061706651
1742+1061524182+1061504642+1061573565+1061401257+1061002638+1061013438
1734+1061817924+1062458628+1062105981+1061273926+1060587605+1060152179
1725+1059858224+1059583028+1059121383+1058384541+1057618780+1057123313
1717+1056669129+1055694040+1054283098+1052935680+1051917745+1051256151
1708+1051026217+1051407569+1052219445+1052849775+1053294438+1054480205
1700+1056730734+1058632737+1059407806+1059584236+1059156484+1057906482
1691+1056280599+1054815159+1053525509+1052235148+1051221405+1050859095
1683+1050566348+1049681072+1048563731+1047795767+1047834350+1048882982
1674+1050354746+1051372752+1052149243+1053595996+1055598186+1056930612
1666+1057380390+1057899022+1059182845+1060804252+1061853451+1062058516
1657+1061605469+1060911900+1061124994+1063494327+1066019910+1066447803
1649+1065864370+1065846393+1066753696+1067530044+1067608631+1067333789
1640+1066978301+1066684630+1066926999+1068265606+1069935188+1070418505
1632+1069819439+1069184206+1069231742+1069900726+1070648226+1071294401
1623+1071963882+1072302815+1071846286+1070979343+1070735837+1071576632
1615+1072385097+1071938516+1070008588+1066692659+1062439656+1058441314
1606+1056049599+1055689563+1056617045+1057572523+1057598672+1056405514
1598+1054131609+1050897891+1046611421+1041133357+1034408417+1026054611
1589+1014890930+999776301+981875105+965786595+957172087+958428768+966800764
1579+977372414+986866015+993349722+995116863+993325137+991888687+994377108
1570+1001835478+1010854503+1017504976+1021349768+1023178513+1023565977
1561+1023887075+1026994030+1033559238+1038731694+1041116090+1042590484
1553+1043977763+1045245529+1046269646+1046914471+1047210273+1047502736
1544+1048091570+1049098634+1051027638+1054015079+1056268662+1056870428
1536+1056937220+1057628160+1058951419+1059901070+1060113738+1060197512
1527+1060733836+1061625293+1062421040+1063051725+1063644040+1064025961
1519+1064102488+1064083516+1063975015+1063533834+1062772407+1062024410
1510+1061740687+1062691831+1065673871+1069026393+1069973202+1069004437
1502+1067722319+1067197861+1068048533+1070206334+1072534668+1073741823
1493+1073609021+1072617163+1071269532+1069672213+1067285756+1063525165
1485+1058359459+1052160469+1045575722+1039571778+1035152293+1032982981
1476+1033477382+1037084850+1043542054+1049592396+1050251574+1043141658
1468+1027504987+1003467827+976794451+958607826+953654788+958258662+968722521
1458+983556055+998540298+1008530503+1014280069+1018283598+1021297969+1023128135
1448+1024091998+1025596589+1029213223+1034984461+1040209498+1039496815
1439+1025848196+993707698+950031475+917642782+908558032+916283143+932015382
1429+949614027+965020905+977255741+987240689+995361363+1001405453+1005975930
1419+1010183671+1013911649+1015987595+1016047849+1014458986+1011817797
1411+1009135751+1007500702+1007351699+1008351729+1009648200+1010218204
1402+1009495574+1007491251+1004268334+999767633+994074627+987795345+982285235
1392+978862581+977810611+978926318+982190163+987156844+992502675+997179877
1383+1001244016+1005240723+1009413860+1013505284+1017123126+1020085200
1374+1022265384+1023382441+1023311244+1022372322+1021097380+1019892712
1366+1018973898+1018515877+1018616989+1019084247+1019612329+1020191214
1357+1021065832+1022402663+1024072244+1025780480+1027404658+1029031606
1349+1030665803+1032146591+1033372221+1034402022+1035332063+1036193961
1340+1036925473+1037385839+1037420159+1036862518+1035588785+1033832658
1332+1032359970+1031975917+1032816428+1034320167+1035774665+1036691205
1323+1036872395+1036465676+1035961469+1035908106+1036396255+1036781516
1315+1036079704+1033852056+1030823332+1028435525+1027603044+1027990294
1306+1028474463+1028151944+1026871034+1025068508+1023371357+1022212945
1298+1021569755+1021068319+1020413830+1019679262+1019210086+1019409395
1289+1020568588+1022680488+1025342567+1027958887+1030118323+1031776252
1281+1033118767+1034306311+1035353663+1036210517+1036861382+1037296523
1272+1037465421+1037368999+1037141125+1036962706+1036928031+1037006902
1264+1037058488+1036886393+1036386662+1035646908+1034865657+1034184807
1255+1033599810+1032983478+1032200238+1031215556+1030097788+1028963607
1247+1027958177+1027216077+1026770491+1026505242+1026238359+1025899853
1238+1025659686+1025824747+1026576155+1027835891+1029353060+1030836122
1230+1032037948+1032832344+1033244392+1033394461+1033374068+1033174545
1221+1032815575+1032529152+1032624152+1033090842+1033530105+1033556609
1213+1033134115+1032469608+1031715073+1030863549+1029927327+1029086745
1204+1028540616+1028288938+1028217812+1028313381+1028564135+1028654446
1196+1027918315+1025712694+1021946418+1017330962+1013069575+1010169745
1187+1008962021+1009194798+1010501572+1012744711+1015948230+1019972578
1179+1024325343+1028303363+1031295493+1032986178+1033473900+1033355523
1170+1033529821+1034534185+1035946405+1036639903+1035793352+1033679747
1162+1031494945+1030303706+1029924911+1029026277+1026758056+1024148415
1153+1023285593+1025172746+1028967159+1033176606+1036874527+1039763769
1145+1041840142+1043295634+1044376738+1045092334+1045143778+1044227451
1136+1042456189+1040523562+1039383767+1039676301+1041384110+1043946286
1128+1046623927+1048862091+1050453441+1051483598+1052148106+1052552125
1119+1052671355+1052561575+1052507218+1052800392+1053362295+1053553220
1111+1052344005+1048984306+1043498355+1035747948+1023951095+1005815630
1102+982411500+959851859+945529992+942621067+948700471+959038420+970273298
1092+981220403+991546841+1000721547+1008184252+1013851465+1018081802+1021286032
1082+1023719669+1025511608+1026716063+1027362451+1027531349+1027357903
1074+1027001562+1026687783+1026711657+1027278961+1028311463+1029391927
1065+1029926901+1029583776+1028708590+1028146615+1028547508+1029955749
1057+1032039227+1034452756+1036916236+1039184031+1041154886+1042903908
1048+1044381214+1045184563+1045005789+1044332186+1044293177+1045614020
1040+1047930275+1050246813+1051830987+1052451582+1051929114+1049824248
1031+1045746538+1040020634+1034149635+1030437076+1030586647+1034392430
1023+1039927480+1045068175+1048743500+1050574661+1049443464+1043635420
1014+1033839124+1025048897+1022891664+1027928192+1035589779+1041529702
1006+1044826588+1046049091+1044808824+1040573655+1034796662+1030742969
997+1030835198+1034691714+1039836814+1043438668+1043223229+1038483143
989+1031516901+1026863644+1027546270+1032427401+1037995279+1042010461
980+1044639926+1046873330+1048956737+1050107048+1048925188+1044317336
972+1036896980+1029552867+1025818139+1027144099+1031915307+1037171679
963+1040936889+1042990879+1044186381+1045477097+1047249496+1049170684
955+1050383665+1049654640+1045976615+1040092257+1035067666+1033990968
946+1037055788+1041793387+1045801464+1048348647+1049852031+1050919776
938+1051885912+1052708091+1053213932+1053443298+1053588677+1053687159
929+1053570487+1053054556+1052029870+1050356096+1047723149+1043729923
921+1038360644+1032479697+1027580093+1024756079+1024023927+1024785993
912+1026680748+1029650781+1033348915+1036936842+1039631323+1041269782
904+1042236558+1042998482+1043838353+1044861263+1046046675+1047315364
895+1048629528+1049957619+1051141681+1051987947+1052533722+1052988332
887+1053347516+1053381978+1053140319+1053140248+1053879292+1055390492
878+1057329586+1059224199+1060713159+1061837819+1062841259+1063353282
870+1062278219+1059130051+1055126380+1052182354+1050802109+1049292188
861+1044633318+1033578565+1014046724+987831654+962297007+946882242+945977568
851+955750701+968475391+978885461+986130879+991769741+997519804+1004096665
841+1010740388+1015693782+1017804189+1017890592+1018211122+1020483180
833+1024719059+1029861104+1034856633+1038979676+1041856840+1043631299
824+1044835399+1045915720+1047024464+1048225367+1049623447+1051212594
816+1052749729+1053852433+1054067872+1052925591+1050438236+1047734944
807+1046580228+1047854317+1050939743+1054710353+1058411045+1061426339
799+1063064159+1063000636+1061276981+1057035489+1046972097+1025946749+991582369
789+949975697+915115565+899609281+905407662+924387120+946807208+967436139
779+985055105+999658421+1011344641+1020512384+1027848255+1033774961+1037905465
769+1039257573+1037457747+1033989192+1031906354+1033643154+1038891710
761+1044715742+1047277420+1043126310+1030240396+1010096345+989063039+975570740
751+973618004+978950619+983042256+981067421+974393215+965471181+953831005
741+939056943+924859423+917151436+918756784+927462740+938815285+950001987
731+961004586+972673895+984725409+995852496+1004944352+1011700201+1016413641
721+1019408471+1020681495+1020290976+1018842944+1016490309+1010954833+998037583
711+976367055+951646345+933932023+929372843+935233397+943157960+946281542
701+943094294+935708898+925904999+913660428+898981864+883685548+871265542
691+865952752+870898400+885360956+904122346+921277038+934450015+944629298
681+953089900+959910551+964966050+968916572+972786375+977087767+981694340
671+986506121+992011044+998544206+1004330507+1007369747+1008610014+1009752509
662+1011521994+1013375111+1013900706+1011815807+1006686623+999163806+991063240
652+985092551+983513777+986417586+991693357+997027037+1001334185+1004278282
642+1005722974+1006021334+1005905373+1005909565+1006460029+1008186739
633+1011383508+1015330477+1018765778+1021135892+1023083655+1025529656
625+1028492938+1030801731+1030390251+1025188236+1015451413+1005757507
616+1002515120+1007920566+1018006057+1027293101+1033425086+1036660082
608+1036664985+1031934350+1022723547+1013104320+1008601274+1011628009
599+1019788332+1028639524+1035339594+1039332962+1040788810+1039590040
591+1035408163+1027864597+1017018320+1004714702+995036855+991938994+996230510
581+1005490695+1016467927+1027023660+1036239010+1043686295+1049097213
572+1052481851+1054341221+1055526563+1056405159+1055905429+1051443523
564+1040140788+1021470420+1000055051+984624440+981733492+990394256+1003989798
554+1016611956+1026268913+1033357441+1038670089+1043017241+1046967904
545+1050398161+1052932341+1054519143+1054766842+1051912274+1042783611
537+1023888709+994243525+959401086+931461224+921270998+929445888+946976461
527+964356255+978218325+989987821+1000696962+1008737487+1010834465+1002917648
517+981680485+948879033+913662204+887459213+875587042+874057510+875211729
507+875992412+879491236+889549086+905841595+923769224+938205490+946466854
497+946973903+937482575+916822238+888248920+860486269+843635978+842288844
487+853500558+870845606+888918827+904957457+917950948+927595329+934389831
477+939676615+944723801+949755213+953713338+955028781+953760874+952833391
467+955821116+963386637+972580031+979866590+984112488+986744014+989588918
458+992705039+994859643+996052161+997207517+998004258+997559240+996579674
448+996204930+995204261+991084201+984315705+978789608+976892081+976849519
438+976233542+975509136+976908495+980952170+985353465+986275618+980496636
428+968455638+955125629+946594611+945504341+950130668+957636929+965971764
418+973616015+980389769+986662869+991502077+993256569+991617754+988140886
408+984724272+982504866+981420210+980018151+976655610+971753376+968625957
398+970505506+975876775+981344607+986776628+992354738+996437280+998088032
388+997982586+996072341+991261910+984573351+979627845+978675777+981239943
378+985704051+990795220+997508436+1008086977
##END=
