##TITLE=X9704
##JCAMP-DX=4.24
##DATA TYPE=INFRARED SPECTRUM
##DATE=19/11/2018
##SAMPLING PROCEDURE=Instrument type and / or accessory
##ORIGIN=Default
##XUNITS=1/CM
##YUNITS=TRANSMITTANCE
##RESOLUTION=4
##FIRSTX=3996.5625
##LASTX=399.65625
##DELTAX=-2.0390625
##MAXY=1.0707455
##MINY=0.83458817
##XFACTOR=1
##YFACTOR=9.9720943e-010
##NPOINTS=1765
##FIRSTY=0.99405438
##XYDATA=(X++(Y..Y))
3997+996836121+996869234+997282912+998067891+998399503+997938486+997506458
3982+997664673+998129814+998326582+998127423+998061316+998261491+997969627
3968+996699005+995501544+996006792+997702149+998761837+999111500+999294341
3954+999293205+999428588+1000275609+1001318800+1001605822+1001567389+1000651930
3939+998709418+997939442+998892498+1000212968+1001030223+1001075590+1001264468
3925+1001905217+1001408816+1000783965+1001760092+1002470775+1001293218
3913+999382504+997926412+998122402+1001725783+1007614406+1011450418+1011164591
3899+1007492114+1002785053+1001252394+1003794294+1005435139+1004857389
3886+1006737440+1008945755+1009503901+1009409223+1006117610+1004271509
3874+1006887585+1010750614+1013766800+1012952952+1010928613+1010943556
3862+1009143240+1006032495+1006993381+1014295897+1024546580+1022252910
3850+1010320737+1003976477+1004464451+1008402074+1013251929+1017897844
3838+1018915871+1014915129+1011061186+1008855859+1007011790+1006120359
3825+1006714607+1010757547+1016976168+1017620504+1015494553+1012209874
3813+1005734953+1002456430+1005391984+1010115841+1011786572+1014201339
3801+1015624736+1012187160+1008730458+1004981116+1001334101+1000071669
3789+1000666036+1002316863+1003737511+1004189981+1005189120+1005075913
3776+1002481235+1001169610+1003439371+1007486615+1009115147+1008173389
3764+1006568286+1006478868+1009164758+1010798909+1010781097+1014927322
3752+1024036729+1027628515+1024082155+1024577422+1024503903+1017777464
3740+1014151489+1017670114+1023516598+1022896888+1014835633+1007056978
3727+1004387824+1005366880+1006949867+1007318777+1005723477+1004217834
3715+1005976669+1011814904+1016187783+1012435092+1006410729+1004419862
3703+1005816959+1005865972+1003416060+1001751007+1002164566+1006258909
3691+1013692803+1016688189+1010688571+1004316696+1002670531+1005242197
3678+1010801778+1017863296+1019849979+1017921035+1018301898+1013811031
3666+1005141662+1000459526+999843700+1000806559+1002964427+1004790564
3654+1005638482+1011170926+1021336136+1022605084+1012055305+1003115768
3642+1000051705+999681481+999243057+999337735+1000971229+1005440041+1011963137
3627+1011156342+1003186418+999484952+1002236889+1006650890+1007272633
3615+1006905039+1007675134+1007156557+1005515592+1002542620+998091381+995791256
3601+996783701+997988694+998223177+998194427+997446089+997886604+1001381201
3587+1003386294+1000149192+996269607+994552493+994250707+993911803+993090962
3572+992958927+995225819+999461880+1001404930+999015866+995975233+994054239
3558+993114930+993303270+994257581+994273719+993163285+992912305+993139198
3544+992512912+991737199+991226332+990802433+990819528+991599425+992998615
3530+994296432+994309463+993062033+991537263+989962883+988485393+987956954
3515+988697462+989549086+989566360+988579055+987394026+988019056+990238968
3501+990989577+989325301+987478543+986700259+986240198+985810083+985461197
3487+984836347+984383100+984499116+984367320+984019869+984384475+984624636
3473+983792797+982896584+982555648+982249857+982022606+981701932+980791195
3458+980318761+980752642+980521327+979014250+977846375+978289521+979412268
3444+980017095+979884044+978749163+977075862+976030698+975765253+975695620
3430+975681454+975679960+975736922+976006252+976238464+976216468+975957777
3415+975488093+974844594+974215858+973968882+974226557+974299299+973488619
3401+972719301+972797661+972838724+972238559+971156337+970167000+970100475
3387+970499688+970333703+969698751+968927879+967928799+966699420+965629631
3373+965099279+964943753+964388058+962831491+961014259+959852004+959116875
3358+958165313+956845201+955417142+954157100+953222335+952256906+950901888
3344+949472394+948533564+947924433+947331082+947044956+947105206+946985185
3330+946044442+944644774+943856628+943763624+943390650+942367243+941470731
3316+941270676+941576228+941714420+941120471+939992046+939189973+938978860
3301+938790640+938431652+937641056+936390697+935800992+936176237+936626914
3287+936667319+936438394+936376053+936360871+936408748+936965220+937517628
3273+937442674+937321697+937553192+937837405+938305834+938542469+938394594
3258+938964993+940078774+940286121+939796653+940082779+941242763+942724736
3244+944343287+945511639+945722035+945491497+945875229+947156609+948219286
3230+948341220+948555321+949208264+949884279+950807449+951480117+951546164
3216+951998634+953275770+954481659+954934010+954915660+954881709+955297719
3201+956394047+957369636+957784749+958277146+958877371+959214721+959442031
3187+959692773+960185887+961099912+962114353+963010924+963737028+964075992
3173+963995898+964002772+964335938+964880336+965834467+966724703+966841198
3159+967050039+967852949+968317971+968347558+968255749+968625375+969418184
3144+969425655+969075992+969006956+968836010+969019986+970095155+971043847
3130+970880612+970841402+971712092+972178250+971543357+970500645+969935207
3116+969984458+969957143+969732522+969529837+969235463+969361162+970181644
3101+970656827+970327367+969808372+969364390+968997632+968261905+966981123
3087+965981983+965517978+965257972+965299692+965534116+965729509+965945164
3073+965857778+965101490+963912098+963171231+963382583+963521612+962986777
3059+962581227+962497846+962505557+962600593+962404842+962033960+961901447
3044+961633133+960847736+959832399+958989860+958191075+957232819+956309829
3030+955502675+955011473+955218880+955773380+956387651+957130012+957252484
3016+956778915+956826852+957313212+957410998+957003297+956559315+956382212
3002+956568579+956907782+957036410+957108136+957000308+956488964+956133921
2987+956311323+956525245+956503488+956513470+956454834+956275938+955427781
2973+952360610+948569128+948703195+952786960+956474320+958303864+959089081
2959+958919868+958136324+957593540+957424865+957388823+957344592+957000727
2944+956637436+956960142+957834239+958709293+959541611+960203579+960485521
2930+960357730+960011175+960128387+960923227+961909755+962905547+964006059
2916+965298676+966405524+967057690+968077929+969727740+971134581+971793919
2902+972100726+972373045+972306758+972154102+972110409+971678381+971046418
2887+970740268+970718093+970882524+971182398+971475816+971666487+971838569
2873+972497071+973723521+974781894+975463826+976022988+976361234+976440312
2859+976214137+975928190+976051080+976575276+977322060+977925632+978470449
2844+979292486+979827679+979815665+979899823+980295929+980848277+981532660
2830+982088594+982303054+982315665+982536282+983096400+983477025+983487604
2816+983655442+984163739+984579628+984615372+984521710+984696422+984917098
2802+985049133+985264131+985283198+985135383+984955531+984647828+984596245
2787+984918054+985165807+985479846+986006432+986155682+985928371+986041757
2773+986711018+987433177+987660009+987456966+987291518+987456906+987887440
2759+988160894+988162508+988247025+988322217+988253241+988295439+988509242
2745+988622628+988392329+988178228+988074763+987668377+987534310+988214569
2730+988955675+989223152+989260091+989202112+989143118+989262840+989584530
2716+989849079+989867907+989850513+989813096+989853801+990000719+989937899
2702+989925885+990081829+990134726+990045607+989903291+989952902+990166584
2687+990252655+990271065+990399454+990367656+990184217+990431970+990984019
2673+991182161+991185150+991319874+991317364+991192143+991275285+991732357
2659+992403351+992888516+992957134+992634906+992371971+992646023+993235011
2645+993472005+993095505+992625283+992646681+992905551+992846497+992701491
2630+992780270+992888397+993245172+993841572+993685090+992728090+992196781
2616+992272332+992287096+992140536+992088117+992665090+993666800+994200858
2602+994359252+994097214+993373502+993089408+993281633+993055219+992432460
2588+992366353+992958927+993447319+993393166+993085702+993304824+993763869
2573+993617010+993441761+993697762+993969662+994317831+994455305+993988012
2559+993524903+993731174+994302410+994514240+994219805+993736314+993513307
2545+993812403+994703058+995540515+995573808+995547628+995688569+995204659
2530+994334865+993629562+993494419+994021185+994487701+994659484+994879861
2516+995195455+995677691+996251317+996411684+995849773+995108248+994720571
2502+994494635+994696542+995529637+996251377+996767204+997497014+997934302
2488+997434732+996958892+997376634+997198336+995885994+995299756+995849414
2473+996152455+996071226+996492973+997702448+999022022+999188904+998430644
2459+998005071+997795572+997216865+996814962+997119736+997468861+997424810
2445+997407835+997626957+997933106+998099928+998083551+998374040+998632611
2431+997672682+996413477+996598171+997627973+998525083+999269237+999495412
2416+999385433+999447475+999374614+998989686+998589277+998425384+998471109
2402+998972830+999700368+999674547+999208629+999198946+999607185+999884464
2388+999502764+998250194+996425551+994590986+992540049+990076330+987938126
2373+986437624+985863579+986120058+985399155+983841272+982914934+982083812
2359+982183630+983443254+984616866+985849293+986977718+987742912+987738250
2345+986931814+987048368+988613543+989857267+990201371+990169274+989288422
2331+987553795+986788900+987291100+987499284+987239099+987496893+988359993
2316+989258596+989988346+990702196+991623095+992689896+993842468+994972627
2302+995895976+997108440+998677141+999754641+999738204+999314544+1000064795
2288+1001867442+1003011168+1002981522+1002687805+1002095111+1000878105
2276+1000020624+1000215060+1001132193+1002105930+1002369821+1001685737
2263+1001569660+1002492830+1003143383+1002954385+1001700142+1000715407
2251+1000911876+1001109420+1001551131+1003017385+1004401452+1004784707
2239+1004593318+1004294342+1004081555+1004402169+1005344645+1005147639
2227+1003296159+1002568979+1004480948+1006504690+1006004163+1004420579
2214+1003903556+1004255371+1004838859+1005355404+1005450560+1005405612
2202+1006179533+1007632577+1007893180+1006560157+1005396527+1004828459
2190+1005808830+1008067354+1007214535+1004008873+1003525681+1005087748
2178+1005494433+1005599391+1007256136+1009626552+1011238827+1008949939
2165+1003663753+1001678026+1002186980+1002041616+1002753195+1004209108
2153+1004221660+1002305327+1001869355+1005991611+1010835370+1010158757
2141+1005282124+1002072458+1002634011+1004551717+1005647806+1005457972
2129+1004613402+1004594633+1004849857+1004378739+1004033858+1004570844
2117+1005973800+1007597551+1008777917+1008338477+1005523721+1003030415
2104+1003118637+1004628225+1005927776+1006481618+1007200310+1007829822
2092+1007089135+1005670041+1004704613+1004984821+1006783942+1008968827
2080+1010213986+1010077946+1009252980+1008351747+1007281479+1006422205
2068+1005181708+1003630400+1004269835+1006938750+1008785209+1008623946
2055+1007480159+1007475617+1008803977+1009498761+1009255849+1009438272
2043+1009328651+1007568741+1006676592+1008805531+1011240500+1011221134
2031+1009494577+1007953430+1007745784+1008086840+1006610126+1004838262
2019+1005640992+1005753123+1002276159+1000095159+1003002442+1007701553
2006+1010899803+1012014301+1011148691+1009190101+1007893897+1008408051
1994+1009941069+1011188619+1011726084+1012639750+1013274762+1011747960
1982+1011017553+1013532018+1014454172+1011990273+1011684841+1013244039
1970+1012586075+1010459168+1009159737+1009117180+1009590450+1010349069
1958+1011693090+1013234117+1014093152+1012625405+1009625357+1009003973
1945+1011803667+1014870779+1014428709+1011084975+1008585812+1007687088
1933+1007299291+1007350455+1007727494+1008597407+1010101854+1011444680
1921+1012092722+1012099296+1011196987+1010253674+1010705187+1011374867
1909+1010514038+1008939180+1008497350+1009400735+1010427370+1011400927
1896+1011905996+1011167699+1010985037+1012245976+1012429833+1011503853
1884+1011193042+1010809190+1010401907+1010598794+1011281743+1012613331
1872+1015425936+1019400139+1020212552+1016603672+1013418094+1012214655
1860+1011721182+1012023745+1012853014+1012771845+1012157992+1012842136
1847+1015641113+1019244614+1019147306+1015729575+1014522072+1015174896
1835+1015079501+1015751690+1019204208+1021550954+1020482002+1018797643
1823+1016365184+1013948027+1012862578+1012106469+1011399612+1012263190
1811+1013714560+1013196939+1011520231+1010967943+1012192540+1013043685
1798+1011524893+1010063959+1011851245+1013554372+1008685032+1001807611
1786+998688259+998257366+998215526+996918546+994017838+992852892+995038256
1772+994904069+987388766+977629943+969673229+964569764+959725288+953135786
1758+946590275+939461634+933972045+932496169+931038105+925202858+917740991
1743+912621268+910234355+907885577+907750553+916102178+927023018+927684209
1729+923966426+921511015+921959540+925155160+931745978+943530933+954373055
1715+954371321+950741043+950382892+953987469+959065830+960740685+961128303
1701+962082196+956951355+946335051+931453396+918611084+911313290+907171009
1686+907600766+906717165+892701539+877451095+869082495+865165075+860300576
1672+855915385+853062374+845775697+839006163+838095844+838312516+836923667
1658+838926548+848141391+862104179+863646522+860944434+865292627+865947722
1643+861969514+863568639+872021576+885116782+893687768+889063789+884560848
1629+885947067+888624529+890180858+889310406+885186954+884277352+886741669
1615+884237006+880321499+880671699+882991369+884531440+885838223+887882407
1601+890561661+894223320+899014479+904124220+908908207+913298598+917028695
1586+920157311+923323464+927138377+932656416+941198353+948589271+947385355
1572+946508089+949786613+948880956+944710583+943142240+947554269+959645852
1558+959448128+942763349+930735004+923920820+919740346+917289478+919051241
1544+925991721+934158951+928661472+911149396+901918355+897040049+889053867
1529+883620284+883207084+884893595+888334398+890239314+887985034+885480133
1515+882372137+880759026+884963707+896535937+908057121+902539739+894306223
1501+893391122+896142521+898043133+899424929+905359994+916908793+926442816
1486+928809108+929803824+932458991+935580316+939524812+945993218+953037940
1472+953582278+946335469+941389741+940135557+933640254+921938739+914549196
1458+909075925+895891600+885361427+883532420+885662256+887715226+887372257
1444+885648329+884198095+884432279+885881677+884292056+882046144+884026910
1429+887551631+890244753+894487749+900303510+907431493+916259855+921691644
1415+924436110+929325354+935623232+941853986+948242955+953862606+957393963
1401+961069189+965374825+967484040+965334121+959065890+953243434+949515728
1387+944450517+937463714+931559909+927512904+925236987+925040638+925202918
1372+923295551+920928602+918386702+915480316+916226084+919396182+919936814
1358+919018127+918343069+918184376+919187520+921106960+922564188+922933814
1344+923719211+927035689+932672853+938187187+942929155+947326838+950799141
1329+952991617+953949395+953774563+953087311+952827724+952904889+952560366
1315+952180698+952243398+952312554+952416436+952774945+953217254+953926203
1301+955118404+956657579+958507266+960504469+961896426+962052728+961081442
1287+959212031+956677961+954073181+952242621+951686448+952242203+953855792
1272+956386216+958746292+960012908+960496579+960665852+960447746+959663126
1258+958604693+957899689+957564909+957155893+956353282+954858518+952297910
1244+948307927+942658091+935051159+925215828+913906832+903041341+894799756
1230+890696386+890902598+894726296+899968909+900154679+890821368+880551320
1215+879421460+882757006+881496665+873983096+863344078+853723924+848275937
1201+848485316+853988951+862392397+871030686+878838151+885542594+890894230
1187+895033402+897984976+899942550+901554167+903067162+904857974+907410334
1172+910120670+912037720+913111394+914010715+915209850+916658710+918336195
1158+920344456+922507285+924500424+926129674+927518344+928910421+930201543
1144+931078092+931101044+930195447+929170665+928716044+928552449+928259151
1130+928218506+929031458+930524548+932016563+932699930+932078546+930671048
1115+929605383+929844110+930999313+931791344+932284399+933135006+934199954
1101+935532678+937696344+940848272+944711599+949315135+955284808+962198690
1087+968194184+972379141+975029288+976918902+979065294+981782385+984665042
1073+987298213+989754162+991992722+993775584+995235681+996477373+997628929
1058+999186095+1001044688+1002285961+1002830898+1003358560+1004164040
1046+1004961989+1005203465+1005287384+1005332093+1004207075+1001934207
1034+999441618+997333360+996874136+998850538+1002020337+1005191631+1008176377
1020+1010461679+1011366977+1010153856+1006806296+1003604340+1003458139
1007+1006509352+1010262879+1012918882+1015097432+1017739330+1020131144
995+1021533621+1022198877+1022302162+1021629375+1019995343+1017695697
983+1015513083+1014491469+1014942743+1016246598+1018142070+1020269335
971+1021824708+1022963115+1024337977+1025845652+1027259844+1028348043
958+1028981142+1029754226+1030703516+1031384193+1031954054+1032348546
946+1032241674+1031547250+1030236821+1028553777+1027200671+1026895836
934+1027818588+1029104750+1029914055+1030343333+1030304482+1030088109
922+1030171909+1029877475+1028917067+1028576012+1030134612+1032899997
909+1035041967+1035604535+1034841732+1033214156+1031138652+1029942028
897+1030189362+1031057363+1032363369+1034079646+1035751334+1036779761
885+1036393160+1034549330+1032578068+1031484968+1030577757+1029284542
873+1028209134+1027710880+1026974974+1025958620+1026357057+1028212003
860+1029790448+1030811105+1032303837+1034242942+1035168921+1034817106
848+1033835181+1032476935+1031489391+1030789707+1029670905+1028344337
836+1026849454+1025884623+1027268451+1030050573+1031929668+1033272612
824+1034628348+1035454868+1035316557+1034147547+1032545552+1031265726
812+1030423308+1029564392+1027527262+1023625263+1019662416+1018197538
799+1019794750+1023067475+1026955966+1030505553+1032625646+1033982338
787+1035306037+1036055212+1035913912+1035575128+1035316198+1034326861
775+1032070130+1028750186+1024441740+1017909439+1009380055+1001880054+995211175
761+986721598+978174879+971877121+965457967+956531521+944981766+930912883
746+916296734+904941116+899152013+900128798+908870311+923905280+941148922
732+956189329+966215391+970737758+971068772+969137796+966607432+965909899
718+968655381+972262587+973115824+969288002+959762825+945581931+930371832
703+917946306+909890969+906736650+909589362+917393420+926921884+936571804
689+945176202+951366372+955354502+957471785+958584849+959896175+960860169
675+961331586+961505760+960330115+960047875+964662708+969241021+972173109
661+974190993+974648663+974287345+973577858+972472863+972684872+974891455
646+977525044+979091893+978921245+978901461+981036676+984094165+985583609
632+985469207+985769498+985708771+983885682+981485978+979066848+976662901
618+975352711+976117307+978337936+980539497+981326388+980670098+981066383
604+982921748+984223092+984401748+984101756+984292606+985212847+986663500
589+987635623+986820400+984324285+981999714+982244657+984957922+987568021
575+988599915+989540718+991292858+993282470+995357376+995509912+992111547
561+986743115+981312880+977482009+976159386+977385119+980549479+984618480
546+990209680+994564029+994855953+994872031+996295787+998560527+1002596235
532+1005918212+1005910203+1005891315+1008614263+1011149648+1011782388
520+1011264648+1010377042+1011026877+1012205331+1012825041+1015503639
508+1019034218+1020375848+1021505767+1022474423+1019635280+1015090498
495+1014696963+1018661005+1019908435+1016226275+1016620767+1024418908
483+1030730055+1031536730+1032816317+1037380943+1041972106+1042031997
471+1035530777+1028253365+1025665979+1023101545+1014377903+1008141351
459+1015176211+1026904563+1032992882+1041310078+1053468665+1057973400
447+1053425032+1050711169+1053961062+1057698331+1058104179+1055807282
434+1050289183+1038722453+1022623254+1007761683+998219232+997616138+1007045621
420+1020739617+1028537280+1031015643+1035390075+1041686877+1047960249
408+1051637149+1056049357+1065423551+1073741823+1072519617
##END=
