##TITLE=VLL-076, X17428
##JCAMP-DX=4.24
##DATA TYPE=INFRARED SPECTRUM
##DATE=30/3/2021
##SAMPLING PROCEDURE=Diamant-ATR
##ORIGIN=Angelika Moesle
##XUNITS=1/CM
##YUNITS=TRANSMITTANCE
##RESOLUTION=4
##FIRSTX=3997.453
##LASTX=373.96442
##DELTAX=-1.4165319
##MAXY=0.96224099
##MINY=0.64387065
##XFACTOR=1
##YFACTOR=8.9615676e-010
##NPOINTS=2559
##FIRSTY=0.93850273
##XYDATA=(X++(Y..Y))
3997+1047252858+1047211022+1046831176+1046391668+1046251861+1046595127
3989+1047199117+1047573909+1047422130+1046894295+1046384884+1046155553
3980+1046165530+1046225589+1046227452+1046160475+1046040887+1046019670
3972+1046416810+1047332206+1048323293+1048781290+1048552158+1047907264
3963+1047102875+1046341053+1045961739+1046192334+1046747172+1047041751
3955+1046809427+1046274741+1045786481+1045592135+1045863036+1046507199
3946+1047011222+1046910457+1046338127+1045848536+1045780761+1046060907
3938+1046549167+1047193463+1047882322+1048441882+1048769717+1048884782
3929+1048858177+1048750429+1048599248+1048396788+1048151028+1048024789
3921+1048231640+1048636295+1048665627+1048001178+1047200780+1046990670
3912+1047295691+1047525754+1047453589+1047393131+1047572711+1047686379
3904+1047202908+1046129946+1045191869+1045022132+1045533006+1046236896
3895+1046907132+1047632771+1048402042+1048964795+1049257645+1049492164
3887+1049570980+1049063032+1047963466+1046874275+1046212021+1046055653
3878+1046334402+1046763068+1047055851+1047259443+1047632173+1048104271
3870+1048226918+1047822262+1047179296+1046526354+1045995327+1045793531
3861+1045972247+1046429580+1047155419+1048026319+1048532737+1048051128
3853+1046796124+1045891769+1045558280+1045520702+1045952094+1046978565
3844+1048190270+1048933801+1048947236+1048366791+1047299749+1046031709
3836+1045269554+1045296093+1045585218+1045640688+1045567925+1045551496
3827+1045411490+1045206967+1045507399+1046537860+1047678930+1048151627
3819+1047903207+1047185349+1046215879+1045666761+1046021931+1046858179
3810+1047640087+1048241218+1048647802+1048798251+1048812218+1048812351
3802+1048612418+1048060506+1047383087+1046729147+1046119437+1045868357
3793+1046293298+1047203906+1048096755+1048495956+1048107131+1047078931
3785+1046174176+1046126288+1046723627+1047076802+1046676404+1045956617
3776+1045755021+1046359610+1047338259+1048013882+1048060040+1047784151
3768+1047698152+1047853123+1047956815+1047906333+1047857314+1047838491
3759+1047654387+1047347437+1047382090+1048005302+1048885913+1049377964
3751+1048961403+1047972046+1047391800+1047528149+1047995591+1048385680
3742+1048648666+1048796920+1048667955+1048170715+1047449399+1046820866
3734+1046475672+1046394661+1046665895+1047468222+1048661171+1049649863
3725+1049833767+1049234698+1048317639+1047387544+1046707465+1046606766
3717+1047020733+1047418139+1047404903+1047184285+1047318438+1047952425
3708+1048689903+1049260837+1049596188+1049586411+1049090834+1048157081
3700+1047183354+1046663767+1046790537+1047387544+1048097154+1048585414
3691+1048564064+1047892432+1046997454+1046664299+1046987078+1047431175
3683+1047516177+1047083919+1046422264+1046127884+1046662370+1048012285
3674+1049488639+1050204036+1049750428+1048246472+1046743580+1046472546
3666+1047240221+1048073276+1048375637+1048309724+1048531274+1049349164
3657+1050208226+1050240417+1049428180+1048506931+1047869485+1047516443
3649+1047388142+1047196988+1046726620+1046249999+1046034968+1046009826
3640+1046012088+1046061040+1046239291+1046552227+1047032772+1047703739
3632+1048354021+1048566990+1048163466+1047767922+1048092964+1048823458
3623+1049287442+1049195457+1048681989+1048110988+1047857314+1048000047
3615+1048229511+1048212551+1047933203+1047588940+1047277933+1047031641
3606+1046973710+1047202110+1047658179+1048143712+1048457313+1048636428
3598+1048894293+1049158875+1049020332+1048361470+1047678864+1047477401
3589+1047750230+1048103472+1048182355+1048099083+1048235431+1048741117
3581+1049433767+1049908326+1049826583+1049281123+1048723957+1048453189
3572+1048398317+1048472278+1048747303+1049077598+1048866824+1047848468
3564+1046707731+1046180428+1046336331+1046825057+1047399050+1048072545
3555+1048776302+1049173308+1049037359+1048631972+1048391400+1048396322
3547+1048419002+1048264962+1047930609+1047579229+1047430843+1047599382
3538+1048025588+1048570116+1049040685+1049189138+1048931606+1048512318
3530+1048241018+1048170582+1048183286+1048222860+1048271148+1048275870
3521+1048244211+1048255251+1048314713+1048320965+1048248667+1048270749
3513+1048524024+1048808427+1048795391+1048548434+1048481191+1048756016
3504+1049083451+1049111386+1048792930+1048353356+1047990935+1047724889
3496+1047522163+1047432638+1047492831+1047583154+1047534999+1047331807
3488+1047153690+1047250264+1047714713+1048311454+1048621463+1048486578
3479+1048215810+1048213349+1048524290+1048814945+1048705135+1048123093
3471+1047412951+1047045542+1047092965+1047118438+1046794727+1046380960
3462+1046234968+1046223128+1046060841+1045819604+1045657382+1045513518
3454+1045422730+1045642284+1046180894+1046650863+1046784219+1046738858
3445+1046759676+1046845742+1046929214+1047102609+1047460241+1047860839
3437+1048045474+1047924490+1047621597+1047319902+1047162602+1047195459
3428+1047317840+1047355485+1047213749+1046888376+1046423195+1046053724
3420+1046237029+1047107930+1047987676+1047977699+1047062037+1046138060
3411+1045953624+1046518971+1047457846+1048356881+1048827582+1048698084
3403+1048214812+1047811953+1047646340+1047462635+1047011688+1046526886
3394+1046494628+1046969719+1047511587+1047812352+1047957812+1048069685
3386+1048086379+1047937726+1047705867+1047577434+1047682721+1047945109
3377+1048126951+1048086179+1047918637+1047776236+1047641551+1047460839
3369+1047402908+1047692232+1048203040+1048545175+1048542780+1048334267
3360+1048099415+1047948700+1047931740+1047966991+1047908128+1047743313
3352+1047604836+1047599249+1047707197+1047797852+1047741318+1047554886
3343+1047401844+1047432971+1047628714+1047773376+1047696822+1047606632
3335+1047913383+1048591267+1049057379+1048838756+1048051394+1047178764
3326+1046693165+1046876337+1047674740+1048669285+1049374306+1049582287
3318+1049362400+1048867156+1048303273+1047936928+1047888308+1048027250
3309+1048197520+1048321763+1048205301+1047624457+1046787810+1046306467
3301+1046478000+1046926819+1047156416+1047183952+1047374973+1047853656
3292+1048357679+1048595457+1048484184+1048075139+1047525754+1047119503
3284+1047042283+1047156283+1047191867+1047095426+1047025056+1047072413
3275+1047132472+1047053656+1046855452+1046717707+1046733870+1046787411
3267+1046755087+1046717308+1046887843+1047376702+1048027782+1048456648
3258+1048375837+1047962601+1047737793+1047967124+1048329545+1048336129
3250+1047988009+1047804238+1048153489+1048773375+1049143312+1049141782
3241+1049028979+1048940053+1048758477+1048409824+1048012418+1047760739
3233+1047766659+1047988142+1048287775+1048543512+1048654253+1048536595
3224+1048232172+1047920300+1047752558+1047746905+1047797852+1047723227
3216+1047441285+1047104338+1046889506+1046785416+1046794328+1047098951
3207+1047780959+1048560871+1048989205+1048821130+1048205567+1047520633
3199+1046989672+1046558146+1046235899+1046293165+1046923826+1047878664
3190+1048587675+1048599514+1047926153+1047004438+1046293830+1045949833
3182+1045924625+1046187013+1046644345+1047049001+1047224591+1047253590
3173+1047280261+1047308728+1047309260+1047322562+1047384019+1047503273
3165+1047651860+1047619735+1047132539+1046332606+1045810159+1045871483
3156+1046089973+1045860774+1045180163+1044610094+1044618674+1045166927
3148+1045895560+1046488442+1046756417+1046616543+1046222131+1045936597
3139+1045934469+1046002045+1045938726+1045911323+1046165463+1046597588
3131+1046897621+1046941252+1046802177+1046547837+1046237162+1045974642
3122+1045833638+1045861306+1046154622+1046725157+1047317840+1047563466
3114+1047283653+1046538459+1045493565+1044381561+1043521568+1043204907
3105+1043491572+1044128285+1044689708+1044854656+1044668158+1044523230
3097+1044701614+1044957416+1044823662+1044306669+1043898289+1043949037
3088+1044378967+1044936266+1045409694+1045650266+1045635766+1045467426
3080+1045159412+1044536665+1043515383+1042331147+1041241158+1040197594
3071+1039191875+1038680669+1039118048+1040240960+1041348441+1042119109
3063+1042713189+1043244216+1043542453+1043377105+1042772317+1042082727
3054+1041658517+1041481597+1041341524+1041240759+1041297360+1041371454
3046+1041169525+1040666965+1040140794+1039838832+1039830451+1040095566
3037+1040572652+1041163340+1041809565+1042494100+1043115051+1043481329
3029+1043476407+1043153361+1042686052+1042252930+1041867563+1041336802
3020+1040503081+1039455261+1038381700+1037275482+1035906412+1034126367
3012+1032201194+1030740936+1030215895+1030646091+1031799266+1033459590
3003+1035423339+1037437770+1039245949+1040661245+1041694433+1042593934
2995+1043550567+1044388079+1044782824+1044737729+1044589209+1044581228
2986+1044657383+1044713918+1044841687+1045146375+1045461041+1045494829
2978+1045214150+1044839425+1044499352+1044086117+1043405639+1042330482
2969+1040842555+1038992009+1036782300+1034084731+1030674026+1026327572
2961+1020981119+1014889007+1008691142+1003402155+1000239205+1000016126
2952+1002455099+1006338301+1010458217+1014181259+1017172344+1019132102
2944+1020035527+1020288337+1020376730+1020424286+1020162297+1019306828
2935+1017882020+1016149066+1014330378+1012507699+1010684356+1008853097
2927+1007120076+1005784062+1005125865+1005120610+1005522871+1006186256
2918+1007165636+1008567364+1010377605+1012381793+1014273577+1015906033
2910+1017337957+1018596153+1019604466+1020385443+1021088535+1021772738
2901+1022378990+1022935756+1023587036+1024381382+1025200004+1025944732
2893+1026694648+1027598339+1028662854+1029731160+1030644960+1031344261
2884+1031823010+1032101028+1032284067+1032545191+1032938340+1033280209
2876+1033335081+1033067638+1032609973+1032107812+1031711604+1031519918
2867+1031387760+1030964681+1030036847+1028707151+1027237781+1025794018
2859+1024310414+1022636921+1020899044+1019578261+1019116339+1019573938
2850+1020702902+1022160899+1023704695+1025329302+1027105024+1028849884
2842+1030245293+1031297969+1032341533+1033557960+1034803120+1035877945
2833+1036705812+1037311598+1037845086+1038493705+1039197595+1039664705
2825+1039851602+1040127957+1040738132+1041413888+1041784157+1041888181
2816+1042019541+1042290974+1042577572+1042777505+1042951299+1043219008
2808+1043584022+1043894764+1043997191+1043884721+1043661774+1043414152
2799+1043168991+1042926823+1042681662+1042456388+1042330748+1042374646
2791+1042534073+1042672816+1042762806+1042941589+1043329550+1043855855
2782+1044307534+1044518109+1044486516+1044337397+1044208764+1044174710
2774+1044235369+1044332542+1044396925+1044420736+1044452927+1044507666
2765+1044526156+1044470220+1044414883+1044468026+1044610293+1044716712
2757+1044753027+1044814816+1044936931+1045022265+1045032109+1045091969
2748+1045290705+1045497423+1045515913+1045358680+1045208497+1045126888
2740+1045019073+1044926489+1045074876+1045537063+1046112254+1046597987
2731+1046911921+1046949100+1046663700+1046289773+1046163069+1046318439
2723+1046471083+1046378433+1046065696+1045740389+1045588144+1045645543
2714+1045798985+1045908064+1045962138+1046102942+1046450730+1046906799
2706+1047179363+1047074940+1046742516+1046550498+1046688043+1046975572
2697+1047124158+1047059709+1046887511+1046670019+1046423328+1046253391
2689+1046289174+1046475739+1046592067+1046522696+1046411156+1046478599
2680+1046759942+1047098019+1047370517+1047613815+1047894361+1048140519
2672+1048193595+1048003373+1047680659+1047358013+1047102742+1046985283
2663+1047089772+1047410889+1047820865+1048165661+1048351493+1048394859
2655+1048418869+1048518371+1048631174+1048652790+1048616741+1048622594
2646+1048685514+1048808360+1049059042+1049388872+1049532536+1049296554
2638+1048826917+1048431174+1048246206+1048210822+1048238091+1048287443
2629+1048369518+1048569983+1048965926+1049440086+1049713647+1049670947
2621+1049497950+1049362068+1049173042+1048863033+1048639355+1048654652
2612+1048681590+1048462634+1048139522+1048004237+1048060173+1048128082
2604+1048173110+1048270283+1048395923+1048420200+1048253256+1047959409
2595+1047752026+1047834367+1048227915+1048788739+1049333069+1049709124
2587+1049872476+1049963198+1050187009+1050562332+1050897018+1051041281
2578+1051043143+1051023057+1051021660+1051051524+1051208557+1051555215
2570+1051893492+1051906328+1051628510+1051513579+1051859970+1052392593
2561+1052597515+1052325816+1051924353+1051821925+1052059039+1052289368
2553+1052253185+1052072673+1052005830+1052141446+1052440814+1052821326
2544+1053078525+1052954149+1052429707+1051833432+1051538454+1051593791
2536+1051719232+1051655447+1051446668+1051295288+1051213413+1050992528
2527+1050554085+1050138189+1050000777+1050084847+1050172443+1050231372
2519+1050381288+1050617870+1050803303+1050912582+1051124819+1051601241
2510+1052192727+1052488104+1052269215+1051836624+1051656246+1051720429
2502+1051562065+1050979093+1050439685+1050524820+1051171577+1051748430
2493+1051800110+1051484779+1051303536+1051567519+1052153352+1052698945
2485+1052959204+1052934861+1052787671+1052758473+1053040281+1053584345
2476+1054118897+1054408621+1054417400+1054280852+1054186073+1054164856
2468+1054030104+1053698079+1053405296+1053344638+1053366852+1053366320
2459+1053594787+1054216137+1054941111+1055486438+1055977625+1056504794
2451+1056740643+1056461761+1056000704+1055699607+1055349358+1054686372
2442+1054075930+1054133396+1054879521+1055721157+1056143371+1056052383
2434+1055575231+1054935989+1054520360+1054646199+1055142441+1055451386
2425+1055244070+1054690163+1054125215+1053769778+1053737920+1053951155
2417+1054053383+1053738984+1053165256+1052820461+1052993457+1053465954
2408+1053716503+1053459370+1052980355+1052818399+1053161598+1053758804
2400+1054325747+1054754546+1054960865+1054814074+1054365920+1054015937
2391+1054188734+1054785474+1055201037+1054970642+1054191993+1053385808
2383+1053211748+1054107324+1055763258+1057126609+1057353479+1056631232
2374+1055730934+1055040080+1054449459+1053933862+1053725083+1053956409
2366+1054551221+1055445799+1056445000+1056910580+1056270740+1054946498
2357+1054060300+1054112445+1054590729+1054917300+1055107855+1055355942
2349+1055576494+1055561130+1055288500+1054961064+1054742109+1054655777
2340+1054749957+1055051453+1055434359+1055733993+1055910581+1056037086
2332+1056139846+1056051718+1055541177+1054652052+1053783280+1053470145
2323+1054070077+1055349690+1056466816+1056765984+1056404428+1055956607
2315+1055789996+1055926344+1056113973+1055997179+1055467948+1054784144
2306+1054255378+1053956210+1053737720+1053436091+1053131136+1053115173
2298+1053462097+1053829173+1053853782+1053521425+1053104066+1053001106
2289+1053503201+1054397447+1055033695+1055076129+1054878590+1054901137
2281+1055153814+1055421988+1055659367+1055935789+1056215735+1056354279
2272+1056231100+1055899141+1055670475+1055953614+1056814005+1057764919
2264+1058209215+1057992521+1057282711+1056169909+1054854646+1053953084
2255+1053980354+1054653915+1055248726+1055491825+1055650388+1055989198
2247+1056565386+1057370440+1058321486+1059153744+1059568376+1059602230
2238+1059711841+1060272998+1061110709+1061821649+1062383271+1062929064
2230+1063060690+1062078649+1059929998+1057438947+1055633960+1055137519
2221+1055948360+1057454776+1058841207+1059641804+1059779283+1059397840
2213+1058970239+1058942104+1058980681+1058455374+1057716033+1057643602
2204+1058126941+1058434024+1058727139+1059739111+1061394247+1062970434
2196+1064079778+1064693944+1064788390+1064486961+1064182737+1064174157
2187+1064175355+1063290287+1060906053+1057805624+1055705460+1055472670
2179+1056673666+1058722750+1061167842+1063110507+1063704188+1062912636
2170+1060984071+1058216199+1055903065+1055918429+1058306588+1060855903
2162+1062091419+1062926803+1064399033+1065818319+1066412998+1066580540
2153+1066684364+1066428162+1065642995+1064718686+1064165378+1064200696
2145+1064807147+1065847917+1066960919+1067528394+1066990383+1065237808
2136+1062815329+1060857300+1060455172+1061646791+1063263816+1064142165
2128+1064246655+1064322943+1064775886+1065259424+1065112966+1063919751
2119+1061923877+1060139243+1059703261+1060836083+1062563052+1063532056
2111+1063051378+1061548487+1060238412+1060129067+1061189392+1062644462
2102+1063842997+1064468470+1064359392+1063713499+1063070933+1062661821
2094+1062226304+1061708580+1061480113+1061750548+1062263351+1062650847
2085+1062727401+1062424641+1061743232+1060936249+1060564451+1060964650
2077+1061658696+1061781077+1061111174+1060081711+1058907851+1057628238
2068+1056933526+1057857636+1060349951+1062956733+1064280642+1064094078
2060+1062834485+1060992119+1059340840+1058775493+1059354342+1060188927
2051+1060692685+1061184736+1062045660+1063146290+1064440669+1066053836
2043+1067420845+1067529857+1066388721+1065153338+1064649914+1064761786
2034+1065158260+1065632420+1065877980+1065767571+1065594642+1065597369
2026+1065658825+1065622377+1065543960+1065535114+1065395839+1064640003
2017+1063313633+1062501795+1063188126+1064880243+1066145555+1066275186
2009+1065828363+1065665410+1066065210+1066859821+1067729059+1068095537
2000+1067444789+1066163780+1065298533+1065089487+1064677516+1063687760
1992+1063066876+1063529995+1064180476+1063832023+1062792982+1062185200
1983+1062168639+1062210475+1062578150+1063851112+1065054835+1064251244
1975+1061260825+1058106921+1057031631+1058967977+1063024042+1066911833
1966+1068752936+1068655297+1067843525+1067027829+1066311102+1065725203
1958+1065299131+1065085297+1065282504+1066052839+1067207543+1068176016
1949+1068332051+1067592112+1066736642+1066745887+1067767370+1069121741
1941+1070267666+1071109302+1071387785+1070645185+1068905978+1066955731
1932+1065837009+1066059756+1067170297+1068187389+1068564775+1068472058
1924+1068142095+1067515890+1066676250+1065974887+1065487758+1064944759
1915+1064462285+1064608809+1065503986+1066553802+1067287357+1067805614
1907+1068073854+1067686691+1066716356+1065936510+1065882569+1066329327
1898+1066883100+1067473057+1068086824+1068509570+1068523538+1068115025
1890+1067497932+1067064477+1067092079+1067461484+1067784530+1067720878
1881+1067192911+1066444258+1065848316+1065529327+1065280508+1065003954
1873+1064993046+1065564977+1066541365+1067267603+1067357593+1067123872
1864+1066981005+1067005614+1067094939+1067185062+1067306046+1067566106
1856+1068036874+1068578210+1068881236+1068731053+1068156860+1067387922
1847+1066693676+1066163713+1065730923+1065496404+1065717754+1066421578
1839+1067379276+1068307974+1069032483+1069591445+1070151737+1070755527
1830+1071226162+1071469793+1071707040+1072105110+1072477042+1072586520
1822+1072588050+1072840593+1073367630+1073741823+1073581797+1072951135
1813+1072147811+1071438334+1071047579+1071064606+1071311696+1071488284
1805+1071418779+1071155128+1070882365+1070680037+1070435076+1070100523
1796+1069798495+1069582000+1069332582+1068987255+1068732051+1068776813
1788+1069143358+1069720344+1070287154+1070591776+1070541361+1070248311
1779+1069874451+1069500391+1069172490+1068963976+1068860019+1068677778
1771+1068289684+1067742361+1067066805+1066270597+1065326002+1064083037
1762+1062536647+1061075591+1059916829+1058733724+1057269210+1055588932
1754+1053596117+1050875269+1047003972+1041821670+1035314527+1027052147
1745+1016207330+1002397301+985746902+966302293+945398623+926064889+908573254
1735+888884415+865596977+846572653+837036581+832623216+827894255+819382126
1725+805046989+785449737+764951321+748200158+736201833+728270215+726306732
1715+733065554+746657160+763400541+781338135+799374298+816548807+832435255
1706+846728822+858920894+869584535+880424165+891840049+901942666+910035441
1696+916873545+922687174+927956606+933676787+940297797+947230813+953599879
1686+958956375+962651615+964081544+964237114+964604324+966021881+968788423
1676+972691578+976947909+980706136+983765661+986319499+988440016+990169379
1666+991667748+992994185+994155208+995387996+996988527+998935914+1001060754
1656+1003268135+1005441661+1007280103+1008703646+1010083558+1011554524
1647+1013056685+1014566892+1016214979+1018152722+1020340748+1022532764
1639+1024424614+1025817363+1026742404+1027584837+1028620619+1029643099
1630+1030431924+1031006716+1031554038+1032173925+1032683601+1032831124
1622+1032792614+1033041699+1033642962+1034097102+1033708808+1032363815
1613+1030650680+1029244762+1028820686+1029777984+1031753905+1033905748
1605+1035674553+1037038702+1038243556+1039472953+1040754162+1042050802
1596+1043303078+1044406636+1045265896+1045907665+1046518373+1047311920
1588+1048319235+1049368253+1050274405+1050959472+1051431703+1051766322
1579+1052072341+1052440615+1052934262+1053495685+1053777627+1052848928
1571+1048588208+1038665571+1024581448+1011402546+1002744224+999800430
1562+1001794974+1006873851+1012840855+1016152524+1015255086+1012071185
1554+1007844119+1003770562+1001405217+1001734515+1004740298+1009618511
1545+1015299117+1020658938+1024815834+1027696244+1029789291+1031504288
1537+1033132753+1034824337+1036517319+1038110999+1039762543+1041705940
1528+1043891638+1045971915+1047542515+1048526019+1049192796+1049898017
1520+1050783549+1051710452+1052612014+1053533796+1054396781+1055090961
1511+1055686704+1056332729+1057049589+1057745099+1058388796+1059025310
1503+1059653909+1060270204+1060854507+1061154673+1060385202+1057767114
1494+1053649260+1048959142+1044295162+1040148642+1036551240+1032137476
1486+1025557769+1017573008+1010949071+1008771687+1011991105+1018569150
1477+1025532960+1030720384+1032277749+1027300567+1013196891+992096547+969398665
1468+950032806+938827563+938228029+943582131+948069322+949876238+950050830
1458+948754523+944575345+936892613+926244603+913017014+897830133+881891739
1448+867027903+855330742+848201052+846441027+850474944+858986741+868989723
1438+878263143+886950064+896716133+908641960+923134330+940109836+957789166
1428+973342858+985607029+995215532+1002887689+1008910763+1013459145+1016435131
1418+1017689071+1018021029+1018567287+1019579591+1020370944+1019560968
1409+1015492665+1006788317+992872801+975463042+959696647+950647304+949455886
1400+954317337+962332627+970940732+979098688+986589602+993130599+998765778
1390+1003972091+1009083559+1013855952+1017703637+1020338087+1021872771
1381+1022623485+1023102301+1023911678+1025425079+1027603926+1030029796
1373+1032099498+1033250478+1032815560+1029979979+1024725445+1018778594
1364+1015186180+1016607396+1022736089+1030234518+1036267834+1040113590
1356+1042083525+1042603445+1041982960+1040334342+1037568997+1033460388
1347+1027502829+1018773938+1006326063+989810284+970001791+949695260+933618523
1337+924931468+921825452+918939057+910982098+895441708+873592246+849299554
1327+826690665+809049047+799296546+799957337+811836806+833150718+859882051
1317+886796423+909279738+925486639+937167438+948164234+961226342+975984824
1307+989932598+1000813066+1007891675+1011394365+1011308831+1006743755+995987730
1298+977105142+949200415+914111592+877180470+845734277+825834663+819668058
1288+825356579+838784766+855839288+873759722+891201340+907491779+921671412
1278+931723081+934908511+929896877+919191733+908883330+904965476+909430320
1268+919990668+932926937+945394367+955765091+963394016+968688190+972915788
1258+977495764+983347503+990641277+998779546+1006583795+1012741154+1016100912
1248+1015360374+1008634940+994045264+971236641+942315620+911431781+883615714
1238+863122553+851353293+845932813+842394939+837216294+829708154+821900713
1228+817057885+817802147+824902439+837290388+852882989+869502859+885626554
1218+900822614+915537198+930275526+944957719+959001935+971750176+982689905
1208+991437552+997663019+1001007612+1001004885+996903991+987373372+970727563
1198+946511692+917702277+890786841+872149481+863657438+862346365+864677989
1188+870142433+880219376+895078024+912502748+929529335+944154727+955552254
1179+963257534+966340737+963092985+951298651+929294550+897988097+862615270
1169+831803663+813283097+809401425+816648507+829390962+843685792+857873473
1159+870968105+881726524+889347202+894579321+899761424+907388087+918331142
1149+931398438+944463008+955727911+964082874+968715460+968122644+958982713
1139+937367571+904032454+869106318+848090576+850222200+871518354+899950383
1129+925262562+942810000+951006266+948565165+934605552+910320309+880033211
1119+850293235+827281818+814457954+811992177+817756454+828812046+842531021
1109+857006630+871017457+883923795+895528971+905852140+914933540+922816139
1099+929669474+935796904+941403350+946449703+950855219+954748198+958384377
1089+961854011+964972664+967517124+969519516+971199328+972616088+973531551
1079+973604913+972571658+970138006+965547056+957014441+941611265+916221401
1069+879628622+834726240+788893165+751271854+728393460+721449404+726921962
1060+739396974+754380464+769566547+784276076+798226910+810966770+822056549
1050+831391292+839359624+846708203+854065894+861514839+868684636+875239534
1040+881197958+886820034+892296783+897574928+902447288+906801723+910781566
1030+914641356+918419403+921873008+924811681+927383411+929914502+932529598
1020+935030959+937108576+938592844+939592111+940487222+941699525+943377807
1010+945386252+947588445+949974076+952523392+955130506+957660999+959939746
1000+961717197+962817029+963384039+963912538+964950183+966738808+969090917
990+971554100+973739066+975563009+977159083+978591140+979818874+980891636
980+981948236+983037627+984092232+985011020+985524688+984713781+980754623
970+972153900+960338149+950429014+947740024+953039653+961948656+968666308
960+969168536+961416232+945213589+923819863+904547385+895037984+897786036
950+908953965+922494557+934417458+943423168+949442051+952920332+955050625
941+957503899+961295248+966042101+970594607+974216020+976938731+979119972
931+981082790+983045675+985074273+987072674+988877328+990373768+991580219
921+992643603+993721952+994886966+996099336+997210010+997948686+997690156
911+995131994+989074002+980567460+973645418+972325366+976865302+984023193
901+990623319+995644664+999284501+1001672726+1002939834+1003593708+1004238669
891+1005129855+1006170759+1007208004+1008227025+1009291341+1010349138
882+1011217644+1011859878+1012561308+1013615114+1014919536+1016147603
874+1017274372+1018658475+1020593225+1022984908+1025473898+1027688528
866+1029370801+1030370667+1030455469+1028840572+1023368214+1009758916+983003440
856+942751137+898693983+867379748+860108988+874482368+898799536+922506529
846+941204082+954863662+964813103+972327162+978273947+983144644+987219598
836+990747629+993988796+996997240+999555801+1001504851+1002864809+1003406678
826+1001823241+994981479+979562140+957311348+937937308+932518158+942978739
816+960924115+976889978+987680655+994896411+1000304919+1004420644+1007476444
806+1009826758+1011003544+1007509434+992009882+959413508+917183555+885191369
796+879415785+897530698+924050192+945969890+959342872+964516728+960377989
786+943118746+909739000+864635953+822387776+800046662+804500532+827961831
776+854673410+869863417+864438614+837271100+796420261+755962504+728344907
766+718479936+723969321+739167111+758559708+777980107+794745903+807621779
756+816814586+823902041+831270374+840849413+852915181+866121153+878758054
747+889911019+899498106+907701423+914751831+921026717+926876128+932343565
737+937318219+941854364+946050302+949779065+952905034+955629940+958285607
727+960936087+963442037+965721117+967727500+969372925+970700692+972038769
717+973743523+975788283+977813821+979630115+981370319+982974108+983923625
707+983810356+982868289+981655985+980312655+978242753+974658387+969727963
697+965172930+963237980+964836847+968967538+973922438+978615084+982695559
687+985960271+988200442+989615538+990965786+992978222+995555871+997766311
677+998810341+998893613+998858761+999161854+999647985+1000109442+1000555134
667+1001043395+1001660421+1002547085+1003653036+1004661615+1005314890
659+1005672389+1005879372+1006105711+1006775946+1008223567+1010003479
650+1011133906+1011142952+1010504509+1010035803+1010220971+1011021170
642+1011872050+1011768824+1009784656+1006036339+1002213197+1000579145
633+1001986526+1005238602+1008560514+1011052895+1012707699+1013890272
625+1015055685+1016383319+1017561302+1018259539+1018717271+1019534164
616+1020935426+1022598943+1024231997+1025828404+1027382044+1028908747
608+1030604521+1032369269+1033176517+1030355902+1018507161+991884309+953021895
598+917428716+902538275+911776244+933797970+955208856+969790218+977735604
588+981655453+984132405+986195588+987403036+987898480+989216403+992434025
578+996872265+1001147685+1004444721+1006526661+1007388117+1007239065+1006455494
568+1005324800+1003787456+1001309374+997092019+990731267+982892632+975556025
558+971628593+973439233+980631377+989953549+997940771+1003383332+1006810266
548+1008761777+1009533841+1009749538+1009988646+1010106837+1009678304
540+1008798225+1007672520+1005697331+1001846586+995876855+988600175+981364067
530+975576510+972091246+970738670+970790682+971919713+974332481+978093967
520+982744844+987429973+991269610+993914702+995883972+998002826+1000367040
510+1002353603+1003858224+1005577943+1007619909+1009138631+1009860479
501+1010638396+1011997091+1013308497+1013788243+1013412255+1012577736
493+1011005140+1007592440+1002416257+998201628+998061422+1002079576+1007300987
483+1011064734+1013111889+1014142749+1013960841+1011907500+1008199157
475+1003885294+999933519+996939175+994782743+991885040+985957610+976430650
465+965254007+954575335+944674048+934213401+921601841+906716788+891630605
455+878420908+867875923+861003300+859233897+863070741+871983335+884896258
445+900137679+915579100+929181414+940080305+949189441+958051953+967093247
435+975065437+980708131+984975570+990456774+997995975+1004977943+1008288349
425+1008044319+1007109368+1007253964+1007725130+1007987185+1009944217
416+1014822030+1020882084+1025826010+1027995678+1026677289+1022438850
408+1017140884+1013405869+1012772082+1013841386+1013466528+1010405473
399+1006937768+1005159519+1001122344+989683380+972377711+952751193+930914302
390+904779909+873238538+836339142+795689965+758081092+733455643+725852126
380+732073802+747928658+773532024+810455098+848911660
##END=
