##TITLE=X8864
##JCAMP-DX=5.0
##DATA TYPE=LINK
##BLOCKS=1


$$ === CHEMSPECTRA SPECTRUM ORIG ===
##TITLE=X8864
##JCAMP-DX=5.00
##DATA TYPE=INFRARED SPECTRUM
##DATA CLASS=XYDATA
##ORIGIN=ComPlat
##OWNER=
##XUNITS=1/CM
##YUNITS=TRANSMITTANCE
##XFACTOR=1
##YFACTOR=8.8380803e-010
##FIRSTX=3997.453
##LASTX=373.96442
##MAXX=3997.453
##MAXY=0.9489816453142387
##MINX=373.96442
##MINY=0.523045838966728
##NPOINTS=2559
##XYDATA= (X++(Y..Y))
2559A037395459A037155977A036773454A036553664A036767384A037359513A037963040
2552A038303682A038494136A038793438A039187494A039378621A039171780A038737664
2545A038406597A038217966A037840838A037094539A036365100A036216798A036752210
2538A037577954A038252766A038608312A038766664A038958802A039215886A039287171
2531A038969458A038388119A037798755A037254710A036681397A036218754A036236558
2524A036857957A037677227A038213920A038385759A038367819A038234085A037921362
2517A037473218A037130080A037137903A037471195A037776230A037701708A037304954
2510A036932951A036859980A037146198A037558058A037643843A037198330A036639786
2503A036727257A037645327A038583967A038824056A038632389A038651811A038944100
2496A038971144A038338685A037200286A036040643A035222924A034778287A034671799
2489A034989714A035731629A036676474A037533982A038092459A038317711A038377531
2482A038402889A038318925A037993389A037562240A037330581A037312710A037376643
2475A037615382A038035404A038171027A037569996A036657388A036404283A036931197
2468A037372867A037224092A036734203A036303729A036320859A036879875A037604930
2461A038158753A038583225A039062324A039437362A039179671A038489820A038134340
2454A038274347A038763629A039374574A039650002A039062459A037660366A036229881
2447A035557497A035757729A036357209A036935244A037391548A037829238A038380633
2440A038945854A039164294A038813265A038158551A037590700A037032831A036233186
2433A035618666A035902996A037217955A038905524A040113118A040554450A040346463
2426A039802351A039382735A039280831A039166048A038720669A037994333A037407666
2419A037451232A038181413A039290004A040265736A040746452A040816794A040812276
2412A041009607A041459032A041993365A042318362A042167294A041537128A040786581
2405A040495641A041052634A042167564A043084488A043247560A042714171A042078880
2398A041886404A042061480A042200408A042155020A042010023A041854235A041786726
2391A042021623A042643696A043201363A042984743A041628308A039482075A037805499
2384A037601491A038050309A038270435A038548964A039293174A039911875A039723917
2377A038848604A037679789A036783705A036931197A038298693A039992331A041199520
2370A041777420A041755636A041121491A040169498A039710834A040460572A042330906
2363A044473902A045901217A046177657A045606838A044793975A044066762A043470047
2356A043398425A044292957A045697681A046650551A046534688A045472699A044372673
2349A044180400A044799843A045466292A045661263A045226540A044118894A042595476
2342A041558777A041770676A042578413A043164001A043737517A044558472A045204689
2335A044902555A043272311A040664108A038392638A038212504A039748533A041163642
2328A041734325A042352284A044038032A046168282A047508060A047595935A046950055
2321A046328589A046002648A045824200A045549514A045067447A044431212A043626779
2314A042542602A041483580A041224069A041770406A042572546A043330444A043927699
2307A044340302A044620316A044745957A044627261A044364715A044212771A044142363
2300A043778790A043097100A042908333A043440575A043829708A043543557A042730020
2293A041866239A041317474A041093369A041032672A041122975A041474274A042080296
2286A042697109A043034987A043021296A042803597A042481703A042063571A041725018
2279A041777892A042238647A042782556A043290587A043899105A044499934A044770371
2272A044619169A044125233A043399234A042832867A042826460A043204668A043591777
2265A043822829A043833215A043581729A043272176A043367604A044057995A044817580
2258A044826077A043809476A042389512A041688196A042209377A043438889A044724646
2251A045614729A045903105A045792840A045539667A045066908A044340504A043724231
2244A043526967A043503969A043227193A042593722A041857674A041353487A041189876
2237A041239580A041366369A041543670A041720297A041728188A041485199A041190011
2230A041129854A041399347A041896318A042499103A043116995A043603107A043821683
2223A043846366A043889528A043984282A043929858A043573771A043009899A042500047
2216A042321599A042587180A043106474A043604861A044024747A044319328A044244401
2209A043769146A043302726A043092378A042953922A042804946A042883313A043256528
2202A043624149A043758423A043761458A043836924A044026365A044180804A044108575
2195A043834766A043682755A043893237A044274817A044495011A044531091A044557326
2188A044537431A044266252A043717554A043127043A042847096A043128122A043818310
2181A044369369A044454816A044366334A044455963A044553279A044357027A044004110
2174A043778925A043631837A043472475A043536948A043927295A044213513A044091108
2167A043919133A044110261A044547345A044956642A045291688A045463055A045257226
2160A044762548A044414284A044475318A044811645A045165304A045335389A045149995
2153A044607704A044042821A043862619A044110059A044495078A044758029A044853391
2146A044926968A045179332A045662882A046252044A046774102A047006908A046684676
2139A045852255A045008167A044588349A044590642A044860607A045294183A045640019
2132A045597734A045267679A045129493A045465685A046054442A046476756A046565508
2125A046470484A046356509A046221358A046047766A045953551A046066244A046318608
2118A046486198A046430627A046224460A046031917A045980865A046145959A046499146
2111A046824885A046838373A046531653A046356577A046851389A047948785A048838395
2104A048780059A047889100A046884975A046330545A046322249A046635377A046933599
2097A046934813A046485389A045595913A044573309A043981517A044115926A044607906
2090A044872475A044807531A044695377A044617955A044393445A043990622A043628128
2083A043492639A043634130A044035739A044540870A044838014A044717228A044201509
2076A043349935A042147467A040663367A039158899A038011395A037537152A037789043
2069A038453672A038966019A038822505A037950429A036843862A036158327A036074970
2062A036248293A036412106A036694683A037229218A037835510A038283586A038537770
2055A038574390A038320274A037872737A037437070A037027638A036530600A035918304
2048A035195476A034439330A033969741A034054716A034498543A034929354A035239177
2041A035426123A035385119A035119403A034791169A034474737A034136724A033797362
2034A033548236A033462452A033439859A033136443A032314813A031239134A030373397
2027A029802916A029345264A028999630A028842291A028685289A028253466A027564222
2020A026880710A026385898A026068724A025834232A025630359A025477336A025374624
2013A025192669A024718156A023842506A022709569A021701600A021183858A021133143
2006A021125926A020828311A020304229A019717022A019054890A018312637A017578140
1999A016827525A015997128A015275242A014918683A014783262A014429401A013690588
1992A012832944A012179848A011822816A011617190A011303186A010708899A009921663
1985A009201531A008727963A008426503A007990498A007199689A006323701A005889720
1978A005885741A005699807A005021893A004202084A003548448A002925026A002214741
1971A001573515A001075802A000581799A000029527I99486359I98879123I98033214
1964I97063821I96405533I96279486I96397912I96398519I96307137I96290681I96145616
1956I95396215I93906516I92159128I90848350I90313613I90349222I90395553I89906743
1948I88751214I87342849I86276544I85802301I85650559I85283682I84321910I82817240
1940I81153680I79685428I78492942I77470203I76535542I75684845I74919191I74224282
1932I73585348I72921732I72088704I71033459I69869432I68732112I67676058I66704102
1924I65793585I64906538I64000809I63008688I61900435I60789282I59793452I58798162
1916I57577485I56133512I54706264I53503594I52555309I51768614I51058464I50410493
1908I49805483I49213151I48693115I48293192I47845318I47157693I46400738I45982741
1900I46029410I46224988I46200035I45919481I45624968I45474507I45361949I45099672
1892I44637838I44091838I43649629I43402998I43218076I42855717I42218739I41459559
1884I40897441I40739022I40711642I40205432I38989948I37475836I36084197I34801745
1876I33519831I32301043I31130407I29878775I28641642I27667259I26865119I25850339
1868I24573213I23448303I22734578I22203077I21583634I20973903I20629213I20587130
1860I20647018I20563728I20158005I19343591I18193524I16984178I16001634I15231596
1852I14416371I13491828I12727657I12318089I12069908I11593709I10662690I09414159
1844I08305704I07746621I07676482I07635816I07248638I06439215I05283618I03931702
1836I02599073I01420682I00418040H99663109H99205052H98796766H98061999H97009115
1828H96019287H95255724H94439017H93316129H92075961H91149258H90761070H90827566
1820H91176235H91680354H92230468H92758933H93283487H93776951H94089269H94143963
1812H93993436H93500512H92295751H90275362H87806290H85297225H82949749H80950199
1804H79441955H78293035H77278727H76476250H76165483H76389319H76865180H77352642
1796H77928855H78813880H80015134H81264540H82257942H82901327H83394183H84080527
1788H85088092H86166266H86998013H87496332H87648546H87376018H86804593H86387674
1780H86445471H86761768H86890580H86711659H86454373H86341747H86444729H86718876
1772H86973936H87003745H86879857H86835481H86814574H86514935H85919433H85357382
1764H84995091H84656943H84195784H83699353H83250804H82759499H82133986H81445686
1756H80820106H80244972H79570092H78725195H77921976H77526369H77658351H78097862
1748H78667803H79446878H80514532H81764209H82994462H83939374H84381313H84513092
1740H84906676H85852937H87034498H88000384H88618208H88976251H89187813H89361945
1732H89541067H89658549H89667721H89633124H89622873H89616938H89578429H89526298
1724H89486036H89429588H89327415H89245879H89344343H89731250H90333091H90964876
1716H91522610H92022076H92476222H92892129H93378916H94071869H94921353H95702922
1708H96267199H96703810H97248327H98051344H99041913I00031673I00949541I01915157
1700I03043575I04212997I05146714I05779780I06400504I07303063I08467494I09703278
1692I10885446I11948110I12901047I13911916I15130434I16428871I17526266I18305071
1684I18840955I19226042I19528041I19850340I20285401I20798894I21280960I21740367
1676I22314220I23022752I23682322I24140379I24442716I24722797I25093519I25647882
1668I26401397I27222420I27917801I28364056I28516877I28385368I28090517I27889881
1660I28000551I28377275I28769442I29023626I29202547I29365752I29393741I29141176
1652I28672935I28273753I28217777I28508851I28837220I28846257I28438915I27770443
1644I27023537I26297066I25632033I24997551I24286051I23420652I22448898I21466760
1636I20471874I19362677I18081640I16688045I15270307I13873542I12532079I11275658
1628I10080474I08894394I07709798I06561485I05501047I04591002I03850097I03205163
1620I02559958I01898162I01283575I00770890I00372518I00134250I00189821I00601816
1612I01175602I01619294I01890878I02198813I02675618I03227014I03712182I04169228
1604I04807689I05740529I06796381I07742574I08603050I09546006I10570566I11530787
1596I12370693I13147273I13905576I14671231I15508170I16450991I17390171I18152521
1588I18703174I19148822I19564931I19974769I20433500I20947938I21409570I21740906
1580I21949972I21973711I21725125I21335317I21082010I21049571I21087608I21079043
1572I21046806I21004116I20854803I20483204I19930190I19440706I19233056I19255581
1564I19326124I19439357I19653683I19748168I19380481I18602080I17858614I17429893
1556I17155342I16745437I16121881I15384821I14574655I13579501I12304399
1549I10885851I09629498I08717767I08034120I07280336I06238444I04908243
1542I03430887I01956566I00678294H99820381H99346408H98775454H97620262
1535H96012611H94598581H93807704H93499972H93363539H93354030H93563569
1528H93848303H93858419H93469961H93006778H92900222H93181922H93458766
1521H93395978H93085751H92917756H93232300H94099250H95273528H96363370
1514H97144266H97683792H98184741H98845525H99786930I00899095I01921429
1507I02859057I04059704I05650900I07219032I08277244I08817849I09241579
1500I09912951I10908039I12087172I13293889I14439370I15434323I16180824
1493I16682313I17067737I17470762I17977175I18675793I19628191I20759779
1486I21882869I22862580I23705926I24435904I24921612I24959919I24633169
1479I24473739I25036801I26250869I27400463I27876662I27807603I27835793
1472I28451999I29654872I31045904I32113827I32625500I32854259I33251013
1465I33915978I34658500I35469138I36507792I37655701I38524742I38993118
1458I39357904I39807599I40068257I39845298I39396548I39330658I39936276
1451I40962049I41928609I42466179I42567273I42693657I43383845I44590360
1444I45639939I45993599I45837541I45760254I46013291I46333567I46451993
1437I46503585I46815701I47477497I48281862I48993564I49562898I50113349
1430I50764422I51472415I52074391I52464130I52683852I52886107I53223176
1423I53706793I54205450I54628977I54993090I55262920I55384179I55544755
1416I56068567I56927762I57742311I58395137I59224792I60473727I61945418
1409I63243517I64038373I64231389I64147627I64408286I65379567I66786110
1402I67865094I67955465I67096203I66007979I65389615I65373834I65713601
1395I66216371I66862049I67743566I68978608I70450097I71634491I72017419
1388I71627747I70918135I70286688I69946045I69975178I70224710I70359861
1381I70174197I69802531I69647350I70101833I71248190I72774441I74168306
1374I74965185I75028580I74726647I74546716I74520481I74359703I74046171
1367I73896722I74199194I75001401I76061232I76983011I77570150I77911063
1360I78100437I78193909I78379237I78775990I79126008I79062883I78657227
1353I78425164I78803911I79771483I80983864I82162593I83245624I84140360
1346I84543925I84314222I83943163I84204563I85229460I86357608I86962619
1339I87012525I86879532I87037343I87798277I88938294I89766938I89869381
1332I89594425I89616546I90203212I91134771I92210720I93398014I94437275
1325I94850147I94574382I94135546I94059810I94487047I95297954I96268898
1318I97225207I98147324I98990063I99609371A000084019A000673451A001180133
1311A000998920A000174658I99719637A000403958A001855080A003294129A004392199
1304A004897263A004427943A003394818A003122021A004211795A005731302A006715936
1297A007407339A008222764A008566240A007717701A006275549A005628455A006228745
1290A007241434A007835048A008047486A008354004A009063345A010111172A011059456
1283A011461537A011462279A011700209A012409551A013063119A013238263A013551727
1276A014958810A016953235A017623325A016169169A014114587A013120849A013021778
1269A012959193A012898024A013215332A014048765A015397310A016849308A017369614
1262A016570576A015801347A016424769A017813036A018703861A019023327A019202854
1255A018930866A017673029A015835068A014477216A014182770A014806057A015845116
1248A016513251A015980132A014251425A012564193A012276423A013475317A015182309
1241A016530044A017046370A016414586A014900339A013570341A013228012A013501889
1234A013611143A013496628A013577894A013864922A013940658A013617212A013133662
1227A012735627A012425872A012251268A012454871A013045180A013529607A013446587
1220A012971805A012665489A012827819A013415430A014341728A015435009A016310659
1213A016708155A016743426A016562753A016123781A015502922A014979043A014741179
1206A014855491A015358869A016155883A017142271A018430726A020035680A021568135
1199A022589390A022883565A022297237A020930416A019611950A019529874A021017684
1192A023026338A024197244A024372185A024585096A025586658A027025842A028057685
1185A028167681A027607991A027510741A028894153A031121584A032409028A032144188
1178A031612282A032089561A033236997A033960366A033962390A033800465A034013307
1171A034593163A034970359A034842761A035230950A037321140A039957869A040430291
1164A038225587A035770408A035105307A035610978A035461327A034375329A033927321
1157A035274314A037657129A039558485A040416668A040422401A039642247A038346306
1150A037446579A037832273A039482749A041528563A043141408A044080115A044375910
1143A043945504A042714104A040951001A039553495A039735718A041668638A043804688
1136A044602309A044312111A044079913A044243794A044683305A045717103A047349641
1129A048692723A048944277A048120421A046654125A045059894A044073574A044369638
1122A045837890A047386059A047723128A046415925A044078564A041686037A039921788
1115A039015048A038728088A038317172A037073767A035184415A033555587A032640956
1108A031970258A031025684A029968753A029198243A028808908A028659188A028668361
1101A028929222A029573618A030453921A030975980A030583610A029538683A028880395
1094A029323345A030426743A031194959A031115717A030572280A030359842A030799825
1087A031562579A032153225A032425820A032687423A033287578A034121145A034606718
1080A034253531A033261006A032398912A032278462A032883203A033750490A034460911
1073A034890509A035068822A035107196A035349241A036217877A037721468A039256958
1066A040013710A039750759A039061110A038726065A038925824A039177513A039003516
1059A038544244A038411521A039022332A040108802A041041709A041563970A041724546
1052A041541782A041104699A040721703A040765539A041321048A042057703A042556359
1045A042678765A042551909A042381621A042353431A042565464A043017115A043595014
1038A043969310A043910300A043664074A043632444A043925879A044345562A044677236
1031A044795189A044667861A044510117A044685126A045192078A045637995A045725264
1024A045585190A045567723A045768629A046015462A046176510A046287855A046477633
1017A046909456A047645706A048490064A049198731A049803538A050471877A051213522
1010A051866011A052348077A052901833A053820915A054967744A055975916A056654099
1003A057011333A057323583A058019504A059024641A059915532A060574900A061181057
996A061843662A062589557A063468242A064340655A064909720A065067261A064974125
989A065057954A065890847A067483729A069229567A070679610A071569692A071787863
982A071599569A071538940A071967930A072729066A073400506A073723951A073741823
975A073484469A072759684A071608876A070590588A069954285A069308675A068320129
968A066831645A064708409A061893973A058643398A055619154A053272150A051401210
961A049730164A048587381A047989182A047302972A046228305A044808543A042938884
954A040632141A038329243A036215584A033792102A030456754A026442345A022907304
947A020079314A016790365A011933015A005237906I96282588I83543712I66923352
940I49599923I32246618I09830606H80016348H50439143H24222780G97257554
933G71848388G51453170G33068156G13483710F94238558F77365161F60007135
926F38667612F18917599F06939723F00049238E95192899E92103845E91809331
919E94566914E99387307F06199224F16169457F28715453F40786801F51299797
912F61875108F74165099F87474727F99561317G09650717G18050391G25416535
905G34343663G48069736G61141972G68674223G74568070G82590345G92640900
898H01494045H08356205H14423509H20205741H25707757H31793067H40409563
891H50995799H59974923H66870601H73434606H80840406H89098251H97547022
884I05988509I14592258I22432443I27838154I29543527I25123328I11122703
877H88359843H60111557H26516438G88019390G49142718G16509573F94373777
870F83588118F83187116F91254779G05107708G21998572G40013134G58256319
863G76280592G93490181H09368018H23893399H37155412H48954166H59052199
856H67303031H73420646H77015641H77998589H76773326H74022419H70841241
849H68755704H67889158H66779286H64160766H60126193H56769668H55949117
842H57625491H60709015H63846695H66535758H70082668H75873869H81509553
835H85855634H89743389H93143548H95736643H97688850H99314576I00779118
828I02255665I03867363I05838655I09759186I17596472I26292952I32364707
821I36497272I40104743I43392343I45415160I45646077I44272107I41729052
814I38896610I36961736I37016565I39579245I43538824I47475001I51333824
807I55034768I57724371I58909912I58917870I58491982I58966494I62909753
800I70438227I76933780I81005311I83631587I85410066I86751597I88218769
793I89916927I91218937I91594177I90793319I88755395I86050955I83598608
786I81709729I80465313I80249772I81499314I84165717I87611398I91094981
779I94132241I96643801I99070520A001695785A003821314A004757053A004545627
772A003695537A002943842A002588632A002063336A000576741I97466915I92721246
765I88338207I85896381I84268564I82232327I79365490I75805699I72082837
758I68777365I65948901I63052120I59578519I55345670I49536327I39793976
751I24536998I06728468H89282837H70636558H48803032H25365630H04089501
744G86343353G71430660G59655040G52032148G48209204G46775819G46601957
737G47021236G47683773G48703747G50496793G53361674G57245921G61940808
730G67505004G74161469G81497266G88714636G95962355H04076013H13038411
723H21814472H29523755H35369044H38547457H39161235H38154952H36823740
716H36560384H38037673H40853997H44430445H48521399H52989886H57629672
709H62379185H67510142H73193978H78951189H84217027H89045445H93677611
702H98144209I02663816I07867677I14160974I21007623I27481662I33293838
695I38685588I43866451I48771616I53249140I57343264I61185496I64718985
688I67734191I70072159I71637256I72284012I71838971I70327692I68076521
681I65290006I61694943I56854116I50481373I42413576I32592252I21158555
674I08406933H94588330H79871822H64560689H49241733H34754321H22151540
667H12493221H06404740H03926901H04681967H07884187H12323607H16525029
660H18921400H18151564H13525401H05251369G94250710G81754215G68879648
653G56401025G44755295G34091907G24309563G15176270G06481004F98127932
646F90210189F83025191F76916343F72043752F68313673F65534846F63640099
639F62702808F62720747F63491527F64778701F66514625F68773551F71588864
632F74889413F78630754F82899549F87806265F93305179F99163214G05046202
625G10635014G15784653G20608754G25319623G29976404G34470114G38707684
618G42716158G46601013G50463612G54305372G57999775G61407352G64511917
611G67417466G70263531G73171980G76226572G79468514G82915140G86607788
604G90642699G95118065H00013923H05101111H09949559H14110921H17509798
597H20699339H24489170H29207660H34480647H39729423H44673165H49319493
590H53695721H57793823H61727910H65705563H69740069H73514928H76603106
583H78696331H79592146H79088566H76964790H73041629H67235860H59506480
576H49764399H38003817H24660537H10781778G97741846G86848956G79290673
569G76192717G78256065G85168941G95532286H07461132H19312623H30085536
562H39454265H47546274H54637260H60953218H66660456H71975998H77202047
555H82536000H87904888H93127092H98136656I02908019I07335637I11370143
548I15117351I18632496I21710693I23991740I25254230I25562232I25102084
541I23854835I21363912I16766277I09143385H98088099H84139133H68826517
534H54348209H42939129H36052690H33785131H34983418H38019599H41702873
527H45677829H50088721H54916330H59545933H62783829H63299548H60322513
520H54172391H46252087H38603905H33327546H32001594H35193023H42281447
513H51770895H61928411H71339021H79189322H85318874H90028326H93731226
506H96760461H99411420I01980102I04726018I07867272I11539284I15677514
499I20003701I24179561I27979644I31373733I34454964I37279044I39851233
492I42252123I44586988I46809564I48754419I50311625I51481316I52353393
485I53086473I53805661I54538337I55318558I56263268I57478078I58955029
478I60585139I62202300I63599334I64551664I64893724I64629693I63956770
471I63113087I62207763I61283555I60599436I60741669I62240943I64997785
464I68228465I71020848I72766011I73065987I71608121I68267378I63032293
457I55956885I47960777I41725478I40487267I44676212I49601205I47035220
450I30496667I01192125H69652801H49669105H48329463H61634707H79732018
443H95191318I06148006I13849668I19546385I23698170I26582745I28594299
436I29980813I30702024I30645441I29870547I28636854I27231255I25783775
429I24311679I22893873I21608183I20339825I18869618I17105369I15075875
422I12812430I10345921I07728546I05047913I02444971I00025131H97732619
415H95438218H93107871H90725933H88115640H85039804H81502674H77790669
408H74181175H70757007H67512839H64432619H61438387H58483135H55700396
401H53259919H51117867H49088440H47106628H45281952H43755364H42593832
394H41784679H41252774H40874364H40534463H40208319H39984214H40029669
387H40523537H41535350H42943378H44563506H46322495H48211577H50185296
380H52248173H54528681H57150371H60053761H62974012H65622543H67919035
373H69969570H71783657H73129572H73687306H73322115H72330534H71403494
366H71162461H71805980H73292913H75508003H78072774H80457545H82604587
359H85204022H89167782H94883181I01795450I08348259I12263462I11268375
352I04093492H91145414H74472856H57116583H41872824H29770790H19735409
345H10407145H02315136G97733079G98428257H03934657H11962934H20172897
338H27519417H34197126H40742113H47398241H53993067H59972832H64623477
331H67518234H68622644H67759268H64198937H57120562H46424667H32852831
324H17480124H01507938G86473042G74080946G65493112G60941606G60231860
317G63385320G70356802G80157286G90749458G99979664H06403459H09332207
310H08661374H05026387G99959229G95551776G93697763G95443399H00801564
303H08902340H18349772H27851023H36824954H45427152H54062935H63022569
296H72408226H82105054H91655131H99924240I04768843I03729245H96059145
289H83964125H70755793H57257534H40435257H15984357G82406637G43110753
282G05416250F77386742F64147456F65820929F78138909F94637268G09241285
275G18945599G25178200G32005426G42508575G56898063G73397569G89901526
268H04892517H17691888H28311777H37114544H44548399H50916219H56157239
261H59857576H61493351H60771465H58034249H54477830H51834492H51689090
254H54924558H61468600H70193405H79041560H85668554H88512394H87581847
247H84296203H80668837H78458939H78371131H79516005H79680560H76377314
240H68013991H54514316H37199115H18159927G99397246G82345873G68182446
233G58149560G53230907G53666169G58916901G67985519G79670432G92731743
226H06118387H19044412H30929893H41475935H50604508H58267999H64684241
219H70544232H76406786H82109033H87192309H91573191H95502624H99195678
212I02733752I06277964I10225809I14487657I17157230I16676985I14026160
205I10859144I08825942I09030894I10997803I12964711I13283638I11684551
198I09512084I08486243I09096919I10527336I12048259I13842250I16298036
191I19131692I21637115I23455519I24686312I25520284I26208246I27197062
184I28920172I31521091I34835060I38432011I41795886I44730839I47398996
177I49841833I51917658I53837763I56126364I58742794I60785640I61544483
170I61473805I61662572I62573156I63564602I63430665I61167422I56609981
163I50952514I46537440I45469921I48050945I52743133I57813933I62515157
156I66519517I69290049I70875445I72351318I74329152I76014226I76507959
149I75923518I74551234I72204364I68952846I65179673I60694123I55113809
142I49247546I44869564I42846208I41975211I39753242I34253249I25091833
135I12873059H98439802H82728206H66885034H52145663H39374820H28826283
128H20595346H14944960H11705918H09710617H07313234H03425075G98194373
121G93016545G89578687G88576585G89572347G92104004G96386220H02506330
114H09432694H15589154H20404556H24735194H29549045H34608245H38773788
107H41482882H43400761H45733467H49391991H54001025H57460126H57917105
100H55978521H53658493H52175742H51733803H52439705H54200986H56085347
93H56973542H56839132H56688200H57125148H57556836H57057168H55384234
86H52987728H50586164H49076301H49198436H50847295H53388730H56628650
79H60608326H64620307H67634165H69513468H70751477H71641560H72524898
72H74134438H76809677H79767289H82321471H85384156H90126655H95683567
65H99791381I01747297I03050724I05031053I07261992I08267330I06709113
58I02044576H94951499H87142943H79590055H71727682H64292343H60794800
51H63642012H70848322H78732276H85897380H92592287H97913630H99942921
44H98378296H95374352H93428755H93930918H97120797I02399921I09115532
37I16753328I24150158I29790697I33100283I34851448I36714835I39057591
30I40184997I39112825I37717409I39439845I44641480I49667431I51486780
23I50382370I47686563I44297195I42238027I45079777I54191692I64523070
16I71056659I74688004I77284539I78887267I78830685I77037234I74247279
9I71863115I71692894I74261914I77890089I81141676I84407829I87668993
2I87327068I82457377
##END=


$$ === CHEMSPECTRA PEAK TABLE EDIT ===
##TITLE=X8864
##JCAMP-DX=5.00
##DATA TYPE=INFRAREDPEAKTABLE
##DATA CLASS=PEAKTABLE
##$CSTHRESHOLD=0.93
##MAXX=3997.453
##MAXY=0.9489816453142387
##MINX=373.96442
##MINY=0.523045838966728
##$CSSOLVENTNAME=- - -
##$CSSOLVENTVALUE=0
##$CSSOLVENTX=0
##NPOINTS=39
##PEAKTABLE= (XY..XY)
400.8785259499905, 0.8327575344339568
432.04222757626076, 0.7896195079019026
446.20754649726314, 0.760777356422244
491.5365670445658, 0.7504204529064971
509.9514816419073, 0.7527691745138381
541.115183268178, 0.6969503180929776
602.026054628644, 0.8365573901676432
653.021202744359, 0.8038340832212345
661.5203940969782, 0.8032276654119143
701.1832870758403, 0.6657115240507832
733.7635205942138, 0.7527296568053927
769.1768178967941, 0.5869788547168717
806.0066470914776, 0.7014764563324368
823.0050297967159, 0.6718990225298358
858.4183270992962, 0.7050429010168243
890.9985606176697, 0.7699403784663618
923.5787941360436, 0.7423847934064384
1004.3211119859261, 0.7497603914849879
1017.0698990148799, 0.8323045395119884
1103.4783444331506, 0.7353296897499998
1124.726322814699, 0.7369059940724019
1178.5545347146208, 0.6860053561121175
1277.7117671618448, 0.5857020632139482
1314.5415963565283, 0.710517050636815
1386.7847228537917, 0.7393587849590835
1417.9484244800624, 0.6598528048103147
1481.6923596247275, 0.8674569751526914
1522.77178449572, 0.8281427643900169
1566.6842731508991, 0.7564947028760095
1603.5141023455822, 0.6038062591133415
1675.757228842846, 0.523045838966728
1929.3164375293368, 0.9107234499247856
2106.382924042236, 0.8948157450024141
2539.8416830258134, 0.7895534653468609
2667.329553315101, 0.7976897384368627
2804.7331468491107, 0.7874419118567543
2852.8952311806097, 0.775564851458943
2922.305293893667, 0.7743620894842285
2952.052463627843, 0.7873205561761549
##END=


$$ === CHEMSPECTRA PEAK TABLE AUTO ===
##TITLE=X8864
##JCAMP-DX=5.00
##DATA TYPE=INFRAREDPEAKTABLE
##DATA CLASS=PEAKTABLE
##$CSTHRESHOLD=0.93
##MAXX=3997.453
##MAXY=0.9489816453142387
##MINX=373.96442
##MINY=0.523045838966728
##NPOINTS=70
##PEAKTABLE= (XY..XY)
3151.7834604143864, 0.8805198098510726
3137.618141493354, 0.8752471233877124
3065.3750149960906, 0.8360671427372102
3008.7137393119624, 0.8136222978086539
2953.4689955199374, 0.7872617864773921
2922.305293893667, 0.7743620894842285
2895.391187943706, 0.7833965439742222
2886.8919965910864, 0.7833559533228284
2852.8952311806097, 0.775564851458943
2810.399274417514, 0.7859226485046084
2725.4073608913213, 0.8200765277835445
2709.825510078186, 0.8203663249013493
2660.2468938545735, 0.7955458782280275
2603.5856181704457, 0.8140310068778551
2590.836831141517, 0.8124255563342396
2539.841683025801, 0.7895534653468609
2531.342491673182, 0.7891523861923826
2524.259832212666, 0.7891678828823807
2467.5985565285378, 0.8170573140523242
2460.515897068022, 0.820003809826452
2430.7687273338543, 0.8301879783655838
2413.770344628616, 0.8358705069400396
2364.1917284050037, 0.8521214148480448
2351.442941376075, 0.853205146441087
2334.444558670836, 0.8572461032377413
2325.945367318217, 0.8569821141982205
2308.9469846129787, 0.8607377432942777
2289.115538123534, 0.8647400166972669
2276.366751094605, 0.8696168685229989
2267.867559741986, 0.8722120550242419
2259.3683683893664, 0.8746114992582328
2245.2030494683345, 0.8785580423782743
1675.757228842846, 0.523045838966728
1603.5141023455822, 0.6038062591133415
1566.6842731508991, 0.7564947028760095
1524.1883163878028, 0.82809430607954
1510.022997466771, 0.8471229103822154
1483.1088915168098, 0.8663526198992691
1417.9484244800624, 0.6598528048103147
1386.7847228537917, 0.7393587849590835
1314.5415963565283, 0.710517050636815
1277.7117671618448, 0.5857020632139482
1178.5545347146208, 0.6860053561121175
1124.726322814699, 0.7369059940724019
1103.4783444331506, 0.7353296897499998
1035.4848136121968, 0.8489854951502711
1015.6533671227521, 0.831210198687354
1004.3211119859261, 0.7497603914849879
923.5787941360436, 0.7423847934064384
890.9985606176697, 0.7699403784663618
858.4183270992962, 0.7050429010168243
823.0050297967159, 0.6718990225298358
806.0066470914776, 0.7014764563324368
769.1768178967941, 0.5869788547168717
733.7635205942138, 0.7527296568053927
718.1816697810787, 0.7763114588979819
701.1832870758403, 0.6657115240507832
661.5203940969504, 0.8032276654119143
651.6046708522281, 0.8029274367079313
613.3583097654414, 0.8497582694936542
600.6095227365126, 0.8356139083032657
541.115183268178, 0.6969503180929776
509.9514816419073, 0.7527691745138381
501.45229028928816, 0.757147910366246
491.5365670445658, 0.7504204529064971
446.20754649726314, 0.760777356422244
432.0422275762312, 0.7896195079019026
412.2107810867865, 0.8287621759449942
400.8785259499605, 0.8327575344339568
383.88014324472215, 0.8587899824111388
##END=

##END=

