##TITLE=NiW-X15494
##JCAMP-DX=4.24
##DATA TYPE=INFRARED SPECTRUM
##DATE=27/2/2020
##SAMPLING PROCEDURE=Diamant-ATR
##ORIGIN=Marie
##XUNITS=1/CM
##YUNITS=TRANSMITTANCE
##RESOLUTION=4
##FIRSTX=3997.453
##LASTX=373.96442
##DELTAX=-1.4165319
##MAXY=1.0070925
##MINY=0.41548675
##XFACTOR=1
##YFACTOR=9.3792796e-010
##NPOINTS=2559
##FIRSTY=0.9975059
##XYDATA=(X++(Y..Y))
3997+1063520811+1063354185+1062719010+1062143953+1062075002+1062489661
3989+1062955159+1063075204+1062911056+1062883285+1063227214+1063696716
3980+1063899883+1063728109+1063342301+1062934379+1062632519+1062482670
3972+1062423569+1062396116+1062456806+1062643895+1062791710+1062706618
3963+1062517940+1062611230+1063150891+1063862262+1064330874+1064377773
3955+1064167743+1064047317+1064227416+1064580623+1064770889+1064576301
3946+1064076995+1063553730+1063242974+1063161885+1063134622+1063008668
3938+1062764003+1062467736+1062248809+1062221991+1062307274+1062228600
3929+1061867895+1061502486+1061545827+1062107475+1062815414+1063180060
3921+1063082575+1062724984+1062350615+1062221483+1062529760+1063088486
3912+1063374775+1063063193+1062393574+1061901321+1061876283+1062219259
3904+1062670649+1063061414+1063385324+1063739484+1064188651+1064604517
3895+1064748901+1064560668+1064268659+1064143467+1064148106+1064053481
3887+1063777360+1063432033+1063220096+1063228548+1063316564+1063302265
3878+1063213169+1063223337+1063365624+1063478996+1063421230+1063238589
3870+1063027224+1062805374+1062623940+1062555625+1062473773+1062154375
3861+1061773587+1061789284+1062261709+1062820053+1063192770+1063428855
3853+1063611560+1063697351+1063750733+1063862452+1064087417+1064477609
3844+1064936816+1065144178+1064890870+1064371037+1063865058+1063415383
3836+1063058999+1062949376+1063012862+1062922749+1062523660+1062074303
3827+1061996518+1062479366+1063263564+1063857750+1063997685+1063881835
3819+1063828580+1063885584+1064110866+1064534740+1064793703+1064546115
3810+1063943096+1063384180+1063124010+1063159089+1063303473+1063362955
3802+1063321648+1063274240+1063054804+1062409525+1061640070+1061441034
3793+1061944090+1062511966+1062548952+1062048247+1061478592+1061324040
3785+1061704382+1062368282+1063074950+1063817459+1064557999+1065017397
3776+1064986067+1064603183+1064111947+1063594719+1063131318+1063065544
3768+1063628400+1064398681+1064748202+1064655420+1064562066+1064579860
3759+1064413552+1064034289+1063821590+1063866075+1063873510+1063762426
3751+1063911195+1064458036+1064786776+1064459815+1063774691+1063560339
3742+1064287597+1065426400+1066300457+1066607018+1066392730+1065932506
3734+1065399392+1064837997+1064420796+1064273235+1064284229+1064276158
3725+1064143594+1063852475+1063542037+1063551378+1064039437+1064693486
3717+1065047837+1064903008+1064329794+1063541846+1062909849+1062755233
3708+1062972953+1063243292+1063461075+1063698241+1063879928+1063730651
3700+1063237509+1062829332+1062824438+1063064718+1063068468+1062383089
3691+1061012458+1059802988+1059880010+1060957361+1061683919+1061610711
3683+1061244031+1061152520+1061525300+1062186149+1062759999+1062882459
3674+1062650949+1062661816+1063108059+1063429682+1062910039+1061695612
3666+1060557763+1059944957+1059901235+1060285518+1060868201+1061426418
3657+1061786933+1061759416+1061248861+1060417700+1059537860+1058969412
3649+1059262946+1060487541+1061735140+1062303080+1062341845+1062276898
3640+1062260566+1062310706+1062581744+1063025445+1063135703+1062649678
3632+1062191233+1062655079+1063964639+1064635402+1063743361+1062052505
3623+1060570155+1059825611+1059776107+1059903968+1059796061+1059592449
3615+1059599948+1059891576+1060271282+1060350084+1059925447+1059387566
3606+1059284744+1059459631+1059393413+1059139152+1059272034+1059992111
3598+1060790226+1061137332+1060999494+1060686513+1060451953+1060281705
3589+1059973236+1059339714+1058482370+1057861176+1057850627+1058355272
3581+1058849240+1058784992+1058145940+1057498691+1057363967+1057622866
3572+1057702303+1057345728+1056935835+1056989852+1057449186+1057712344
3564+1057501805+1057107164+1056876861+1056858432+1056817633+1056561720
3555+1056166635+1055828489+1055670950+1055731259+1055933282+1056050212
3547+1055859819+1055417198+1055039398+1054944137+1055052616+1055131099
3538+1055009529+1054734933+1054560427+1054669287+1054911918+1054958944
3530+1054723939+1054479465+1054463514+1054532147+1054391957+1053993440
3521+1053488604+1052988345+1052608574+1052552587+1052824197+1053030923
3513+1052816444+1052331753+1051976958+1051847444+1051759047+1051663151
3504+1051669697+1051749578+1051708843+1051521564+1051436471+1051603542
3496+1051819864+1051808489+1051554736+1051207757+1050912063+1050835867
3488+1051031599+1051250907+1051194666+1050819090+1050188681+1049373598
3479+1048697497+1048648946+1049283358+1050023834+1050255916+1049921965
3471+1049355868+1048809090+1048384199+1048189993+1048230728+1048255512
3462+1047962931+1047265097+1046271758+1045213726+1044437344+1044191409
3454+1044300332+1044287876+1043922659+1043439430+1043097980+1042754115
3445+1042148998+1041455866+1041075079+1040964122+1040604560+1039695742
3437+1038565772+1037797970+1037623337+1037794221+1037980865+1038094046
3428+1038172148+1038212883+1038237922+1038277513+1038245992+1038080828
3420+1037967583+1038133383+1038522368+1038914149+1039218932+1039456860
3411+1039536488+1039250516+1038559862+1037774075+1037294088+1037217193
3403+1037312898+1037280742+1036968271+1036508619+1036229002+1036188712
3394+1035968513+1035220538+1034130668+1033063739+1032130836+1031357441
3386+1030837862+1030509376+1030109016+1029471426+1028617514+1027565392
3377+1026312010+1025013126+1023945435+1023177887+1022422667+1021374803
3369+1020082783+1018792796+1017558859+1016212631+1014617417+1012831873
3360+1011144767+1009930785+1009268475+1008751438+1007853169+1006423119
3352+1004737665+1003181216+1001918747+1000773970+999439181+997818420+996080474
3342+994416373+992870664+991379861+989882450+988410775+987074652+985902231
3332+984713796+983243774+981455625+979669826+978236155+977132876+976085139
3322+974986435+973967677+973150052+972529302+971941853+971063094+969666789
3312+967908444+966136881+964505507+962982040+961634096+960705006+960381667
3302+960519061+960681747+960533423+960073072+959444379+958752200+958178414
3292+958008928+958338876+958870783+959187640+959197871+959141821+959189038
3282+959257862+959282392+959381846+959649135+959975587+960176784+960240779
3272+960454113+961231385+962673381+964346125+965683139+966579311+967410726
3262+968536819+969988539+971590616+973154310+974563451+975851659+977193819
3252+978727836+980437629+982233722+984020283+985714570+987345562+989048048
3242+990837722+992556794+994111781+995564073+996974740+998331517+999598626
3233+1000734887+1001755679+1002775200+1003874857+1004973560+1005944911
3224+1006812867+1007711263+1008656495+1009482763+1010093535+1010651561
3216+1011365029+1012229680+1013123755+1013963559+1014657898+1015144749
3207+1015510285+1015867813+1016213076+1016573718+1017087578+1017787319
3199+1018524491+1019165894+1019677719+1020087803+1020551458+1021307568
3190+1022389875+1023522705+1024430570+1025102858+1025674738+1026220753
3182+1026759206+1027334581+1028036801+1028945492+1029997169+1030953522
3173+1031638138+1032111009+1032474828+1032737986+1033021352+1033561775
3165+1034364657+1035177452+1035848914+1036408719+1036858839+1037163558
3156+1037350837+1037492044+1037658416+1037903652+1038204876+1038478519
3148+1038666879+1038717528+1038538955+1038103070+1037568239+1037194951
3139+1037091366+1037115959+1037120280+1037146463+1037235940+1037258691
3131+1037159363+1037131338+1037367678+1037808201+1038170242+1038113746
3122+1037524009+1036721064+1036181721+1036077119+1036257853+1036506712
3114+1036577252+1036205361+1035357932+1034385882+1033734438+1033444590
3105+1033046263+1032074404+1030589385+1028996331+1027508833+1026070078
3097+1024664558+1023393509+1022279808+1021203093+1020048339+1018824761
3088+1017624061+1016518176+1015524520+1014603818+1013679430+1012771438
3080+1012119486+1012017617+1012481971+1013173514+1013667546+1013774690
3071+1013614292+1013380367+1013074949+1012558929+1011850164+1011219374
3063+1010904996+1010807702+1010577908+1009983595+1009106170+1008221246
3054+1007642884+1007638118+1008271387+1009307748+1010420560+1011474969
3046+1012484894+1013395746+1014122750+1014754747+1015439237+1015999297
3037+1015995293+1015335842+1014483074+1013850695+1013363209+1012803658
3029+1012212077+1011752552+1011491937+1011431057+1011547733+1011747532
3020+1011889183+1011875520+1011661359+1011175906+1010339471+1009247758
3012+1008238532+1007599544+1007250594+1006828119+1005993526+1004571738
3003+1002458407+999495930+995539797+990653684+985034974+978665176+971313859
2993+962972508+953932941+944367059+934228661+923642368+913033197+902756071
2983+892809593+882962314+873001283+862834542+852536254+842454416+833222993
2973+825516372+819678990+815522549+812466846+809904094+807452426+804923292
2963+802183429+799112473+795704071+792297131+789734951+789125514+791314024
2953+796533199+804393673+814028379+824343825+834338092+843210144+850239838
2944+854824092+856730570+856197773+853747758+849924570+845149477+839780389
2934+834332627+829541266+826044785+824042919+823427126+824219586+826691208
2924+831005822+836903450+843795051+851095211+858453073+865727623+872807330
2914+879495510+885576160+890966600+895797807+900322770+904661279+908653826
2904+912100739+915098040+917915434+920615770+923112240+925586912+928495626
2894+932046315+935911509+939587644+942828340+945524354+947373766+948052027
2884+947644295+946537902+944860392+942247245+938123977+932086669+924195691
2874+915119075+906000898+898202257+893103317+891809327+894745876+901531286
2864+911206410+922467151+933864587+944233986+953132728+960742119+967311208
2854+972841774+977293020+980884825+984102071+987480668+991326480+995489212
2844+999448904+1002760902+1005433657+1007865052+1010455829+1013229628
2836+1015842775+1018040563+1019957082+1021768427+1023358748+1024624840
2827+1025759767+1026887449+1027805418+1028385813+1028853917+1029421222
2819+1030000029+1030493044+1031034166+1031704675+1032265243+1032468791
2810+1032508827+1032845193+1033623672+1034558291+1035355771+1035953071
2802+1036387748+1036754173+1037252590+1037986394+1038768495+1039357151
2793+1039773653+1040189583+1040646503+1041081371+1041484209+1041859468
2785+1042135844+1042273301+1042378983+1042572237+1042779089+1042832852
2776+1042801268+1043015366+1043647554+1044398961+1044788009+1044692495
2768+1044443763+1044393178+1044522437+1044557580+1044388030+1044215049
2759+1044262457+1044527267+1044905893+1045370947+1045844707+1046067510
2751+1045824307+1045263231+1044827092+1044847428+1045274797+1045816109
2742+1046248435+1046493672+1046467045+1046121210+1045681258+1045529947
2734+1045738262+1045954774+1045843753+1045429412+1044998612+1044856515
2725+1045147635+1045744362+1046312112+1046602659+1046680952+1046794196
2717+1047031108+1047238660+1047312314+1047383489+1047617477+1048016185
2708+1048509646+1049047145+1049546389+1049933531+1050230941+1050470395
2700+1050591711+1050528034+1050341009+1050208318+1050271232+1050483931
2691+1050657166+1050682268+1050612936+1050522251+1050414090+1050277396
2683+1050115790+1049936454+1049783427+1049746187+1049865851+1050055482
2674+1050193066+1050302244+1050506173+1050770284+1050873615+1050716140
2666+1050473763+1050399982+1050591202+1050933860+1051189328+1051198988
2657+1051032743+1050897319+1050964872+1051280839+1051665757+1051775634
2649+1051480066+1051053396+1050812100+1050791065+1050897128+1051070745
2640+1051191870+1051134803+1050966715+1050855186+1050803902+1050686590
2632+1050481198+1050297477+1050235390+1050336433+1050606899+1051005798
2623+1051447656+1051875088+1052271826+1052598787+1052805704+1052920728
2615+1053023042+1053107817+1053082397+1052942589+1052867664+1053041090
2606+1053381778+1053562131+1053402813+1053158212+1053228688+1053665081
2598+1054177987+1054571421+1054890756+1055219496+1055582553+1055922732
2589+1055974779+1055454501+1054574979+1054016381+1054185168+1054868069
2581+1055675208+1056363002+1056733939+1056742645+1056703118+1056929035
2572+1057221934+1057124831+1056605506+1056134987+1056142105+1056618216
2564+1057195434+1057457892+1057260826+1056846993+1056594321+1056674393
2555+1057030460+1057502059+1057807032+1057671863+1057220726+1056947401
2547+1057123369+1057564083+1058048392+1058549415+1059033088+1059441329
2538+1059818812+1060131283+1060103131+1059535890+1058676259+1058044579
2530+1057908139+1057989101+1057764200+1057093310+1056453623+1056444726
2521+1057156669+1058119250+1058778065+1058922830+1058730149+1058516051
2513+1058468580+1058560981+1058664248+1058715342+1058734597+1058746418
2504+1058779400+1058907197+1059199587+1059657968+1060186698+1060560432
2496+1060547531+1060186953+1059785512+1059565377+1059506149+1059529726
2487+1059635980+1059846773+1060079936+1060076250+1059618441+1058902304
2479+1058436361+1058480782+1058832146+1059159869+1059284235+1059140360
2470+1058697103+1058019795+1057385764+1057199946+1057647523+1058485357
2462+1059274512+1059757677+1060022678+1060377664+1060994028+1061676357
2453+1062107158+1062205723+1062097307+1061971861+1062047930+1062368282
2445+1062670014+1062727526+1062630486+1062538403+1062481971+1062455916
2436+1062404759+1062239658+1062097498+1062277215+1062745828+1063051436
2428+1062815605+1062056890+1061078168+1060254505+1059857195+1059918711
2419+1060221587+1060416874+1060243956+1059780364+1059415210+1059450035
2411+1059788054+1060093217+1060147679+1059935234+1059489436+1058901033
2402+1058452057+1058432802+1058740317+1058936176+1058780289+1058442334
2394+1058151215+1057915193+1057661059+1057468886+1057554678+1058028438
2385+1058723031+1059313341+1059562581+1059417434+1058988604+1058551194
2377+1058461272+1058942404+1059889923+1060806939+1061063424+1060528975
2368+1059842198+1059673220+1059909560+1059995288+1059805784+1059745412
2360+1060128551+1060767920+1061194209+1061156778+1060741039+1060140816
2351+1059577324+1059275338+1059353822+1059814681+1060593414+1061444529
2343+1061877554+1061563049+1060725406+1059885729+1059403009+1059382991
2334+1059732702+1060108469+1060145900+1059936696+1059966055+1060455003
2326+1061129960+1061658436+1061975611+1062215382+1062507073+1062805501
2317+1062880107+1062585112+1062092287+1061730437+1061718744+1062146367
2309+1062946834+1063749334+1064041534+1063655154+1062937874+1062380229
2300+1062186848+1062231778+1062351822+1062568780+1062928913+1063244372
2292+1063267949+1063117083+1063216347+1063753529+1064450791+1064958804
2283+1065234163+1065378802+1065364503+1065175952+1065016126+1065048409
2275+1065147419+1065185612+1065308325+1065643484+1066035647+1066292068
2266+1066390570+1066359049+1066264107+1066271224+1066387646+1066278977
2258+1065673480+1064794657+1064151601+1064040581+1064412090+1065029789
2249+1065598555+1065894949+1065900096+1065704873+1065366537+1065057878
2241+1065175889+1065819134+1066231188+1065383186+1063238017+1060904996
2232+1059407330+1058800879+1058568416+1058339448+1058172949+1058583859
2224+1060162423+1062754343+1065298285+1066789786+1066980307+1066034503
2215+1064357056+1062948296+1062988967+1064654022+1066870494+1068459861
2207+1069188771+1069615823+1070161202+1070536270+1070266567+1069610739
2198+1069383359+1069756012+1069820578+1068701094+1066766019+1065352174
2190+1065363296+1066482462+1067827673+1068851071+1069137932+1068131311
2181+1066187720+1065051586+1065751073+1066883331+1066524913+1065007356
2173+1064084493+1064080744+1063875099+1063252379+1063494057+1065467453
2164+1068093817+1069123570+1067265897+1063542799+1060468412+1059486068
2156+1059949469+1060940901+1062324877+1063674918+1063899311+1062668044
2147+1061179783+1060856508+1061961376+1063715526+1065064868+1065277885
2139+1064373706+1063016357+1061837327+1060964351+1060188541+1059364180
2130+1058557676+1057966477+1057889201+1058680390+1060383320+1062329961
2122+1063553158+1063773165+1063563644+1063420340+1063192706+1062674653
2113+1062230316+1062336062+1062779573+1062840898+1062180748+1061135870
2105+1060182504+1059469227+1058862586+1058254356+1057861812+1058149944
2096+1059316200+1060988627+1062534336+1063477216+1063680574+1063426885
2088+1063240305+1063431143+1063942079+1064593015+1065134899+1065159938
2079+1064496420+1063737197+1063833092+1064966367+1066298042+1067005981
2071+1067091010+1066962005+1066730304+1066203353+1065343087+1064557999
2062+1064475131+1065329424+1066677304+1067815599+1068326535+1068174525
2054+1067489464+1066326258+1064719351+1063220604+1063013434+1064667685
2045+1067149221+1068991387+1069858581+1070246231+1070376380+1070155610
2037+1069796303+1069666662+1069651283+1069516940+1069713434+1070639729
2028+1071462819+1071040216+1069618365+1068456175+1068381568+1069475633
2020+1071260986+1072689955+1072791634+1071605678+1070006524+1068924406
2011+1069078577+1070665784+1072787186+1073741823+1072575440+1070201747
2003+1068506379+1068397456+1068991896+1068737317+1067247341+1065612345
1994+1064828465+1064641122+1064356929+1064095869+1064306598+1064567722
1986+1064073436+1063101894+1062976639+1064357501+1066236145+1066927180
1977+1065769566+1063487893+1061116551+1059531061+1059634137+1061477638
1969+1063413858+1063406613+1061365220+1059120151+1058106921+1058281682
1960+1058992290+1059782017+1060462820+1061193764+1062349916+1063741200
1952+1064347842+1063436100+1061462196+1059367421+1057705480+1056885059
1943+1057392564+1059090855+1060853902+1061516975+1060857016+1059622508
1935+1058833226+1058809840+1059011291+1058928423+1058666155+1058564540
1926+1058721379+1058882222+1058506074+1057290440+1055807581+1055055094
1918+1055329182+1055991429+1056427123+1056622728+1056674139+1056459279
1909+1055965374+1055443190+1055040097+1054676150+1054410387+1054481308
1901+1054856757+1055143873+1055104154+1054906262+1054735759+1054471013
1892+1053970562+1053445455+1053266309+1053498010+1053914003+1054382997
1884+1054899462+1055456090+1056123548+1056952549+1057722702+1058129862
1875+1058194365+1058176126+1058171996+1058041465+1057704654+1057417221
1867+1057563956+1058123508+1058676513+1058792999+1058306529+1057490747
1858+1056901391+1056796789+1056925667+1057042725+1057220282+1057490557
1850+1057646888+1057541396+1057279319+1057116379+1057265338+1057645490
1841+1057915066+1057839315+1057405210+1056814011+1056406978+1056332943
1833+1056429856+1056566232+1056788655+1057053147+1057139383+1056860529
1824+1056214551+1055516017+1055214984+1055419803+1055832048+1056103212
1816+1056100099+1055886636+1055573656+1055153723+1054543332+1053830245
1807+1053239301+1052835381+1052536382+1052294831+1052084801+1051843123
1799+1051524995+1051177508+1050961440+1051053841+1051437424+1051856595
1790+1052120579+1052266870+1052344146+1052346560+1052285998+1052176947
1782+1052005174+1051760827+1051522580+1051429417+1051453947+1051338288
1773+1050881940+1050211305+1049651308+1049440579+1049634341+1049982909
1765+1050061837+1049686388+1049032402+1048434594+1048058192+1047747308
1756+1047263826+1046601896+1045929863+1045333135+1044793792+1044225090
1748+1043505458+1042648877+1041762174+1040883160+1040043547+1039264370
1740+1038377158+1037239753+1036007914+1034878071+1033920193+1033148260
1731+1032415982+1031518348+1030484338+1029493859+1028639439+1027964291
1723+1027484621+1027126712+1026909246+1026960276+1027108981+1027057189
1714+1026943753+1026878615+1026742556+1026544028+1026339463+1025986447
1706+1025343646+1024478041+1023421916+1022037241+1020235047+1018175542
1697+1015906959+1013107995+1009649326+1005720264+1001018380+994974971+987831270
1687+979834292+969046294+952842626+933599650+915469232+898186688+880528504
1677+861761385+841417609+821409373+804997136+792255887+781076743+771012825
1667+763032180+756640457+750321053+743151932+735285739+727260291+719272719
1657+711412054+703366779+693350587+679735345+666693063+657662329+650194971
1647+642070069+634178075+629037002+627218603+628271932+632125624+639160783
1638+651344323+671862733+698552286+723760887+745851188+768168677+792539254
1628+817265960+839550468+858885399+876065819+890356209+900704319+908313519
1618+915619653+923730574+931571284+938409759+944720710+950856647+956693331
1608+961919623+966349898+970053041+973145730+975708482+977936075+979952176
1598+981578656+982645649+983251591+983540931+983494985+982973626+981843530
1588+980075398+977600535+974145297+969461969+963624269+956951659+949520587
1578+940539231+928881053+915822375+904423414+894904495+885683367+876662865
1568+869349296+864013699+859577959+855549698+851948424+848159616+842645699
1558+835214310+828258524+821936959+815168961+807957389+800551674+792865325
1548+785170143+777968103+771282147+765030423+759465667+754789711+751252940
1538+749147298+748138009+748060605+749352117+752129602+755563996+759168320
1528+763455355+768820439+774400510+778288582+778133141+771617243+759192533
1519+745034516+734619997+733199607+742281498+758140792+775422828+790748626
1509+804713580+820374664+836089574+846830991+853566007+859272351+865356749
1499+872262840+879957895+887539896+893867434+898922271+903531563+908266938
1489+912593500+915401361+916404995+915842139+913606729+909397098+903130504
1479+894698404+883625959+869096879+849572697+823529695+793832418+767452541
1469+747428290+732639102+722541312+717887980+718143258+720892971+724155973
1459+727054264+728751030+728106132+725457271+722245046+719170087+716273002
1449+713425804+710512070+707476638+704155680+699976044+694307576+687032264
1439+677758645+664731297+646800169+626562838+606774482+586766437+565439426
1429+544065643+525108290+509399067+496432631+486285527+479775730+477648735
1419+480547154+488189146+498654441+510625886+524111837+538676156+552592240
1409+563653882+570480472+573086247+572621956+571068812+570940442+574937882
1400+585429423+603302849+628077789+658916411+692604709+723091967+746376041
1390+761967348+769980404+770602234+765777000+758624148+751755170+747169136
1380+745936725+747158587+747986380+744789533+734629466+716728206+692000228
1370+661582366+628359821+598472150+578099904+570074520+573569730+584272382
1360+596916972+608969538+620384068+631529976+642365192+652584233+661903672
1350+670106867+676948773+682300321+686389399+689694851+692663238+695621203
1340+698839275+702605713+707272645+713212342+720761933+730227661+741756136
1330+755009910+769052394+782756414+795387469+806759803+816934995+825924422
1320+833574230+839525302+843384078+845127616+845235840+844328929+842785698
1310+840821708+838890572+837777379+838146474+840106587+843359866+847664058
1300+853029905+859599439+867465187+876530365+886414629+896492400+906083321
1290+914636101+921740147+927058714+930397275+931810992+931506083+929674847
1281+926512253+922309549+917402210+912006368+906105055+899499552+891982372
1271+883460668+873923446+863346114+851618666+838522177+823822403+807469267
1261+789680426+770768796+750894713+729959928+707657309+683651061+657898796
1251+630951169+603990261+578601244+556484697+539254708+528298177+524566659
1241+528285150+538706787+553984287+571166360+586505821+596269596+597847906
1231+590660736+576454677+558794014+541862008+529156029+522713435+522999280
1221+529205343+539718618+552694872+566688868+581055644+595847184+611349585
1211+627658491+644566729+661771934+679164990+696957390+715570465+735279575
1201+755755089+775942470+794507883+810393360+822961056+831831709+836761989
1191+837635919+834558227+828036800+819160491+809723106+802069866+798148748
1181+798008050+799277320+798562454+793468090+783465497+769518528+753324329
1171+736583415+720531439+705919999+693108147+681892652+671282338+659604204
1162+644975415+625939991+601958019+573538210+542192782+510438924+481588600
1152+459066799+445631688+442983653+451676145+471025312+499110280+533116992
1142+569916473+606497661+640046596+667829642+687260342+696397267+694719566
1132+683742445+667058598+649557699+635915512+629083965+629787709+637222848
1122+649989834+666345766+684130476+701221928+716321681+729147324+739895858
1112+748719739+755694526+761027645+765077005+768105637+770003854+770274065
1102+768521503+765373018+763080795+764942662+773639953+789650621+810900165
1092+833914346+855625575+874489225+890303400+903400271+914138065+922855882
1082+929946647+935818664+940786374+945036105+948662100+951657050+953923663
1072+955428573+956312543+956748237+956757833+956300151+955471278+954461607
1062+953338628+952018709+950455842+948726730+946928476+945095016+943160639
1052+940891930+937912676+933863824+928503316+921614828+912734579+900715568
1043+883467595+858422570+823844772+780508422+733006925+689700253+660454621
1033+652667483+667696252+699928064+739099268+774556333+799462884+813243990
1023+820638902+827152639+834405709+839892426+840709861+836439794+828790622
1013+820087294+812610404+808361054+808642387+813821907+823460426+836552213
1003+851780844+867778295+883320605+897519039+910028333+921052989+931073058
993+940506440+949472036+957718953+964841873+970678620+975439542+979413532
983+982669289+985089881+986607311+987321731+987412734+987019936+986250100
973+985222190+984038776+982785139+981585774+980565426+979754665+979116122
963+978639629+978394202+978510370+979027597+979719458+980276786+980684073
953+981146648+981647734+981876003+981565247+980657382+979248050+977587126
943+975956007+974332513+972331664+969648677+966391586+962792282+958752454
933+953900848+948022159+941242849+933899094+926490075+919793824+914776608
924+912135309+911790872+912713735+913098780+910829245+904411276+894198017
914+882889741+874562307+872790807+879037511+892096125+908870592+926062452
904+941534286+954404095+964402811+971552677+976172011+978634291+978999318
894+977097669+973021682+967382065+961125893+955333503+951156854+949611526
884+951176999+955519766+961586307+968087526+974084607+979175159+983272816
874+986462228+988909510+990533893+990879728+989618402+987015170+983684361
864+980039111+975955435+970652883+962939716+952056203+938641840+924905029
854+913609462+906504907+903417175+902701991+902497680+901706428+900299701
844+899022615+898619395+899076632+899601930+899297084+897711720+894846983
834+890909469+886101776+880506961+874248247+867888489+862489597+859012180
824+857618417+857575013+857754667+857269468+855868016+853927475+852047052
815+850535024+849273634+848018346+846495260+843896921+838506544+828220521
805+811440207+787591879+757508350+723859896+691162585+665208488+651991764
795+655882441+677442423+712557530+754068364+794854227+830205546+858286638
785+879187741+893936703+904089208+911307707+916672791+920487845+922872278
775+924207194+924855968+924793182+923658954+920903330+915903655+908387681
765+898853510+888201889+876817290+864219027+849633196+832785012+814430074
755+796715522+783018047+776601667+778626410+787217828+798560802+809043192
745+816598502+820567917+820857384+817308538+809737658+798518542+784975873
735+771017464+758353682+748041795+740493094+735621597+733059671+732399712
725+733306751+735619627+739550849+745662446+754337050+765063914+776336984
715+786500420+794859501+802131445+809871493+819257404+830094653+840794763
705+849259145+853923154+854491221+852161695+849054644+847160303+847685856
696+850955657+856352007+862454390+867752684+871427675+873574815+874839001
686+875803679+876682502+877525292+878367574+879036303+879256946+879153298
676+879224727+879701347+880338110+881001120+882172905+884498364+887211727
666+888867377+889936466+891641875+894365851+897522534+900388670+902682354
656+904412738+905692874+906497853+906363001+904499546+900308153+893795242
646+885588425+876712433+868586832+863116891+861940149+864846512+869448306
636+873186847+875255121+876193554+876481622+876306671+876150976+876750626
626+878382445+880512680+882370607+883746512+884921538+885923139+886277807
616+885542606+883742382+881167683+878033496+874547945+871154414+868311092
606+865924943+863413667+860616100+858265476+857163849+857138366+857208652
596+856694919+855790486+855021603+854523377+854145449+854109099+855041939
586+857256885+860366415+863844658+867727328+872263348+876940258+880520306
577+882352877+883182894+884088471+884958270+884692189+882529989+878338087
567+871623916+861251085+846683112+829183039+811775874+798449019+792894240
557+796662903+807942646+822425081+835524557+844221467+847900843+847932999
547+846069035+843184343+839467091+835098205+830514396+826338192+822875646
537+819532572+815237340+809514791+802700593+795271936+787326243+778620500
527+769351774+760979538+755215746+752068849+750252102+749154289+749124484
517+750030887+751083645+752482364+755614327+761226872+768885196+778544749
507+790716343+804418457+817131998+827435052+836084681+844307513+852280469
497+859351787+864693104+867732348+868397709+866968168+863657251+858290578
487+850276315+838888729+823908766+806475229+789067112+773763048+760666939
477+748637824+736974625+725728817+715604273+708727987+708032059+714835327
467+727951517+745080589+764742990+786304942+808281236+828613891+846625472
458+862450450+875266687+884865170+893013268+900951717+907504092+911342087
448+913616452+916609560+920955187+925482183+928998047+931123135+931761614
438+930840976+928914225+927016390+925373768+923681514+922716836+923347309
428+923944799+921567738+915972288+910170112+906704325+905765130+906816298
418+909487275+912874515+915843092+917677188+918371337+918704525+919376368
408+920107185+919830237+917758722+914550881+912036490+911067491+910164837
398+907097123+901944102+897005815+893657531+891104947+887646786+883236212
388+880320634+881133112+884858434+888408106+890136202+891309575+893773317
378+897754616+901084471+900465311+896986623
##END=
