##TITLE=X7474
##JCAMP-DX=4.24
##DATA TYPE=INFRARED SPECTRUM
##DATE=29/10/2018
##SAMPLING PROCEDURE=Diamant-ATR
##ORIGIN=ComPlat
##XUNITS=1/CM
##YUNITS=TRANSMITTANCE
##RESOLUTION=4
##FIRSTX=3997.453
##LASTX=373.96442
##DELTAX=-1.4165319
##MAXY=0.95843244
##MINY=0.71496969
##XFACTOR=1
##YFACTOR=8.9260976e-010
##NPOINTS=2559
##FIRSTY=0.94139469
##XYDATA=(X++(Y..Y))
3997+1054654255+1055060252+1055367754+1055338773+1055117745+1054835885
3989+1054502808+1054343147+1054728310+1055583706+1056309759+1056511889
3980+1056398570+1056294534+1056230229+1056161383+1056127060+1056081853
3972+1055922126+1055706507+1055606610+1055694287+1055875449+1055906500
3963+1055560135+1054984862+1054742399+1055167427+1055845334+1055963527
3955+1055161817+1053991907+1053420441+1053850142+1054761430+1055339708
3946+1055280611+1054946065+1055038015+1055958251+1057135841+1057627243
3938+1057295234+1056557697+1055549117+1054428687+1054022758+1054889773
3929+1056091202+1056365516+1055725738+1055084558+1055042222+1055355267
3921+1055467450+1055139581+1054534994+1054020554+1053871110+1054164322
3912+1054973710+1056309625+1057684336+1058155906+1057181248+1055257173
3904+1053587513+1053007967+1053502241+1054766772+1056320910+1057468183
3895+1057801060+1057384647+1056595692+1055945230+1055572021+1055110734
3887+1054346019+1053473594+1052722234+1052111837+1051883197+1052526047
3878+1053843932+1054966432+1055358071+1054936717+1053909105+1052870877
3870+1052728511+1053766272+1055008634+1055479937+1055129097+1054486515
3861+1053948303+1053574960+1053347188+1053160550+1052815853+1052335603
3853+1052353098+1053333699+1054688244+1055921859+1056828673+1057198009
3844+1056866267+1055850275+1054430824+1053060186+1052189030+1052194839
3836+1053138247+1054556696+1055720129+1056131868+1055950973+1055779092
3827+1055981690+1056373863+1056432492+1055809809+1054725505+1053971006
3819+1054003125+1054568449+1055500370+1056596093+1057337771+1057359005
3810+1056612853+1055381242+1054521438+1054840827+1055633187+1055542573
3802+1054567313+1054145892+1055127428+1056864731+1058563973+1059601934
3793+1059626575+1058932374+1058157375+1057718993+1057613421+1057591785
3785+1057408152+1056977649+1056369189+1055704837+1055189129+1055033074
3776+1055195005+1055506313+1055934546+1056485112+1056977916+1057083155
3768+1056749810+1056438702+1056617661+1057150598+1057436064+1057093305
3759+1056239444+1055326152+1054813916+1054787273+1054847905+1054408788
3751+1053342714+1052303150+1051639666+1051175709+1051083425+1051592322
3742+1052217276+1052264086+1051457168+1049980958+1048777927+1048922630
3734+1049894884+1050562641+1051318208+1052713420+1054344216+1055580167
3725+1056156642+1056108497+1055678261+1055284284+1055226590+1055462842
3717+1055754251+1055857086+1055668712+1055439270+1055742699+1056784333
3708+1058044391+1058927834+1059102986+1058579131+1057779291+1057211631
3700+1056938585+1056799425+1056853380+1057205221+1057832979+1058698860
3691+1059729943+1060599630+1060810641+1060309957+1059523873+1058725036
3683+1057944094+1057186190+1056526112+1055941491+1055224186+1054562172
3674+1054681166+1055257307+1055209762+1054539268+1054720029+1056524643
3666+1058681965+1059801794+1059561669+1058600032+1057629981+1056778257
3657+1056205255+1056568514+1057756254+1058411657+1057690012+1056178745
3649+1055193937+1055056178+1055386451+1056362845+1057864297+1059175371
3640+1059813012+1059999316+1059938284+1059230928+1057595658+1055551454
3632+1053760463+1052383948+1051826371+1052875017+1054803966+1056240646
3623+1056985262+1057510252+1058134538+1058715220+1058940988+1058729710
3615+1058201915+1057691815+1057710913+1058452257+1059672049+1060990201
3606+1061838052+1061728807+1060877951+1059976412+1059392125+1058876817
3598+1058117310+1057105925+1056022556+1055253968+1055094107+1055225188
3589+1055118747+1055003025+1055890207+1057846334+1059505844+1059833980
3581+1059092770+1058423343+1058483441+1058745603+1058646641+1058580333
3572+1058965896+1059225119+1058540000+1057086160+1056026563+1056001054
3564+1056463944+1057004827+1057694820+1058499668+1059153869+1059374229
3555+1058909671+1057686674+1056171867+1055161350+1054876017+1054824800
3547+1054538533+1053962860+1053388522+1053263251+1053755120+1054314367
3538+1054032440+1052666076+1050940725+1049576965+1048535464+1047443014
3530+1046163324+1044809647+1043515133+1042349496+1041438743+1040949544
3521+1040720971+1040179420+1038954820+1037354340+1035953052+1034865209
3513+1033669590+1032011950+1030199924+1029051516+1028908549+1029100730
3504+1028766651+1027837266+1026861607+1026066575+1025197155+1024145037
3496+1023153151+1022438851+1021913193+1021288840+1020309909+1018893262
3488+1017146142+1015209514+1013076430+1010716711+1008335890+1006246011
3479+1004478591+1002867895+1001472549+1000566470+1000236999+1000304509
3471+1000616886+1001106619+1001607503+1001942116+1002228250+1002840650
3462+1003977373+1005438893+1006955502+1008604929+1010693406+1013169783
3454+1015398556+1016811863+1017623121+1018486398+1019575977+1020460154
3445+1020870824+1021109881+1021631266+1022597177+1023766286+1024690128
3437+1025119829+1025236486+1025416647+1025864178+1026481586+1026978130
3428+1027148275+1027086574+1026958832+1026625020+1025837401+1024775066
3420+1023963675+1023647759+1023582586+1023401223+1022940471+1022277388
3411+1021631934+1021242097+1021260995+1021697307+1022419219+1023233683
3403+1023936096+1024332544+1024374813+1024285867+1024386031+1024798371
3394+1025462789+1026327668+1027336382+1028342158+1029210308+1029917597
3386+1030497143+1031025272+1031736901+1032935124+1034533133+1035895558
3377+1036506556+1036634030+1036910549+1037491163+1038019493+1038223426
3369+1038276713+1038669755+1039635532+1040646182+1041000293+1041011178
3360+1041707181+1043131039+1044024899+1043608819+1042626215+1042123594
3352+1042220953+1042595632+1043225393+1044106899+1044912615+1045313470
3343+1045269064+1044961094+1044687715+1044584546+1044355105+1043730819
3335+1043126565+1043249032+1044190770+1045395337+1046285791+1046626814
3326+1046584078+1046637031+1047155344+1047885670+1048061156+1047270332
3318+1046086665+1045513997+1045906304+1046820397+1047689216+1048138215
3309+1047983897+1047482745+1047274672+1047702304+1048474765+1049036950
3301+1048995415+1048315171+1047380912+1046733655+1046662873+1047139051
3292+1047950309+1048752886+1049233003+1049371696+1049389592+1049404884
3284+1049370962+1049392731+1049817624+1050775255+1051768677+1052069034
3275+1051543509+1050790146+1050430024+1050580270+1051036014+1051542374
3267+1051779161+1051505914+1050965632+1050773986+1051137580+1051575495
3258+1051654691+1051535162+1051492760+1051375902+1050924165+1050311631
3250+1050052207+1050451726+1051228328+1051697828+1051484880+1051073542
3241+1051295571+1052198045+1052900124+1052805036+1052425015+1052535262
3233+1053034878+1053188595+1052622004+1051642337+1050880360+1050873682
3224+1051631920+1052441709+1052540137+1052077982+1051912378+1052393163
3216+1053035212+1053463044+1053886735+1054417869+1054687510+1054460606
3207+1054035846+1053749845+1053537699+1053213636+1052912879+1053033609
3199+1053757658+1054802364+1055770545+1056534526+1057031671+1057013708
3190+1056370057+1055399339+1054530119+1054084659+1054296738+1055085092
3182+1055885199+1056126125+1055761664+1055133972+1054578665+1054327989
3173+1054457668+1054754886+1054921291+1054987333+1055234603+1055702634
3165+1056128195+1056358839+1056434763+1056292197+1055801462+1055048766
3156+1054270161+1053674589+1053495096+1053884064+1054670415+1055504444
3148+1056108497+1056208727+1055675857+1054873013+1054302815+1053969871
3139+1053698428+1053740029+1054332063+1055042623+1055230463+1054886702
3131+1054549484+1054580401+1054864933+1055139247+1055384782+1055742766
3122+1056158779+1056411124+1056446315+1056373663+1056208860+1055869907
3114+1055345918+1054709479+1054056346+1053515262+1053256840+1053376168
3105+1053732751+1054054877+1054315569+1054749945+1055315201+1055569350
3097+1055388855+1055312063+1055796521+1056551420+1056961289+1056866801
3088+1056690981+1056951940+1057750177+1058655389+1059109196+1058955746
3080+1058500870+1058035510+1057486881+1056721097+1056014076+1055854549
3071+1056264418+1056660197+1056482975+1055711315+1054776789+1054204721
3063+1054259277+1054764903+1055363948+1055904831+1056347153+1056468618
3054+1056118379+1055612353+1055445614+1055696090+1056023959+1056200580
3046+1056379739+1056752415+1057119147+1057118479+1056809775+1056597228
3037+1056605441+1056653520+1056780995+1057212633+1057873913+1058400306
3029+1058552153+1058388353+1058197842+1058297271+1058736855+1059343579
3020+1060021686+1060636357+1060766302+1060180546+1059408886+1059234801
3012+1059772747+1060515893+1061052570+1061332093+1061441538+1061444677
3003+1061362342+1061180579+1060843295+1060216338+1059192466+1057953442
2995+1056867937+1055954512+1054782999+1053063658+1050951142+1048665476
2986+1046158583+1043244825+1039904638+1036411801+1033100461+1030019764
2978+1027096857+1024553037+1022612201+1020865148+1018556379+1015409640
2969+1011649901+1007493180+1003201773+999446708+997122713+996658288+997527908
2959+998481799+998371018+996825294+994206952+991090797+987834480+984497231
2949+981038583+977532258+974120554+970767879+967139554+962783642+957463955
2939+951361391+945029585+939178030+934274557+930114096+925895007+920961218
2929+915383443+909710113+904323317+899180118+894225561+890020228+887637404
2919+887715798+889911985+893431198+897648684+902092674+906336003+910092938
2910+913216905+915718724+917927998+920347081+923186852+926259602+929326878
2900+932313621+935238197+938156829+941149917+944222667+947283332+950308672
2890+953449667+956854494+960461049+964034284+967325258+970181989+972607550
2880+974664175+976211368+976868841+976371896+974851814+972753321+970623043
2870+968838395+967254208+965171207+961885509+957252744+951692732+945848455
2860+940364901+935784689+932369646+929969527+928168653+926616853+925272591
2850+924486173+924889365+927025720+930960545+936252987+942207510+948096927
2840+953388167+957962503+962048107+965919295+969760968+973683774+977626412
2830+981326520+984609881+987678692+990964725+994684799+998616285+1002281470
2820+1005276427+1007465468+1009052059+1010517118+1012293886+1014414749
2812+1016562790+1018446399+1020024776+1021413577+1022690062+1023830591
2803+1024809322+1025626590+1026194517+1026408801+1026437781+1026669693
2795+1027272611+1028035524+1028670026+1029094052+1029482219+1030132281
2786+1031146604+1032249070+1033063333+1033484087+1033667720+1033807949
2778+1034012817+1034264361+1034458478+1034521047+1034494671+1034543150
2769+1034887979+1035667252+1036840835+1038220621+1039506187+1040327729
2761+1040488257+1040202391+1039930146+1039959060+1040218016+1040448192
2752+1040496671+1040439311+1040419679+1040465620+1040557771+1040752823
2744+1041066602+1041334506+1041355874+1041159019+1041013849+1041147133
2735+1041476671+1041695161+1041628653+1041377443+1041074414+1040734192
2727+1040433902+1040383419+1040660338+1041078287+1041436072+1041733424
2718+1042059356+1042406857+1042663476+1042729450+1042631023+1042543881
2710+1042687649+1043180587+1043949442+1044734391+1045224925+1045283287
2701+1045031543+1044681571+1044329663+1043996052+1043783037+1043811417
2693+1044013948+1044209200+1044392499+1044676029+1044959692+1045023997
2684+1044955418+1045084095+1045456837+1045725142+1045599203+1045122825
2676+1044484249+1043819697+1043271669+1043018656+1043092777+1043275208
2667+1043300917+1043123961+1042921030+1042883368+1043017254+1043133510
2659+1043075081+1042926305+1042920095+1043213975+1043803270+1044479441
2650+1044876890+1044825072+1044611256+1044624077+1044880963+1045157415
2642+1045347258+1045440677+1045356674+1045002829+1044394235+1043689551
2633+1043216779+1043345857+1044150304+1045278212+1046313102+1047156078
2625+1047848542+1048191502+1047952112+1047427655+1047279613+1047671587
2616+1048067099+1048046799+1047809278+1047677663+1047677196+1047820831
2608+1048263153+1048933714+1049496767+1049817023+1050005197+1049944966
2599+1049318610+1048276641+1047603142+1047875052+1048744272+1049415234
2591+1049625978+1049727077+1049945633+1050093408+1050012543+1049873649
2582+1049905969+1050039053+1049997385+1049785171+1049843934+1050442378
2574+1051190733+1051597998+1051741633+1051867238+1051878189+1051851011
2565+1052394031+1053724604+1054943795+1054965564+1053796521+1052310695
2557+1051186660+1050618465+1050621003+1051015714+1051379375+1051407086
2548+1051098850+1050508553+1049763670+1049313067+1049558000+1050271632
2540+1050877689+1051133840+1051172971+1051192269+1051395000+1051908639
2531+1052631219+1053365618+1053979620+1054321512+1054305286+1054110300
2523+1053899289+1053526147+1052996816+1052842697+1053471791+1054485380
2514+1055108731+1055030804+1054588348+1054413596+1054929839+1055905565
2506+1056624406+1056684103+1056301144+1055695088+1054761163+1053592922
2497+1052759695+1052726908+1053340911+1054014411+1054185223+1053668245
2489+1052853315+1052480105+1053002692+1054246656+1055680531+1056726172
2480+1056862194+1055966932+1054687510+1053938954+1053921325+1054099216
2472+1054138213+1054281647+1054773383+1055387786+1055622770+1055223785
2463+1054572322+1054401042+1054900992+1055440272+1055434863+1055019719
2455+1054605242+1054366853+1054386151+1054726707+1055215772+1055580501
2446+1055815952+1056064291+1056228493+1056054742+1055541972+1054983192
2438+1054594558+1054347087+1054210798+1054313766+1054774385+1055548783
2429+1056449720+1057153202+1057336969+1057032739+1056641300+1056425748
2421+1056311762+1056299475+1056554825+1056952541+1057073606+1056809174
2412+1056464611+1056259810+1056181282+1056243984+1056530586+1057088363
2404+1057851209+1058463609+1058400439+1057633654+1056812179+1056444312
2395+1056395966+1056438569+1056690847+1057289692+1058064958+1058625941
2387+1058527113+1057548248+1056023224+1054625275+1053666576+1052867204
2378+1051904966+1050938187+1050381211+1050252735+1049980223+1049012109
2370+1047493897+1045950243+1044417607+1042629888+1041131174+1041036553
2361+1042319114+1043553529+1043851816+1043884002+1044544013+1045720067
2353+1046717362+1047145261+1047161487+1047169500+1047418974+1047762469
2344+1047813552+1047511993+1047173039+1046906805+1046684041+1046853918
2336+1047855621+1049462177+1050913414+1051768143+1052045462+1051626044
2327+1050344819+1048686244+1047580438+1047436737+1047941227+1048807508
2319+1049988437+1051088433+1051497234+1051226525+1050952277+1051138515
2310+1051621236+1052157645+1052876219+1053900291+1054880024+1055293900
2302+1055115008+1054907001+1055263584+1056252532+1057295168+1057610750
2293+1057000153+1056153103+1055898621+1056305017+1056884297+1057432525
2285+1058084724+1058661065+1058682099+1058106426+1057444077+1057044625
2276+1056790009+1056558031+1056516229+1056800293+1057176774+1057247423
2268+1056976915+1056801361+1057066795+1057526879+1057567746+1056813514
2259+1055491222+1054227158+1053356737+1052632821+1051940023+1051748043
2251+1052305353+1053203420+1054289794+1055874982+1057526879+1058052003
2242+1057343513+1056887969+1057672250+1058758624+1058784466+1057985628
2234+1057728208+1058668276+1060239108+1061381841+1061258907+1060002722
2225+1058920355+1059108195+1060209660+1061270526+1061853210+1061670579
2217+1060511553+1059070466+1058619998+1059629913+1061344313+1062582601
2208+1062763163+1062341474+1061957581+1061248757+1059483875+1057164688
2200+1055787439+1056168194+1057776153+1059418034+1060130598+1059645205
2191+1058205588+1056148629+1053874849+1051978286+1051085428+1051701167
2183+1054060486+1057622569+1061053438+1063273930+1064085389+1063480200
2174+1061274465+1058068096+1055546112+1054783466+1055010036+1054994411
2166+1054844032+1055354666+1056732783+1058922759+1061553054+1063124219
2157+1062674618+1061676455+1061800190+1063040883+1064790740+1066578793
2149+1067692946+1067549044+1066249255+1064138609+1061585239+1059115740
2140+1056892043+1054788608+1053731949+1055478535+1060060216+1064984590
2132+1067925860+1068729171+1068310755+1067200141+1065582299+1063772544
2123+1062352759+1062046860+1063039214+1064318169+1064561433+1063848669
2115+1063455827+1063836849+1063983823+1063063453+1061653351+1060924494
2106+1061269123+1062083787+1062602901+1062664735+1062617258+1062694250
2098+1062736453+1062467947+1061817285+1060984258+1060340941+1060221412
2089+1060650580+1061268923+1061672649+1061776886+1061638326+1061189660
2081+1060626006+1060654052+1061611148+1062784398+1063409218+1063759456
2072+1064386080+1065024255+1065099311+1064706937+1064539864+1065118008
2064+1066116372+1066407247+1065096373+1062444910+1059656089+1058136208
2055+1058755285+1060833211+1061973874+1060258206+1056847103+1055391860
2047+1058171065+1063506109+1067918514+1069954305+1070537057+1070233695
2038+1068322774+1064989064+1062345414+1062033772+1063306450+1064658124
2030+1065755783+1066571248+1066476293+1065586440+1065292560+1066082650
2021+1066262477+1064216736+1060964025+1059369154+1061399202+1066534454
2013+1071873572+1073741823+1071045620+1067128691+1066087858+1067590579
2004+1067904291+1065395795+1062148159+1060756152+1061571083+1062853043
1996+1062888968+1061828837+1061252696+1062123652+1063864962+1065302643
1987+1065304980+1062985459+1058896382+1055466515+1055015779+1057880523
1979+1062871006+1068152096+1071295228+1070743661+1067891537+1065747436
1970+1065338568+1065095838+1063885262+1062814246+1063098110+1064091131
1962+1064747937+1065301441+1066321774+1067285414+1067062517+1065219374
1953+1062617926+1061059047+1061895079+1064620128+1067278937+1068485774
1945+1068485907+1068201109+1068064820+1068105286+1068503269+1069404140
1936+1070449581+1071051563+1071013368+1070499328+1069791239+1069354926
1928+1069407279+1069352522+1068633682+1067851338+1067815346+1068044453
1919+1067772075+1067530614+1068253995+1069541231+1070260405+1070100544
1911+1069655884+1069432052+1069275931+1068998678+1068910868+1069201876
1902+1069459030+1069341037+1069113132+1069078341+1069086889+1068875610
1894+1068411052+1067794445+1067142180+1066675885+1066844961+1068125652
1885+1070395492+1072560160+1073314191+1072586870+1071574618+1071243076
1877+1071529277+1071980681+1072436024+1072903254+1073185448+1072826462
1868+1071640993+1070377797+1070008126+1070576388+1071450682+1072100610
1860+1072360968+1072231156+1071834776+1071531681+1071678120+1072202710
1851+1072569843+1072277966+1071415024+1070592481+1070317632+1070625668
1843+1071212092+1071752642+1072097405+1072232826+1072143680+1071763726
1834+1071130092+1070369917+1069519195+1068763895+1068716484+1069723795
1826+1071292357+1072551813+1072950798+1072613647+1072091862+1071936408
1817+1072324976+1072905791+1073214161+1073133897+1072767365+1072160508
1809+1071473118+1071110193+1071244278+1071520262+1071547106+1071411618
1800+1071453019+1071731073+1072007992+1072047256+1071744628+1071185649
1792+1070662261+1070464405+1070594951+1070783392+1070652378+1070014737
1783+1069122881+1068366045+1067857815+1067507977+1067250023+1067050564
1775+1066742861+1065959582+1064575122+1063217505+1062452456+1062009065
1766+1061248623+1059626908+1056757623+1052616995+1047838660+1042966370
1758+1037791854+1032293610+1027180327+1022954093+1019382995+1016130484
1749+1013583792+1012523060+1012856605+1013840077+1014991224+1016093023
1741+1016859007+1017059935+1016673771+1015614241+1013519688+1010090421
1732+1005955002+1001873604+997443036+991783462+984057580+973281517+958949047
1723+942382997+925489946+908146760+889106336+870099967+855342537+844925260
1713+836439738+828686745+821326727+814352205+808307334+804070349+801809925
1703+800987983+801576276+804111683+808603818+815092280+823687448+832472927
1693+839373395+844593452+848992902+852664230+855779317+860349713+869833866
1683+883258186+895547921+905655492+914396565+922172662+929365207+935755775
1673+940606763+944696441+950350607+958164032+965348430+970225326+973785273
1663+977531790+981914814+986077545+989231027+991295799+992623099+994233930
1653+997600827+1001204846+1002726530+1003064950+1003878478+1005898977
1645+1007874069+1008521259+1007729900+1005817244+1003058406+999229220+994078275
1635+989238372+986623369+985739125+985826000+986912842+989044656+991764230
1625+994671444+997748268+1000742357+1003102077+1004776144+1006377559+1008438257
1615+1010405336+1011546332+1012029054+1012398991+1013073759+1014107648
1606+1015240631+1016314184+1017471273+1018807722+1020088814+1021050785
1598+1021792529+1022698342+1024027512+1025559213+1026782277+1027522886
1589+1028122399+1028962637+1030056958+1031140660+1032002000+1032673096
1581+1033280822+1033831521+1034430699+1035625250+1037599073+1039277881
1572+1039945438+1040107569+1040883770+1042647784+1044440110+1045514531
1564+1045844403+1045446887+1044221954+1042986737+1044168667+1047124293
1555+1049353533+1050758294+1051721533+1052347689+1052718828+1052805704
1547+1052343883+1051062390+1048824269+1045258046+1039025869+1029408232
1538+1019177259+1009188348+996353524+978212302+958275280+944488435+939257627
1528+940917136+948542054+959914824+971340815+981751147+991918883+1000658554
1519+1006901414+1012081205+1017331111+1021982506+1025253180+1027030416
1510+1027355880+1026905679+1028321390+1033217118+1037884873+1040299749
1502+1041150071+1041241354+1041202490+1041533364+1042244993+1042787879
1493+1042642308+1041644212+1040207532+1039428059+1039848079+1040632693
1485+1040787212+1040082261+1039081360+1038380816+1037626918+1035752191
1476+1031949782+1025771159+1016903146+1006618686+997749871+991394360+987116307
1466+984713718+984023591+984028866+983547146+982089900+979780596+977987267
1456+978372830+978795253+976175576+969972113+961680440+954449567+951677373
1446+954043170+958876595+963320719+966263991+967942532+969257279+971421546
1436+975217879+979692051+983438302+986538163+989753013+993191494+995990865
1426+997343073+997240706+996252693+994913706+993436427+992387915+992924258
1417+994998445+997165116+998445006+998698687+998105184+996690474+994244747
1407+990558795+985754350+980479737+975406921+970786843+966912317+964342587
1397+963441316+964303457+966693359+969566117+971685244+972588585+972673190
1387+972616564+972207764+970261252+966220654+961179222+957263361+955978196
1377+957422421+961130476+966658836+972970609+978570887+982677593+985400706
1367+987181948+988519799+990047093+992395060+995464072+998201274+999634214
1357+999698052+999266080+999485304+1000709704+1002196398+1002857077+1002158670
1347+1000534017+999048391+998560327+999253726+1001007590+1003802821+1007396022
1337+1011045314+1014178897+1016856069+1019295252+1021377652+1022817603
1329+1023668192+1024405196+1025488631+1026941671+1028314312+1029038962
1320+1028910152+1028233046+1027447563+1026665019+1025642282+1023954526
1312+1020927517+1015627329+1007597484+998145984+990530082+987829205+990348852
1302+995549144+1000409614+1003390949+1004291820+1003306344+1001033499+998951833
1292+998882120+1001638621+1006474383+1011910460+1016853064+1020905080
1283+1024024173+1026230710+1027572701+1028155252+1028115921+1027621247
1275+1026951954+1026527995+1026683583+1027337584+1027944709+1027808353
1266+1026426696+1023589330+1019302731+1013894166+1008439926+1004846125
1258+1004818212+1008465969+1014072924+1019194354+1022033189+1022194653
1249+1020556044+1018333548+1016000138+1013277225+1010322133+1008314455
1241+1008241202+1009345204+1009219332+1005287980+996044953+981346753+962318749
1231+941465632+922675083+910239510+906878422+912245920+923428246+937043077
1221+950944911+964244828+976386120+986696021+994688138+1000306379+1003762288
1211+1005456989+1006203408+1007190152+1009378325+1012889792+1017055795
1203+1021009785+1024200929+1026497011+1027989715+1028741743+1028714232
1194+1027945777+1026725251+1025473206+1024459751+1023658777+1022829957
1186+1021788924+1020654404+1019694170+1018897669+1017955264+1016696408
1177+1015232351+1013609568+1011606964+1008780015+1004348112+997263944+987138076
1167+975482311+965710755+961312106+963603581+971046668+980503376+988994307
1157+994629509+996697953+995319369+990806934+983254468+973162790+962597004
1147+954836398+951873360+952389202+952863109+950580248+945116994+937458823
1137+928786262+920263812+913186456+908554158+906165191+904452995+902098016
1128+900103560+901364084+907370960+915722664+921517793+921260573+915545975
1118+908496130+904843833+907070936+914436897+924041581+932863452+939501024
1108+944563958+949462624+954869385+960414707+965496004+969874353+973617399
1098+976924933+980018250+982946699+985465011+987046594+986728808+982958184
1088+974243755+960782040+945685523+934062544+930052796+934302869+944190214
1078+956226668+968035351+978417704+986513924+991592016+993419199+992268120
1068+988549581+982772681+975741801+968377109+961414272+955613734+951953958
1058+950964142+951915696+953107575+952727755+949145105+941219764+929406608
1048+916137207+904198913+895131574+889758668+889221991+894225829+903611955
1038+914555424+924196100+931042746+935301500+938254789+941299294+945348105
1028+950711530+957103968+963808181+970151139+975850245+980799393+984753850
1018+987485577+989068161+989683499+989235835+987525976+984925730+982580434
1009+981622270+982172435+983241313+983551687+982455096+980412361+978908639
999+979613122+983078047+988134303+992718121+995293460+995477093+993676419
989+990725200+988026393+987409052+990017311+995239839+1001085384+1005579322
979+1007700652+1007493514+1005897441+1004286344+1003356025+1001811770+996472251
969+985051336+969772187+957310839+953715435+959273911+968844472+976743637
959+980701433+981715288+981338406+979473160+974272201+963935656+949179161
949+934498789+926402369+929043815+941006749+956549262+969868945+978031740
939+980943094+980396802+979428888+980894748+985457532+991294463+996009629
929+998293892+997842823+994904224+990571349+986838788+985559365+987102285
919+990038412+992318201+993009464+992883992+993266149+994575621+996192461
909+997435290+998261506+999113965+1000506305+1002729402+1005509007+1007916405
899+1009060473+1008994899+1008644527+1008865955+1009852099+1011335521
891+1013047049+1014907621+1016852797+1018563857+1019497716+1019189613
882+1017588932+1015335453+1013539386+1012741350+1012236993+1011102340
874+1009699783+1009435819+1011159567+1014354785+1017756539+1020304900
866+1021594072+1021810826+1021369305+1020386834+1018280328+1014065112
857+1007522562+1000142377+994453688+992133834+992914108+995344410+998171559
847+1000555519+1001464603+999965221+996035738+989783596+979996749+965740336
837+950103537+939687996+938052125+940751065+939099569+928925021+914128527
827+901276274+891989310+882222228+868995097+855774175+849951534+856074265
817+872275119+891940764+907702835+914963290+913352994+905521740+894875222
807+884590829+877720878+876603453+881598343+890783675+901141588+910226890
798+917444475+924316296+933025050+944136393+956006576+966493900+974723204
788+981129932+986437532+990928599+994550580+997483235+1000211958+1002970395
778+1005569239+1007857776+1009871931+1011570572+1012895869+1013969355
769+1014917370+1015695374+1016274586+1016849391+1017703185+1018781479
761+1019508467+1019375516+1018649264+1017996331+1017474545+1016396786
752+1014121003+1010567534+1006017638+1000805393+995431552+990805665+987771577
742+986068797+984265920+981208928+977307023+974090638+972685477+972955718
732+974040690+975360445+976873849+978740431+981205189+984554324+988737021
722+993141346+996881920+999168921+999469679+997564167+993710475+989126857
713+986097444+986550650+990198741+994920785+999209788+1003254860+1007361565
703+1010578285+1011559687+1010005149+1006718182+1002693209+998558658+994842323
693+992407881+992194533+994438464+998426309+1003116567+1007801150+1012127147
683+1015760814+1018323532+1019624122+1019620049+1018013960+1014373215
674+1009180803+1004240803+1001353555+1001630741+1006051626+1013306005
666+1019096327+1021793731+1022691197+1023398886+1024568529+1025305199
657+1023946914+1019706657+1013673472+1007994733+1003614580+999165716+992894676
647+985173402+978356203+975010206+976710983+983116510+991481903+997967092
637+999929697+997005121+991129928+986167825+985869805+990860688+998204279
628+1004309448+1007340464+1006294957+999158571+984605140+966322287+953152048
618+952241695+962322021+975673756+985994476+991930902+994676252+995551615
608+995733512+996250022+997210323+996828900+991872808+980831178+967134747
598+957301290+955010082+958485624+963699537+968398811+972613226+976683272
588+980153805+982170098+982090968+980004228+977002192+974609085+973620070
578+973712754+974325288+975576464+978058717+981746740+985091535+985480837
568+981632887+975642238+971335005+970568220+972150403+974128300+975793819
558+977119651+977784536+977812649+978092039+979028902+979228094+976707244
548+971412198+965381283+960308801+956149943+952224734+948495912+945331010
538+942806154+940796940+939597782+940133390+943251949+948651432+954807818
528+960026807+963082997+963168804+960299719+955582817+950477948+946258325
518+944050520+944439354+946554341+948024208+946279025+940013594+929802588
509+918011534+908527248+905096312+908105359+913470386+916229959+916066291
499+917108393+922208387+930128720+937870028+943982542+948882944+953455677
489+958420183+963665215+967490795+968027605+966066536+964449963+964189404
479+963376944+960295245+956170176+953886714+954859837+958040831+961758301
469+965213209+967774124+968895088+968912383+968253106+966551795+964359215
459+964689754+969801635+976343584+979199781+978220849+976316673+974894083
449+973637632+972872649+973290131+974215909+974400477+973878158+973622207
439+974150669+975430693+977392897+980108665+983407785+986382776+988195737
429+989403776+990984824+992211427+991280774+987926564+983165256+976857022
419+969565649+966425655+970223190+976231868+979429556+978543843+975491726
409+972079354+968368828+965090943+964624114+968166364+973745074+977248595
399+974806073+968000961+965912017+971894986+979748677+985673952+990306851
390+992420569+988670312+980357805+975356572+979588682+989550749+998576554
380+1003421665+1002189253+992621764+976715524+964717867
##END=
