##TITLE=F. Mohr LL-32
##JCAMP-DX=5.0
##DATA TYPE=LINK
##BLOCKS=1


$$ === CHEMSPECTRA SPECTRUM ORIG ===
##TITLE=F. Mohr LL-32
##JCAMP-DX=5.00
##DATA TYPE=INFRARED SPECTRUM
##DATA CLASS=XYDATA
##$CSCATEGORY=SPECTRUM
##ORIGIN=Angelika Moesle
##OWNER=
##XUNITS=1/CM
##YUNITS=TRANSMITTANCE
##XFACTOR=1.0
##YFACTOR=8.784507e-10
##FIRSTX=3997.4121
##LASTX=373.82813
##MAXX=3997.4121
##MAXY=0.9432292560336262
##MINX=373.82813
##MINY=0.6415637716185822
##NPOINTS=2560
##XYDATA= (X++(Y..Y))
2560I94060631I93913392I93792887I93854496I94163019I94714519I95317250I95606232
2552I95350769I94687108I94017002I93697283I93743287I93851850I93771717I93549705
2544I93362773I93209766I92885027I92308556I91791659I91746266I92151274I92596520
2536I92870371I93149989I93605139I94143953I94578816I94768938I94621631I94218454
2528I93877227I93893715I94272668I94709499I94725512I94067484I93158810I92807201
2520I93200810I93570264I93348049I92902668I92802315I93138793I93699658I94282371
2512I94713774I94927779I95079429I95407425I95935450I96294251I96067150I95369021
2504I94740779I94548079I94650468I94707803I94631877I94537766I94371325I93814531
2496I92728153I91564152I91095023I91686557I92971538I94452408I95814334I96481794
2488I95873365I94191110I92566394I92488975I94196063I95735150I95654067I94803271
2480I94579427I94946710I95174421I95506353I96075089I95954652I94983757I94273482
2472I94370986I94570878I94645651I95436194I96599992I96777289I96207875I96241801
2464I97016535I97323430I96643282I95343169I93779927I92598420I93439717I96876421
2456I99314887I98882534I97349825I96188809I95688536I95464014I95068437I94518971
2448I94378789I95081668I96090356I96459606I96278170I96387072I97184469I98149393
2440I98483971I97936066I96769215I95500247I95014019I96191184I98045172I98250628
2432I97182094I97079231I98292289I98985058I98313730I96986884I96092052I96374316
2424I97200686I97105286I96333944I96593614I98101082I99059492I99043886I98986687
2416I99094503I98973116I98597487I98051618I97261074I96484372I96341069I96935452
2408I97532414I97655498I97790456I98424465I98989401I98654754I97500456I96201429
2400I95511374I95941285I97101215I97973452I98412591I98834359I98869981I98097893
2392I97286519I97497471I98291475I98285368I97208692I95918554I95732436I97633378
2384A000019869A000236385I98907300I98857225A001229942A003038401A002128099
2377I99627888I97279598I96489122I97909264A000442316A002053258A002029985
2370A001023604I99950660I99492184I99716231I99949710I99718878I99465722
2363I99708632A000110384I99899567I98849354I97613633I97335915I98596945
2356A000434173A001619005A001966204A001687943A001110522A000767122A000921215
2349A001132710A000907170A000207548I99113163I97647084I96038110I95060023
2342I95889921I98544427A000896585A001482012A000842710I99989539I99396988
2335I98818142I97795136I96669608I96615666I97451196I97491975I97109086I98192207
2327A000675727A002199615A001994023A001068183A000266511I99785101I99489741
2320I99363333I99609297I99947403I99299213I97260056I94880554I94018495I95921743
2312I99078151A001124228A001688893A001317742A000482688I99497544I98619811
2305I98086562I97964021I97943258I97498488I96574140I96136766I97517691I99980311
2297A001185227A000984046A000504672A000383284A000695471A001075850A000768684
2290I99481192I97866857I96742142I96267789I96066472I96027118I96407835I97128356
2282I97695259I97901461I97976099I98174973I98449299I98538863I98271187I97705912
2274I97075363I96515177I96031189I95906748I96707401I98229390I99194517I99033707
2266I98336189I97782653I97587714I97557180I97413130I97124420I96899966I96811555
2258I96729522I96788824I97468023I98677960I99278179I98682235I97578622I96815829
2250I96731014I97150950I97653259I97901733I97826960I97518844I97023592I96380694
2242I95791807I95544486I95713709I96023725I96129099I95969986I95785361I95862509
2234I96243837I96667166I96839306I96711405I96483762I96414349I96563488I96736171
2226I96774507I96708284I96544761I96237187I95900506I95732776I95755981I95848803
2218I95915771I95907427I95868072I95975957I96249604I96315285I95838693I95018023
2210I94383267I94194231I94300216I94545433I94906542I95255776I95377299I95278778
2202I95183310I95205633I95268193I95221918I94912988I94368136I93961363I94037765
2194I94387270I94547605I94508386I94632759I95087842I95667977I96040755I95993056
2186I95525691I94869698I94432935I94573253I95210790I95755981I95699460I95179917
2178I94712281I94568571I94656778I94775519I94796214I94722663I94652639I94648975
2170I94701086I94857078I95252994I95879811I96412721I96461642I95981317I95267446
2162I94598426I94114098I93971948I94290513I94879469I95269550I95099513I94400908
2154I93499834I92729306I92278226I92186422I92264384I92091972I91419627I90570188
2146I90123925I90247551I90662533I91139398I91607781I91886245I91732357I91216341
2138I90819408I91044066I91905922I92842484I93240232I93050111I92761943I92866096
2130I93449690I94201424I94683037I94669263I94273549I93751700I93294717I93034708
2122I93046650I93317719I93765949I94212348I94353955I94018155I93457698I93170752
2114I93422483I94062259I94711739I95005538I94760117I94101274I93426079I93081798
2106I93032198I92981512I92824231I92726185I92779449I92872610I92904229I92891337
2098I92912643I93072841I93383128I93627803I93580103I93349474I93258756I93410473
2090I93645105I93890797I94203866I94445827I94335431I93951660I93770495I94040750
2082I94508793I94866102I95040889I95030439I94864745I94707396I94656778I94564703
2074I94292210I93954035I93724424I93594216I93479343I93418344I93518765I93748783
2066I93938633I94028537I94120951I94192399I94017816I93585667I93279111I93362841
2058I93582817I93573182I93358430I93166273I93065241I93058389I93224897I93538442
2050I93802861I93906199I93914477I93878923I93769206I93627599I93641305I93985993
2042I94582548I95059684I95079971I94702375I94338688I94371868I94825051I95356740
2034I95632965I95705092I95852941I96088931I96137716I95891617I95574002I95437959
2026I95521620I95696610I95813316I95778779I95563213I95213301I94911359I94874108
2018I95104670I95415160I95732979I96133577I96567355I96895013I97195054I97652241
2010I98106442I98120216I97617026I97051479I96808298I96810808I96877846I97049037
2002I97348196I97613362I97733460I97747437I97646677I97383751I97080724I96973653
1994I97133037I97437964I97819971I98330490I98931659I99422567I99663442I99692483
1986I99591112I99462804I99494966I99761964A000065941A000192756A000150822
1979A000004874I99750157I99475832I99378735I99524617I99761760I99913070
1972I99951746I99988114A000118322A000321132A000498022A000539751A000341488
1965I99918566I99543277I99584802A000111198A000800710A001291687A001463760
1958A001366799A001082635A000696421A000263458I99838026I99599187I99756943
1951A000246155A000706803A000808309A000452086I99799893I99243303I99147360
1944I99508061A000037578A000495444A000720373A000562074A000060445I99516611
1937I99200692I99119609I99127615I99135825I99159370I99233396I99349152I99454933
1929I99457987I99254973I98853968I98460698I98320787I98448552I98591652I98518101
1921I98315766I98278379I98463073I98534792I98132701I97271184I96331502I95733725
1913I95612610I95809855I96202379I96859322I97695463I98238211I98067835I97310674
1905I96445289I95816030I95541569I95661599I96110168I96672526I97142944I97451874
1897I97611666I97690238I97845144I98175380I98516676I98574350I98285368I97903768
1889I97687592I97595720I97361563I96831367I96144705I95562331I95218593I95099309
1881I95180460I95472495I95895688I96216153I96238273I96015786I95724226I95407221
1873I95031050I94688805I94552490I94704614I95114440I95658206I96148980I96514024
1865I96931924I97592667I98356273I98872424I98989808I98824588I98512605I98155907
1857I97913878I97854847I97795748I97539267I97161942I96855591I96621365I96314810
1849I95860948I95268668I94577934I93915292I93441481I93135469I92776124I92242197
1841I91701213I91404971I91388686I91439643I91335015I91082335I90881086I90826600
1833I90760920I90495822I90036464I89528388I89151402I89070997I89302916I89612321
1825I89678341I89339624I88659068I87854140I87171345I86699570I86286012I85714155
1817I85008223I84506729I84546897I85065626I85594871I85684368I85268367I84603350
1809I83900403I83074644I81898837I80327452I78506168I76499717I74310607I72246346
1801I70952611I70832378I71571964I72461097I73109694I73682637I74527598I75770986
1793I77208363I78458740I79318153I79958744I80635839I81334851I81976934I82740744
1785I83804800I84959573I85841242I86388740I86783842I87133076I87476407I87930202
1777I88579681I89356044I90159004I90910940I91410331I91419695I91027782I90608660
1769I90331009I90016040I89524792I88944046I88333853I87617065I86806912I86127984
1761I85833914I85979117I86369877I86700655I86790220I86706694I86607698I86517387
1753I86401767I86389147I86692852I87330661I88099696I88787105I89290838I89644754
1745I90018483I90570255I91253457I91891470I92416169I92894526I93376682I93831223
1737I94241117I94712417I95416857I96336591I97144912I97517623I97512534I97490685
1729I97726268I98189697I98640506I98892169I99044632I99392034A000023533
1722A000638883A000884439A000797860A000781236A001115408A001599192A001797320
1715A001594782A001309261A001269432A001490901A001781443A001970750A002013632
1708A001985949A001992530A002065404A002204772A002457724A002829552A003172070
1701A003324805A003326230A003330504A003379968A003427872A003529039A003787623
1694A004139911A004381871A004419529A004396527A004564868A005011741A005472864
1687A005551843A005213194A004854121A004800247A004971098A005139846A005277382
1680A005481616A005698132A005715027A005489080A005292377A005343402A005437581
1673A005199488A004585088A003902496A003447820A003285451A003297189A003352081
1666A003445988A003643506A003913896A004151649A004323926A004482428A004662236
1659A004845164A004984193A005052385A005095810A005193788A005355344A005511404
1652A005611350A005686326A005819655A006035696A006229346A006285391A006268157
1645A006379231A006704310A007097105A007324477A007286141A007086588A006917026
1638A006894295A007032442A007298422A007621872A007897691A008050358A008083402
1631A008051715A008007815A007965950A007918657A007936299A008178055A008667675
1624A009133547A009261516A009064406A008826178A008737970A008761175A008776239
1617A008702823A008535364A008363766A008320816A008477283A008816000A009213748
1610A009406855A009203638A008813964A008698073A009013992A009477353A009760364
1603A009779498A009654447A009602540A009769863A010044732A010196245A010202691
1596A010222572A010286149A010270272A010149088A010051381A010067869A010156688
1589A010273054A010458493A010717892A010901092A010887793A010851560A011081443
1582A011525059A011831479A011906930A012042566A012380198A012711655A012943641
1575A013268584A013730928A014092172A014231812A014286907A014366973A014451991
1568A014500845A014463798A014337729A014300545A014561844A015050242A015463258
1561A015606765A015493045A015199788A014850215A014659076A014796205A015214919
1554A015708543A016088243A016280807A016348998A016388759A016314665A015909181
1547A015273340A014950771A015284875A015884212A016078675A015731816A015298242
1540A015230390A015599776A016182964A016692261A016980157A017141374A017352325
1533A017547604A017425538A016906063A016424856A016517339A017132485A017646871
1526A017627872A017275246A016967740A016757874A016581934A016586208A016896224
1519A017316432A017560563A017640086A017809309A018193826A018620614A018838555
1512A018798184A018622515A018406067A018177406A017970796A017793296A017632283
1505A017577594A017796959A018331430A019048151A019777628A020355320A020654818
1498A020749472A020851114A020982611A021004256A020977862A021037707A020972434
1491A020550326A020122927A020207538A020661671A020954046A021016945A021204623
1484A021636569A022106580A022442651A022605496A022558949A022307015A021998288
1477A021818345A021794257A021816716A021793036A021661810A021348062A020850707
1470A020276679A019727756A019283869A019072102A019127063A019219273A019069660
1463A018736710A018566537A018768668A019211538A019615868A019754354A019530239
1456A019095172A018835095A018971342A019264531A019365902A019328244A019496110
1449A020023523A020722942A021312101A021652311A021792900A021867605A021940343
1442A021931725A021734005A021409535A021186575A021202995A021371132A021547683
1435A021704489A021873780A022056912A022222403A022316853A022318889A022330558
1428A022478477A022677826A022653603A022311425A021934100A021878597A022197705
1421A022679183A023096337A023294397A023170770A022739436A022190445A021873644
1414A022197366A023280420A024594238A025308788A025174373A024651302A024134541
1407A023685157A023536697A024079716A025162973A026046543A026181365A025666164
1400A025025302A024796776A025057532A025254777A024852551A023939872A023041784
1393A022601018A022604614A022713855A022819297A023149805A023760405A024218202
1386A024050879A023416056A022968029A023086906A023544907A023865101A023770243
1379A023367270A023030521A022953509A022862858A022492387A022138335A022236042
1372A022647225A022817465A022454322A021764742A021145388A020841072A020864753
1365A021129172A021559625A022038185A022371405A022492115A022560578A022678097
1358A022711683A022583308A022465449A022543276A022800774A023129110A023463756
1351A023805391A024179323A024589217A025022927A025443203A025678920A025541317
1344A025168605A024906900A024820592A024798201A024963625A025385596A025683602
1337A025560247A025426375A025923255A026978761A027831390A028001291A027839125
1330A027909012A028242844A028596964A029042887A029822778A030906375A031935351
1323A032405972A032007070A031055989A030390157A030640870A031747672A033074382
1316A033823129A033594332A032705471A031729691A030837302A030010525A029631096
1309A030152539A031248417A031980336A031887108A031383035A031103689A031306769
1302A031798900A032171476A032346194A032831540A033990656A035374769A036312686
1295A036688452A036629624A036109945A035342403A034915138A035081038A035426811
1288A035546638A035640817A036131047A036981165A037669320A037640890A036608251
1281A034731328A032780990A031878966A032759888A035136541A037705893A039043459
1274A038732765A037536195A036520654A036159613A036073780A035447981A034029671
1267A032757920A033019354A035323134A038799667A041744580A042913195A042889582
1260A043402069A044792831A045812647A045676061A044712834A043455400A042102499
1253A040897447A040299943A040334004A040254210A039579490A038968143A039128885
1246A039506074A039222453A038636144A038671969A039314664A039897648A040214449
1239A040490810A040755026A040827424A040734874A040779453A041155217A041553780
1232A041316027A040183576A038715123A037631730A036965084A036313026A035683835
1225A035525740A036018345A036795861A037386988A037720006A038129018A038872947
1218A039798856A040571146A040979141A040979752A040793227A040864946A041253671
1211A041328376A040607991A039513334A038759565A038516792A038665320A039279109
1204A040261878A041002686A041032609A040748852A040898194A041512187A041909324
1197A041739287A041526503A041984097A043019926A043774373A043656717A042940404
1190A042234675A041848190A041827563A042091711A042348802A042313655A041995564
1183A041490678A040884420A040656166A041401791A042870584A044121368A044782382
1176A045316038A046149057A047410833A049260886A051621254A053804664A054955095
1169A054693389A053343134A051875835A051415730A052326576A053761171A054367225
1162A053483249A051764693A050619826A050803094A051771343A052536103A052632181
1155A052151857A051413695A050806962A050447075A050034195A049469124A049219768
1148A049637397A050423734A051249018A052364844A053916959A054913637A053965948
1141A051345435A049161483A048943814A049781649A049801056A049185570A050312457
1134A054439216A059410325A061957829A061428176A059414803A057383314A056229084
1127A056444785A057465551A058026687A057844097A057735466A058163002A058821166
1120A059205344A058959924A058083751A056973149A055952112A055072614A054620652
1113A055037534A056092362A056942072A057154382A056958764A056582118A056106272
1106A055882155A056337240A057322519A058108788A058212262A057900822A057631042
1099A057359091A056763826A055939220A055416488A055490786A055888127A056327130
1092A056974506A057957546A058855024A059144481A058796740A058132265A057486924
1085A056981495A056508770A056089851A056020166A056463920A057228883A058068416
1078A058885761A059641904A060383594A061257121A062259092A063163423A063766356
1071A063980497A063821384A063498273A063351373A063596455A064126786A064605346
1064A064800760A064772602A064735351A064846628A065126925A065514496A065997873
1057A066645521A067338357A067686845A067582285A067401935A067530922A068014299
1050A068613772A069093010A069416936A069665546A069833887A069836736A069631755
1043A069176401A068439798A067656516A067347382A067794934A068546598A069012470
1036A069232378A069536423A069998088A070350037A070410493A070415107A070759727
1029A071509152A072304310A072915318A073421969A073741823A073601369A073017299
1022A072306617A071667112A071018583A070180203A069041443A067620079A066186163
1015A065288820A065354704A066246483A067386668A068275122A068928266A069741744
1008A070752806A071364560A071143091A070268004A069034658A067479422A065570745
1001A063476968A061285280A058709889A055345990A051136790A046530182A042025555
994A037785347A033685322A029584211A025681634A022522241A020443052A018887749
987A016787322A013881085A010561696A007105926A003683878A000541380I97694174
980I94316229I89287988I82610536I75616894I69866029I66062517I64618423
973I66334264I71297367I77878266I84255948I89606350I93584310I95614035
966I94710314I90335623I83342252I74655160I63709749I50039808I36119697
959I24018291I12838723I01545367H89504960H75589870H58886198H40239991
952H21401220H02897909G84722527G69200770G59480562G54814787G53259280
945G54214161G57364190G62507440G70092277G79411004G87589478G93815104
938H00931422H10218191H17941378H22738719H26939572H30595981H32853688
931H34826961H37739441H41004887H43781527H47698012H55153795H62986088
924H66582583H67115900H67016293H67765922H70247203H73998265H77547061
917H80973995H85680821H91119702H94812819H96522486H97908838I00163289
910I03060909I05671447I07649333I09123011I10620437I13959299I20833793
903I26755984I28503309I28920260I30662767I33720925I35899314I36833704
896I37610881I38697191I40032315I41920433I44870774I47689211I48443657
889I47410135I45666000I43841391I42276860I41519903I42605738I46202505
882I50997132I54928681I57991521I61801954I67113680I72364883I76523872
875I80248201I83972258I87190072I88941400I88289409I84147384I74914219
868I58624037I34078301I02454991H67980742H37022517H15665622H06480360
861H07409932H14346986H24032589H34716227H45594600H56269010H66407593
854H75441545H82518510H87081218H89370274H90228534H90511951H90756761
847H91802157H95046026I00847305I06743645I10558149I12777520I14176764
840I14905224I15823397I19528727I26533904I31564927I33968178I35951492
833I38088152I40268644I42468270I44406327I45798990I46913594I48192808
826I49886123I52696553I56783008I59631843I60277930I60326172I61332079
819I63446144I65288665I66162870I66649844I67393909I68488701I69873900
812I71836859I74268607I76107668I77026045I77903439I79210133I80507803
805I81439682I82129941I82875091I84432702I88135997I92815953I95439451
798I96366174I96871739I97180737I96092323I90995823I80723572I67901374
791I54767600I40390233I23459937I07292839H98313779H97901171I02943661
784I10329827I17882909I24079222I28435728I31546132I34270526I37212589
777I40489366I43039584I43435365I41690550I38575804I34797736I31293384
770I29018170I28050600I27893794I28035334I27403699I24364947I19115101
763I12972323I06599663I00367456H94391526H88513099H82978954H78860676
756H77425742H79077192H82770376H87000880H90936976H93673176H93929318
749H91908006H89150772H87309472H87528906H89857519H93834596H99112465
742I04824993I09879018I14469207I19727602I25317793I29588195I32509427
735I35194399I38239257I41511489I44629764I47475002I50331300I53387694
728I56227029I58437919I60353313I62463918I64577440I66175423I67055803
721I66459450I62614346I54460163I43044130I31634611I23781216I19117069
714I13940707I06617101H99259975H94942552H94420973H96099089H98476080
707I01348731I04939460I09080671I13438127I17535439I20724415I22723539
700I23753736I24066059I23985247I24376889I26348940I30462468I36308936
693I42728143I48582211I53373581I57215836I60472461I63400411I65985980
686I68080639I69666409I70944740I72204345I73585812I74983496I76247239
679I77345085I78333417I79331452I80491722I81878888I83395652I84855352
672I86097180I87067056I87803997I88313973I88532388I88451237I88194757
665I87971184I88006128I88391731I88993239I89624195I90203515I90677597
658I90990124I91176581I91351843I91643878I92157925I92853475I93488231
651I93833394I93880755I93778027I93714518I93898939I94494341I95493258
644I96688132I97742145I98221994I97759854I96533294I95158612I93264319
637I88921520I81142626I72155831I64896141I58945248I51657128I42553357
630I34024834I28515251I27080792I29719420I35126140I40616996I43458842
623I42163954I36547436I27039945I14023351H97875523H79848669H62648863
616H49601533H42976055H43052525H48583617H57777564H68834795H80151560
609H90644059H99940327I08086572I15109865I20832707I24900299I26945834
602I26867533I25023451I22211324I19483131I17742252I17145697I16782214
595I15147455I11144797I04743978H96850279H88723712H81491638H75920241
588H72399400H71077440H71872937H74169252H76593265H77453357H75692666
581H71525059H66089571H60290395H53793701H45201873H33478335H19465470
574H06027108G96547504G93165964G96169229H04514076H16598587H30776807
567H45582047H59788426H72501043H83137456H91076005H95555730H96440385
560H94991677H93475863H94033335H97883529I04974200I13997635I23094418
553I30893599I36926525I41295177I44260106I46068158I46945824I47243695
546I47580376I48664991I50787198I53341012I54770518I53124428I47056898
539I36513035I22300550I04990349H84682853H62127760H39677634H20673100
532H07874854H02389494H03537889H09374859H17565885H26196864H34109698
525H40881939H46737906H52282230H58036623H64189240H70737230H77615930
518H84623076H91432635H97786162I03572445I08747043I13300998I17314106
511I20965765I24439177I27748116I30643768I32769640I33931266I34163524
504I33493824I31645875I28081202I22544885I15697803I09184960I04945566
497I04151834I06421212I09701178I10679197I05662016H92353251H71909713
490H48901164H28426617H13472034H05136076H03952669H09702448H20567454
483H33628152H46239533H56739700H64336546H68848976H70449944H69311795
476H65577831H60081004H55033697H53288339H56392840H63523951H72439705
469H81136025H88558356H94359432H98563271I01444131I03405190I04782382
462I05735228I06332122I06659305I06728921I06326965I05163982I03182839
455I00516187H97259969H93689868H90656408H89297265H90254792H93391387
448H98127593I03740650I09487444I14850942I19746125I24308291I28360073
441I30941299I30259319I24550251I13925848I01635542H92620181H89989694
434H92913709H97894386I01595509I02525625I00894666H97579688H93341312
427H88778740H84528286H81158145H79038584H78405253H79169470H80559826
420H81330693H80487496H77738200H73416434H68228877H63083048H59035064
413H57114718H57831778H60818216H65227647H70522071H76661049H83598306
406H90947493H98223604I05106783I11331051I16577233I20664502I23612332
399I25274503I25090828I22585800I18337585I14348091I13061209I15708998
392I21603167I28965381I36159662I42142038I46279925I48257200I48264867
385I47171296I46265269I46479545I47679169I48794927I48757948I47354836
378I45319208I43747959I43417927I44514958I46794175I49742955I52530994
371I53899094I52029093I44534364I29306540I06402485H79345003H54068841
364H36129720H28361004H30303675H39256408H51977980H65933918H79529765
357H91727249I01839369I09687608I15618009I20129625I23529825I25949359
350I27434979I27842498I26841952I24358908I21091766I18458905I17835005
343I19647604I23102018I26702109I28979223I28818685I25236981I16928570
336I02429275H81796632H58957171H41661219H37287886H47502191H66947424
329H87144049I01384422I06415173I01234537H85881527H61418164H30534847
322G98552056G73584552G62371804G62650472G62349006G51859289G36270901
315G30335546G42122865G66602445G93945719H18271885H38216983H54048553
308H66418110H76333392H84912600H92803857H99834682I05509077I09917762
301I13861524I18014678I22251832I26025896I29247442I32265499I35005906
294I36844424I37318099I36222425I33304652I28953575I25128621I24509336
287I28228440I34851474I41762338I46902602I48804698I45560150I34109920
280I11004208H76691651H41110600H20897147H25774011H49415618H77066194
273H99281349I15299239I27320648I36523688I43327548I48205972I51751103
266I54528015I56748540I57856088I56630341I52466399I47041970I43811128
259I44959117I49442100I54211349I56086915I52445976I42469831I29232175
252I19042839I16735057I21794984I29841146I37048862I42278759I46037896
245I49032681I51726880I54345900I56882072I59187480I61204313I63070447
238I64881824I66507626I67837254I68980832I70062800I70975749I71277555
231I70393646I68531109I67171287I67247145I66846547I62828690I55395503
224I49068710I47985792I51577199I55367548I53728854I41481023I17110075
217H87201859H64659115H58901260H68577636H84869718H99629022I09941103
210I17103357I23255702I28424329I31535140I33360699I35186257I37624858
203I40851696I44827688I49144569I53179320I56655786I59674454I62249506
196I64214093I65510337I66304138I66843222I67424510I68450297I70122781
189I71999975I73240512I73426699I72840322I71959332I71082887I70471812
182I70478529I71269005I72539059I73779326I74803213I75702523I76309188
175I76134266I74827640I72233793I68031650I61901764I54296232I46777483
168I41309019I38966564I39277122I40886504I42782696I44820021I47381705
161I50801379I54926849I59171874I63159944I67087082I71097000I74397593
154I75463141I73436877I68514892I59933920I44954299I23063546I01527725
147H92406039I01252178I21741721I42934210I58224049I66107978I65302371
140I53145123I30692283I07324933H95503620H99863315I14578991I30828597
133I43852044I53389933I60461673I65305831I67664910I67889704I67092307
126I65960264I63652617I58750242I51969655I46909456I46556354I49713168
119I52237195I50948821I45762417I39515011I36353040I38773660I45544409
112I53184613I59177845I63098945I65474715I66850007I67731473I68499218
105I69335630I70451185I71843305I72535870I71129434I67817441I64844845
98I64492218I67095971I71243900I75369438I78704025I81143644I82842862
91I84103213I85416556I87248967I89563671I91598485I92511433I92426822
84I92304621I92629563I93045225I93358023I93915224I95017412I96697835
77I98880159A001195202A003021437A004083458A004705118A005286949A005271072
70A001613713I88563261I61222837I21272388H79685485H50495958H40400122
63H45807384H58872831H74399881H89454614H99590889I01512933H97041689
56H92157837H93410046I03268333I18696862I34042068I45412437I52636369
49I57408740I61322308I65233908I68908298I71621089I73654953I76133044
42I79022522I80785792I80383294I78488798I75731089I70586346I60855893
35I47011505I32034260I19751214I13218490I11401074I11537050I12473340
28I13599819I14224939I15075871I18663411I26074682I34478357I40299584
21I44076159I49620075I58771954I68175631I73935861I77997618I82550080
14I86403939I88247749I87774753I84732540I79614327I74858580I72255777
7I69720147I65101936I59637203I55151371I52301112I53483026I61998860
$$ === CHEMSPECTRA INTEGRALS AND MULTIPLETS ===
##$OBSERVEDINTEGRALS= (X Y Z)
##$OBSERVEDMULTIPLETS=
##$OBSERVEDMULTIPLETSPEAKS=
$$ === CHEMSPECTRA SIMULATION ===
##$CSSIMULATIONPEAKS=
##END=


$$ === CHEMSPECTRA PEAK TABLE EDIT ===
##TITLE=F. Mohr LL-32
##JCAMP-DX=5.00
##DATA TYPE=INFRAREDPEAKTABLE
##DATA CLASS=PEAKTABLE
##$CSCATEGORY=EDIT_PEAK
##$CSTHRESHOLD=0.93
##MAXX=3997.4121
##MAXY=0.9432292560336262
##MINX=373.82813
##MINY=0.6415637716185822
##$CSSOLVENTNAME=- - -
##$CSSOLVENTVALUE=0
##$CSSOLVENTX=0
##NPOINTS=132
##PEAKTABLE= (XY..XY)
376.6601612387649, 0.8365495784471784
416.3085985814769, 0.8006209114360519
451.7089890660409, 0.7837166773015866
463.0371140211014, 0.7382500754509854
491.3574264087529, 0.8716906889306847
511.18164508010886, 0.8472588640466526
535.2539106096128, 0.822539983435128
543.7500043259083, 0.8315030917607478
566.4062542360293, 0.7866557818415341
580.5664104298548, 0.783934710522228
608.8867228175063, 0.8248358354223948
631.5429727276278, 0.8525116425816684
676.8554725478698, 0.7545024139563327
688.1835975029303, 0.8327587825724544
696.6796912192258, 0.8496122940850509
727.8320348456423, 0.8053065525361899
740.5761754200857, 0.8290915469378403
764.6484409495893, 0.7211176734101529
780.2246127627977, 0.8121358733657352
818.4570344861272, 0.6415637716185822
825.5371125830397, 0.6697060448840628
842.5293000156307, 0.7355161295582202
859.5214874482217, 0.8062728026267535
886.4257842164907, 0.7276743038165028
904.8339872684637, 0.8287461383656989
916.1621122235247, 0.8312473879387383
930.3222684173502, 0.8020792581888964
957.2265651856192, 0.7529330240074026
971.3867213794447, 0.7716357093815271
988.3789088120357, 0.7818120696870858
1011.0351587221567, 0.7812038049473355
1042.1875023485732, 0.7495717386963873
1060.5957054005466, 0.7062327848499184
1076.1718772137551, 0.7942528114835838
1124.3164082727626, 0.7048596126769459
1163.9648456154746, 0.7848744972854541
1182.373048667448, 0.6967571962919749
1203.6132829581866, 0.765198586922208
1243.2617203008986, 0.7405129055979885
1261.669923352872, 0.8143947706889544
1289.9902357405235, 0.8729292139372626
1314.062501270027, 0.8678839781646288
1360.791016709652, 0.8116754870168229
1377.783204142243, 0.7857047298265312
1430.175782059398, 0.7794576267950304
1442.919922633841, 0.7707752572579194
1459.912110066432, 0.8151089528649558
1485.400391215318, 0.7887619121957697
1593.0175782883935, 0.708453236778252
1625.585937534193, 0.8270788178542822
1677.978515451348, 0.7616310694972551
1711.9628903165299, 0.6617011417974961
1751.6113276592419, 0.8473697289172462
2822.119135912466, 0.8762463904817295
2853.271479538882, 0.8664942366545529
2866.0156201133254, 0.8660064918370398
2921.240229269246, 0.8528283820367646
2943.896479179367, 0.8648406252447604
2960.888666611958, 0.868850109664348
2976.464838425166, 0.8708860851887802
3021.7773382454084, 0.873665331027243
3037.3535100586164, 0.8741456845605663
3067.0898380656504, 0.8745341881671483
3081.2499942594764, 0.874596594183327
3091.1621035951543, 0.8769383408274153
3098.242181692067, 0.876975594164701
3197.363275048847, 0.8757922033594071
3212.9394468620553, 0.8756469471439087
3231.347649914029, 0.8739478565844756
3242.6757748690893, 0.8744431718901213
3258.251946682298, 0.8734775165106816
3268.164056017976, 0.8728528598808694
3279.4921809730363, 0.8723528369579223
3289.4042903087143, 0.8725467303533277
3302.1484308831573, 0.8726690396796408
3323.388665173896, 0.8729783869720965
3334.7167901289567, 0.8725288494893292
3344.6288994646347, 0.8722060900115859
3350.2929619421648, 0.8720610121215795
3367.2851493747557, 0.8724515423139264
3378.6132743298162, 0.8723320343668957
3391.3574149042593, 0.8720924237617101
3399.8535086205547, 0.8703860025311856
3411.1816335756153, 0.8697750550029976
3418.2617116725282, 0.8715868569363954
3431.0058522469717, 0.8731553535009636
3446.5820240601797, 0.8737500883430325
3455.078117776475, 0.8736794573929497
3464.990227112153, 0.8735603078538046
3476.3183520672137, 0.8736265878375702
3481.9824145447437, 0.8731460551003041
3490.478508261039, 0.8742194752978171
3500.3906175967177, 0.8733506181579117
3510.3027269323957, 0.8748210049560504
3517.382805029308, 0.8747021540901432
3528.7109299843687, 0.8753008823690943
3538.6230393200467, 0.8747483474202027
3545.7031174169597, 0.8745367506078402
3558.4472579914027, 0.8755790569600098
3569.7753829464637, 0.8755777463115654
3588.1835859984367, 0.8748549799153236
3608.0078046697927, 0.8749607190260826
3629.2480389605316, 0.8750570393884363
3649.0722576318876, 0.8731962427456965
3670.312491922626, 0.8759111745730602
3674.5605387807736, 0.8754777294286662
3690.136710593982, 0.8741111737463662
3711.3769448847206, 0.8761104326668905
3735.449210414224, 0.8753665667632854
3751.0253822274326, 0.8747018554169053
3759.521475943728, 0.8760670407161133
3770.8496008987886, 0.8745076633482618
3785.009757092614, 0.8752365095017983
3802.001944525205, 0.8752302505405608
3807.6660070027356, 0.8750177603438364
3814.746085099648, 0.8758849484274117
3821.826163196561, 0.8740707615003633
3833.1542881516216, 0.875181255831219
3838.818350629152, 0.8735127432622023
3854.39452244236, 0.8719487768678941
3864.306631778038, 0.8751195051392625
3874.218741113716, 0.8734202362543374
3884.130850449394, 0.8736889938537489
3891.210928546307, 0.8718526348310325
3903.9550691207505, 0.8706281167208662
3916.6992096951935, 0.8736614561812053
3935.107412747167, 0.8721278885733705
3942.1874908440795, 0.8721321806834907
3952.0996001797575, 0.8730721457722089
3967.675771992966, 0.8712002015900863
3981.8359281867915, 0.8729140738394481
3994.580068761235, 0.8729980572401709
##END=


$$ === CHEMSPECTRA PEAK TABLE AUTO ===
##TITLE=F. Mohr LL-32
##JCAMP-DX=5.00
##DATA TYPE=INFRAREDPEAKTABLE
##DATA CLASS=PEAKTABLE
##$CSCATEGORY=AUTO_PEAK
##$CSTHRESHOLD=0.93
##MAXX=3997.4121
##MAXY=0.9432292560336262
##MINX=373.82813
##MINY=0.6415637716185822
##NPOINTS=100
##PEAKTABLE= (XY..XY)
3037.3535100586164, 0.8741456845605663
3690.136710593982, 0.8741111737463662
3821.826163196561, 0.8740707615003633
3231.347649914029, 0.8739478565844756
3446.5820240601797, 0.8737500883430325
3884.130850449394, 0.8736889938537489
3455.078117776475, 0.8736794573929497
3021.7773382454084, 0.873665331027243
3916.6992096951935, 0.8736614561812053
3476.3183520672137, 0.8736265878375702
3464.990227112153, 0.8735603078538046
3838.818350629152, 0.8735127432622023
3258.251946682298, 0.8734775165106816
3874.218741113716, 0.8734202362543374
3500.3906175967177, 0.8733506181579117
3649.0722576318876, 0.8731962427456965
3431.0058522469717, 0.8731553535009636
3481.9824145447437, 0.8731460551003041
3952.0996001797575, 0.8730721457722089
3994.580068761235, 0.8729980572401709
3323.388665173896, 0.8729783869720965
1289.9902357405235, 0.8729292139372626
3981.8359281867915, 0.8729140738394481
3268.164056017976, 0.8728528598808694
3302.1484308831573, 0.8726690396796408
3289.4042903087143, 0.8725467303533277
3334.7167901289567, 0.8725288494893292
3367.2851493747557, 0.8724515423139264
3279.4921809730363, 0.8723528369579223
3378.6132743298162, 0.8723320343668957
3344.6288994646347, 0.8722060900115859
3942.1874908440795, 0.8721321806834907
3935.107412747167, 0.8721278885733705
3391.3574149042593, 0.8720924237617101
3350.2929619421648, 0.8720610121215795
3854.39452244236, 0.8719487768678941
3891.210928546307, 0.8718526348310325
491.3574264087529, 0.8716906889306847
3418.2617116725282, 0.8715868569363954
3967.675771992966, 0.8712002015900863
2976.464838425166, 0.8708860851887802
3903.9550691207505, 0.8706281167208662
3399.8535086205547, 0.8703860025311856
3411.1816335756153, 0.8697750550029976
2960.888666611958, 0.868850109664348
1314.062501270027, 0.8678839781646288
2853.271479538882, 0.8664942366545529
2866.0156201133254, 0.8660064918370398
2943.896479179367, 0.8648406252447604
2921.240229269246, 0.8528283820367646
631.5429727276278, 0.8525116425816684
696.6796912192258, 0.8496122940850509
1751.6113276592419, 0.8473697289172462
511.18164508010886, 0.8472588640466526
376.6601612387649, 0.8365495784471784
688.1835975029303, 0.8327587825724544
543.7500043259083, 0.8315030917607478
916.1621122235247, 0.8312473879387383
740.5761754200857, 0.8290915460593896
904.8339872684637, 0.8287461383656989
1625.585937534193, 0.8270788178542822
608.8867228175063, 0.8248358354223948
535.2539106096128, 0.822539983435128
1459.912110066432, 0.8151089528649558
1261.669923352872, 0.8143947706889544
780.2246127627977, 0.8121358733657352
1360.791016709652, 0.8116754870168229
859.5214874482217, 0.8062728026267535
727.8320348456423, 0.8053065525361899
930.3222684173502, 0.8020792581888964
416.3085985814769, 0.8006209114360519
1076.1718772137551, 0.7942528114835838
1485.400391215318, 0.7887619121957697
566.4062542360293, 0.7866557818415341
1377.783204142243, 0.7857047298265312
1163.9648456154746, 0.7848744972854541
580.5664104298548, 0.7839347096437773
451.7089890660409, 0.7837166764231359
988.3789088120357, 0.7818120696870858
1011.0351587221567, 0.7812038049473355
1430.175782059398, 0.7794576267950304
971.3867213794447, 0.7716357093815271
1442.919922633841, 0.7707752572579194
1203.6132829581866, 0.765198586922208
1677.978515451348, 0.7616310694972551
676.8554725478698, 0.754502413077882
957.2265651856192, 0.7529330240074026
1042.1875023485732, 0.7495717386963873
1243.2617203008986, 0.7405129055979885
463.0371140211014, 0.7382500754509854
842.5293000156307, 0.7355161295582202
886.4257842164907, 0.7276743038165028
764.6484409495893, 0.7211176734101529
1593.0175782883935, 0.708453236778252
1060.5957054005466, 0.7062327848499184
1124.3164082727626, 0.7048596126769459
1182.373048667448, 0.6967571962919749
825.5371125830397, 0.6697060448840628
1711.9628903165299, 0.6617011417974961
818.4570344861272, 0.6415637716185822
##END=

##END=

