##TITLE=SG-V3429 1-6
##JCAMP-DX=5.0
##DATA TYPE=LINK
##BLOCKS=1


$$ === CHEMSPECTRA SPECTRUM ORIG ===
##TITLE=SG-V3429 1-6
##JCAMP-DX=5.00
##DATA TYPE=INFRARED SPECTRUM
##DATA CLASS=XYDATA
##$CSCATEGORY=SPECTRUM
##ORIGIN=Angelika Moesle
##OWNER=
##XUNITS=1/CM
##YUNITS=TRANSMITTANCE
##XFACTOR=1.0
##YFACTOR=9.0815816e-10
##FIRSTX=3997.453
##LASTX=373.96442
##MAXX=3997.453
##MAXY=0.9751273973825675
##MINX=373.96442
##MINY=0.48906099721283897
##NPOINTS=2559
##XYDATA= (X++(Y..Y))
2559A049030024A049171528A049277656A049384505A049321432A048966426A048621397
2552A048624678A048832011A048963604A049078724A049268073A049296164A048996027
2545A048670555A048753974A049273914A049851808A050090645A049786307A048924094
2538A047755377A046836391A046682155A047307369A048241057A048998915A049420734
2531A049576414A049533556A049291701A048879923A048511397A048567316A049249171
2524A050207470A050767578A050630275A050107578A049724613A049685430A049718377
2517A049438193A048827089A048365036A048577292A049359696A049975328A049947107
2510A049606934A049550818A049966468A050515877A050735155A050512661A050120245
2503A049874780A049822471A049778891A049674338A049730782A050202285A050927590
2496A051310096A050947411A050145185A049629117A049729863A050167107A050563067
2489A050621217A050253741A049888169A050192769A051274588A052227309A052136277
2482A051426921A051166689A051616796A051907285A051384785A050547906A050142494
2475A050130746A050002435A049624128A049242542A049179798A049687727A050652262
2468A051423837A051635042A051744845A052208341A052721390A052698419A052159445
2461A051563240A051202524A051064958A051092590A051351378A051668514A051671074
2454A051324863A050897136A050664666A050653180A050677924A050700764A051023741
2447A051892190A052855937A053069373A052534403A052097619A052256319A052624189
2440A052649523A052313944A051844147A051383801A051252995A051931044A053134612
2433A053745256A053498610A053116957A053000788A052761754A052077536A051221361
2426A050770663A051082154A051806671A052270692A052369666A052324051A052044195
2419A051453503A050993288A051108407A051725812A052488461A053162243A053534182
2412A053333544A052618216A051966551A051907548A052216545A052214511A051746814
2405A051387936A051621784A052219564A052689755A052796474A052587434A052311909
2398A052238073A052394278A052656348A052897809A052876414A052391653A051615483
2391A050933431A050510167A050303163A050377590A050818443A051584111A052576933
2384A053501169A053955477A054105841A054548401A055218771A055052917A053842983
2377A052590060A052258813A053132184A054464654A054982231A054335620A053332953
2370A052709839A052486098A052382989A052452822A053072524A054165632A054954731
2363A054867440A054208621A053571724A053140519A052849767A052644666A052385221
2356A052128992A052377936A053227023A053929880A053781289A053032882A052632589
2349A052916712A053218162A053039641A052730776A052897482A053567064A054184994
2342A054352422A054401384A054927756A055840901A056574081A056738029A056299540
2335A055492655A054732172A054583777A055461873A056864176A057873537A058403257
2328A058503412A057838818A056557344A055405692A054800954A054661945A054736241
2321A054819856A054945740A055478544A056646933A057857523A058282099A057878394
2314A057283239A057112332A057216097A057042171A056524331A055981551A055746521
2307A055868860A056002685A055818192A055454128A055255262A055216867A055045106
2300A054698830A054567500A054972386A055623985A056081575A056155083A055838735
2293A055343144A055015901A054973765A055038084A055104701A055112118A054841843
2286A054242750A053764290A053840292A054215710A054375787A054332667A054422189
2279A054710119A054949940A055083633A055455113A056375871A057603066A058481819
2272A058607899A058068466A057249110A056623305A056429295A056497159A056521378
2265A056401599A056391688A056821449A057557058A057958532A057570578A056656384
2258A055901217A055813138A056473466A057449355A058030465A057956366A057577798
2251A057309689A057249898A057234802A057169629A057153746A057187088A057026026
2244A056628030A056428770A056809307A057585674A058243114A058471318A058346157
2237A058154116A058185423A058485887A058751371A058624635A058086712A057429075
2230A056983890A056981067A057429140A057927094A057882660A057214522A056570274
2223A056566008A057108001A057722255A058170787A058486413A058727416A058893138
2216A058938424A058841288A058650363A058369128A057935232A057459594A057222792
2209A057279958A057366986A057257708A056927774A056509367A056332553A056707052
2202A057479021A058073126A058083824A057671980A057376962A057619540A058323251
2195A058947087A058990142A058503412A057993710A057858705A058019701A058095113
2188A057916724A057733543A057778239A057839145A057592105A057228961A057270178
2181A057750148A058132392A058122153A058068794A058432529A059198394A059858394
2174A059822362A058950172A057779355A057118567A057346049A058147290A058903179
2167A059209617A059126527A059068179A059367923A059885960A060145536A059902040
2160A059447010A059232851A059321324A059418591A059364116A059273281A059239480
2153A059200101A059113138A059018167A058931861A058847851A058774474A058674713
2146A058480309A058205703A057934904A057769838A057845644A058154116A058313931
2139A057937857A057262762A056890888A056918454A056876843A056502082A056021062
2132A055742977A055801718A056192231A056695698A056916616A056640435A056014498
2125A055271276A054556933A054097506A054144630A054604057A054991420A054823729
2118A053894701A052303443A050475448A049040394A048436707A048567578A048879595
2111A048822626A048334583A047880209A047959559A048532005A048891409A048209619
2104A046434983A044536302A043538295A043435711A043364828A042671093A041452299
2097A040139715A038921052A037726082A036593594A035708803A035050903A034350605
2090A033481106A032551816A031621870A030630755A029540271A028337032A026989007
2083A025463512A023747420A021938852A020275989A018854587A017455237A015877105
2076A014199277A012475506A010476079A007997798A005223449A002572686A000350174
2069I98620168I97254554I95975902I94490640I92732084I90890372I89084758I87160939
2061I84978989I82716310I80601304I78474353I75985111I73189760I70532630I68177869
2053I65757082I62906139I59695925I56366785I52873169I48920258I44438415I39798529
2045I35331256I30797039I25676198I19870942I13690334I07203814I00025068H91765618
2037H82472588H72647213H62902370H53469936H44002849H33961544H23131665H11636010
2029G99672068G87548048G75802071G64937209G55088338G46098399G37823657G30353962
2021G24047406G19266475G16035521G14102842G13253887G13354501G14269877G16014519
2013G18774691G22563522G27067548G31925794G36934271G42026299G47311943G53004442
2005G59067371G65129906G70932471G76628449G82483323G88441305G94119234G99185534
1997H03693433H08024781H12518832H17205317H21861349H26199325H30028913H33431431
1989H36774748H40346400H43992348H47337700H50289979H53051398H55773701H58518778
1981H61421373H64579344H67889976H71164839H74277326H77197117H80079104H83189228
1973H86475248H89408231H91567867H93228302H95109197H97702007I01018152I04794315
1965I08735675I12612453I16213180I19306569I21817076I24039259I26452039I29239646
1957I32134365I34735773I36887533I38775253I40743046I43011959I45536249I48072024
1949I50324464I52115771I53542030I54951618I56702298I58933473I61485919I63965250
1941I65990143I67544647I69011270I70697564I72442928I73934097I75255869I76740672
1933I78409049I80048876I81721978I83642581I85654412I87365975I88728570I90079285
1925I91654990I93345944I94877871I96077830I96972400I97672895I98198348I98451558
1917I98390192I98233265I98419267I99212632A000367829A001369905A002044672
1910A002772864A004033073A005829302A007636163A008857977A009310316A009296336
1903A009301849A009632440A010265727A010974886A011569516A011999146A012274737
1896A012355990A012138878A011567744A010776939A010042118A009505244A008963251
1889A008006265A006413562A004398121A002428622A000862829I99810281I99223724
1882I98982525I98961129I99155860I99690305A000606862A001675359A002499833
1875A002877483A002974422A003026731A003027584A002889690A002693055A002504822
1868A002207244A001724714A001173730A000663766A000204142I99831218I99590478
1861I99346719I98665126I96890294I93457585I88106178I80577480I70333370I57197495
1853I42393570I28475881I17933078I11882095I10106015I12055036I17400996I25646926
1845I35604944I45538481I53865598I59816557I63527941I65547714I66342195I66260023
1837I65663096I64780011I63471825I61427572I58726599I56013682I53951839I52705085
1829I52122006I52111899I52595478I53397310I54383438I55487441I56562107I57386582
1821I57711331I57266934I56040001I54588080I53767871I54129243I55712823I58250305
1813I61324725I64427434I67070453I68960995I70090989I70618018I70711282I70626091
1805I70780458I71498607I72729545I74173459I75593942I76907772I78126961I79298828
1797I80405588I81303112I81795946I81681942I80702575I78688775I75978220I73583686
1789I72701389I73993363I77342784I82067992I87161661I91605372I94913904I97395007
1781I99662477A001967882A004179565A006205967A008096772A009756813A010918311
1774A011499158A011697696A011585399A010931372A009658627A008159254A006921885
1767A006167965A006038538A006723150A008143699A009848830A011437529A012837338
1760A014073853A015048561A015667212A016004366A016220494A016378734A016458740
1753A016548066A016856276A017450380A018151007A018823739A019591377A020626400
1746A021911681A023300332A024633721A025735296A026512712A027131298A027894866
1739A028877449A029840212A030541495A030965808A031241727A031492574A031773547
1732A032062527A032328272A032637401A033113171A033792992A034585766A035341983
1725A035922371A036248039A036326142A036252371A036199340A036319644A036573314
1718A036756625A036790163A036863212A037222550A037905258A038686875A039249411
1711A039459304A039471511A039470002A039417036A039206422A038888892A038560861
1704A038180324A037662615A037002747A036209185A035246554A034126208A032986041
1697A032041721A031468946A031307622A031481614A031889126A032436763A033035528
1690A033654835A034329799A035050116A035741225A036401947A037107299A037819739
1683A038377943A038739447A039064524A039501965A040062466A040740908A041572800
1676A042499660A043343563A043988665A044483402A044948605A045481737A046091003
1669A046646648A046994631A047146701A047241343A047367751A047561826A047856647
1662A048201874A048445699A048481206A048333467A048132829A048053807A048159607
1655A048280042A048227668A048107035A048168730A048396474A048508968A048372190
1648A048148712A048017709A047948336A047808276A047528748A047105681A046559094
1641A045969452A045499589A045303020A045408098A045700950A046019070A046258432
1634A046416671A046564607A046749822A046922041A046996009A046960699A046858312
1627A046703682A046480532A046160574A045689726A045052173A044383444A043925132
1620A043823993A044015180A044315383A044610401A044927209A045312077A045721427
1613A046106361A046529100A047055341A047546928A047719935A047469810A047049959
1606A046831862A046950198A047267662A047628378A048028145A048552548A049213926
1599A049891647A050461074A050934678A051388264A051799189A052080292A052229934
1592A052335668A052489905A052759063A053114069A053366951A053329672A053055788
1585A052769958A052587959A052490823A052514714A052733532A053058741A053245268
1578A053132249A052823646A052636068A052806975A053216193A053550394A053743616
1571A053958168A054153162A054106301A053881444A053826378A054058126A054310614
1564A054295059A053961450A053507536A053330656A053753001A054562905A055055936
1557A054777327A054025704A053402982A053099564A052868079A052530531A052243389
1550A052221008A052343675A052237679A051763813A051158747A050562673A049762811
1543A048692936A047858288A047814840A048388270A048911952A049198897A049721987
1536A050770334A052046754A053214487A054222011A054982756A055351414A055510835
1529A055882643A056608669A057417786A057931688A057979074A057744964A057640411
1522A057908716A058400369A058790095A058934880A058979247A059140506A059441037
1515A059764670A060130112A060630166A061108101A061279008A061205303A061237660
1508A061449981A061567660A061502815A061497893A061655476A061764689A061710476
1501A061642678A061601067A061368925A060877075A060449677A060455584A060875631
1494A061346741A061520273A061284915A060733143A060073734A059566461A059388597
1487A059499647A059698645A059808185A059747606A059494790A059128758A058890381
1480A059027356A059515596A060067630A060449283A060601682A060440423A059871127
1473A059090823A058512732A058250662A057982553A057421461A056675417A056067595
1466A055763192A055639015A055504797A055434176A055767327A056710005A058030727
1459A059271968A060199617A060910351A061513710A061942881A062174366A062383537
1452A062671466A062840798A062698376A062430727A062430267A062825965A063392111
1445A063834080A063984903A063812093A063437790A063101950A062948238A062857403
1438A062594545A062136168A061791729A061841872A062013961A061609140A060323466
1431A058610327A057072297A055878902A054935107A054231264A053851843A053816336
1424A053988162A054131963A054114045A053987309A053835698A053653502A053387034
1417A052944212A052170078A050955549A049403604A047800860A046314154A044735299
1410A042737644A040415503A038330294A037068510A037013248A038331541A040952639
1403A044637310A048851898A052514976A054542822A054833508A054230346A053663544
1396A053637225A054196742A054986563A055427022A055299170A055236163A055969015
1389A057303848A058544039A059548937A060771276A062423573A064149969A065408799
1382A065773847A065103805A063854163A063024241A063464306A065124545A066968751
1375A067853805A067623172A067082623A066974855A067323035A067698387A067747152
1368A067367534A066660082A065914235A065509479A065632934A066117498A066661591
1361A067160660A067679157A068154073A068368626A068232373A067854592A067318703
1354A066629759A065858513A065112206A064467761A064142027A064443608A065239467
1347A065790911A065501472A064566538A063635804A063124921A062972522A062777988
1340A062112081A060863030A059287457A057734659A056407439A055334087A054488216
1333A053945895A053844296A054129666A054554176A055078908A056057028A057809021
1326A060170476A062572361A064431991A065476597A065900649A066136269A066375631
1319A066582504A066966126A067853411A069075553A070135057A070863118A071253697
1312A071034616A070080714A068869270A067994192A067484557A066848644A065713859
1305A064352773A063393817A063005404A062804372A062585357A062600452A063079832
1298A063946311A065056550A066418882A067889968A068745290A068309163A067259503
1291A067161448A068334891A069506561A069822909A069834461A070343440A071434317
1284A072651734A073478965A073741822A073666477A073451203A073115558A072742635
1277A072409878A072114926A071973554A071749616A070437164A067620022A064798614
1270A063572797A063151699A061388155A057490572A052012822A045180090A037339769
1263A030317688A026112617A024048542A020610583A012979629A001677984I89309024
1256I77677378I66384134I53831337I38691769I20171867H98126780H73508442
1249H48024872H23445453H01508857G83711503G70784536G62494960G57376220
1242G52386382G44043907G30838198G14142747F96638901F80557966F67482735
1235F58696913F54899419F55806263F60398631F67475253F75956869F85022745
1228F94210435G03297838G12101447G20576171G29126701G38658305G50173715
1221G64038110G79444606G94880505H09437782H23337029H36940404H49834358
1214H61203474H70580447H78135858H84737564H91570689H99109232I06618044
1207I13139678I18693365I24000273I29473888I35124186I40901614I46351535
1200I50467215I52696027I53677364I54481558I55713545I57582888I60064911
1193I62706157I64854832I66287654I67406950I68892278I71182523I74113865
1186I77199968I80256340I83333386I86316053I89447771I93669578I99075329
1179A003788527A005919022A006070698A006596086A009141050A013951908A020313465
1172A026410654A029874997A029989526A028784711A028807091A030375051A031970050
1165A032582139A032549979A032754686A033926160A036093672A038422508A040275509
1158A041938044A043592704A044616767A044564458A043938521A043599136A044022728
1151A045016272A045877173A046114893A045940639A045868050A046278318A047466200
1144A049447119A051574857A052800083A052425453A050508067A047781695A045142417
1137A043075652A041644602A040859178A040941481A042303551A044852978A047289780
1130A048230359A048137423A048927506A051485597A054460978A055881133A055294051
1123A053635321A051742417A050014445A048974237A049046826A049868282A050569105
1116A050716975A050678580A051164654A052529743A054337917A055600161A055636980
1109A054793735A054198645A054540131A055350495A055895572A056166175A056530107
1102A056936897A057137141A057331742A057900841A058784385A059705995A060632463
1095A061443155A061584987A060756377A059577618A058993030A059207451A059672195
1088A060022081A060351162A060719426A060931747A060849838A060647099A060652153
1081A061062684A061760882A062316067A062331753A061866353A061357374A061139277
1074A061219939A061505047A061960142A062486514A062875583A063047869A063167910
1067A063385744A063604629A063663304A063667439A063882385A064344569A064823358
1060A065129730A065228179A065100589A064771245A064562928A064970046A066004545
1053A067091156A067684539A067719061A067503327A067398119A067637021A068165493
1046A068610022A068671191A068471669A068293608A068217408A068292426A068777450
1039A069762265A070665433A070854520A070491638A070169383A070207909A070404938
1032A070376847A070050129A069684425A069471382A069242587A068770362A068186364
1025A067831818A067856693A068131430A068470356A068776072A068992200A069013005
1018A068749622A068274574A067774586A067363202A067003602A066565833A065952301
1011A065283179A064860309A064812003A064932439A065017236A065091072A065193656
1004A065260601A065223519A065074730A064827427A064461723A063974008A063444026
997A062957886A062523531A062187296A062046252A061993221A061756353A061247767
990A060576347A059850387A059161640A058574098A058041031A057497398A056951795
983A056487577A056252547A056317261A056482392A056470053A056219797A055845954
976A055589987A055706748A056234826A056958949A057543997A057669749A057167989
969A056087350A054552601A052617691A050362363A048017381A045830245A043823927
962A041685819A038850628A035150139A030958457A026468017A021861209A017381663
955A012882887A008116068A003327721I98807877I94248194I89024376I82812790
948I75852993I68474134I60492375I51344130I40629567I27836359I11693533
941H91917294H70894236H49633195H25044326G96128900G68639667G44840356
934G21858301G00666108F83450716F68395617F52996472F37202286F21843242
927F06732683E92976384E84929124E84740103E90599768F00690954F14900445
920F33768462F54675481F73197878F89693675G07685236G26820114G42974688
913G55535755G67488933G80879266G94303005H04771578H11292227H14700455
906H16632608H20065710H27614558H35121138H38485064H40371012H43902104
899H49243469H54053343H57529566H60641988H63995741H67684219H72339134
892H79106562H87067975H93497592H98254895I03008850I08657376I14684469
885I20185322I25142081I29944932I34128082I36951065I38871339I41211071
878I44527150I47815270I50406571I52763366I55331958I58109457I60882691
871I63498800I65958442I68285112I70363167I72044736I73359288I74455678
864I75397570I76125105I76613805I76953453I77215457I77388399I77476871
857I77495511I77421740I77252277I76943739I76327252I75323733I74126466
850I73001723I71901460I70513662I68711723I66477923I63726086I60430746
843I56553246I51843790I46286953I40181166I32640457I19991903H99646697
836H75143543H46469317H11281201G72224905G35162983G05554807F87453246
829F81525651F85034624F94598650G08424914G28366021G55357563G80552941
822G98151626H12945049H30446795H50314460H67699052H81293566H93967061
815I07728019I21529212I33655857I44312663I53738730I60400949I63380859
808I63299672I60471110I54171576I43101154I26341448I02876469H67382703
801H11038098G45062260F97305267F71071583F58541758F57167217F67212329
794F87144182G11161590G32611259G50299204G67302275G85657177H03048070
787H15215801H20604684H19624660H12442239G98960612G79197434G52460284
780G17641088F76661105F37018777F09481174F00949349F07751955F21731142
773F39319260F60706775F84568503G05887365G21181565G31748323G40942183
766G51257307G61203314G66567060G65606988G58224847G45783298G33387560
759G28907423G36745119G54330349G76516939G99087282H18961445H35643966
752H51363463H67109147H80156156H89013649H95617717I01937138I08185740
745I13592608I17980071I21822523I25266520I28129211I30755296I33768941
738I36761322I38685665I39451005I39449823I38750510I37298983I35246984
731I32924777I30658554I28606227I26645458I24103185I19172482I08800848
724H90539800H65663067H40595475H24748848H23203860H32672391H47098273
717H62161117H74965089H84152450H90671853H96398678I02222376I07441731
710I10293329I08629284I00120760H83264181H59805371H35156514H16216761
703H09417042H17536433H37859915H65283384H94694072I21048848I41547371
696I56836647I68613931I77725750I84355218I88818027I91783695I93950616
689I95745270I97225479I98114076I97979267I96394900I92872866I86816238
682I77832468I65879880I50597495I30494801I02998349H65656242H18298163
675G65086523G14627377F77010598F59122539F61689359F80416266G09423839
668G43232886G77087548H07759889H34174981H56454900H74805405H89611561
661I01792484I12438002I22241586I31413721I39955391I47810610I54843390
654I60942679I66234623I71033340I75522337I79593780I83037252I85770253
647I87810766I89084495I89343875I88223332I85339704I80580761I74595476
640I68924372I65308878I64716807I67064808I71730094I77995236I85003535
633I91764662I97522859A001988163A005175340A007244731A008489713A009265555
626A009875346A010483824A011018072A011200924A010786980A009707261A007991826
619A005755072A003340716A001376994A000545890A001149118A002843551A004877960
612A006591885A007678956A008134839A008079773A007548413A006406932A004490597
605A001702202I97909566I92807036I85867389I76383697I63683359I47513623
598I28409527I07724016H87004902H66934499H46791375H25049445H00511966
591G72946272G42929074G11353368F79096857F47064546F16542963E89499374
584E68321030E54913239E49754791E51685304E58573233E68270033E79215163
577E90563342F02019486F13566072F25264268F37071874F48221121F56328697
570F58072551F52579575F44437607F41557655F48642744F63056548F77653665
563F87290543F92291604F96385822G02512939G11075086G21330222G33020280
556G46284336G60866094G76019248G90959622H05198648H18613067H31334146
549H43514741H55140873H66041701H76040936H85072355H93231517I00828081
542I08284124I15791820I23139569I30012206I36338452I42232377I47789739
535I53026421I57844302I62018198I65351736I67802845I69297165I69354724
528I66924092I60815615I50904918I39404603I30559843I28053340I32138041
521I39452055I45600569I47591923I44168863I34898476I19473472H97559716
514H69073592H34730100G96295606G56125987G16383767F78633098F44038233
507F13841006E89551880E72531680E63299163E61278930E65177104E73529293
500E85038730E98674463F13592915F28987597F43999445F57648435F68783308
493F76414327F80577722F82860812F85451522F89224469F93098883F95769008
486F97802236G01427444G08346941G18325569G29870842G41659086G53083333
479G63931851G74083813G83491043G92120267G99889639H06858033H13378092
472H19809613H26175960H32280172H37959217H43011799H47057580H49618821
465H50166065H47975975H42120642H31737588H16301821G95887832G71779983
458G47122922G26438264G13665927G10219699G14704692G24263533G36208705
451G48768721G60907049G72020001G81953078G90946233G99269806H06975056
444H14012298H20402471H26233192H31578364H36482880H41029109H45331841
437H49375259H52986882H56143802H59128307H62199840H65300448H68233825
430H70946873H73504110H75933561H78213895H80367558H82483023H84630189
423H86796257H88907784H90864878H92588649H94154639H95852944H97974710
416I00499196I03088987I05449524I07615264I09765317I11850197I13609016
409I14939517I16022321I17064761I18140477I19287010I20511318I21484910
402I21159241I17538693I08000067H91048846H69287751H50287878H42242390
395H47499746H61142435H76042445H88137456H97046076I03770515I09107352
388I13471056I17076837I19996891I22222684I23815518I24995327I26037111
381I27122868I28317051I29598065I30885445I32116710I33273613I34318745
374I35192116I35872265I36350660I36611680I36706453I36737825I36727849
367I36657885I36657688I36952312I37571292I38270081I38781620I39038965
360I39088386I38763373I37374854I33756668I26861520I16698466I05014840
353H94949710H89456799H89572903H94068529I00605390I07088169I12331152
346I16103377I18697434I20322756I20883126I20173639I18081145I14798604
339I11179499I08803145I09335687I13462196I20252004I27714676I34196865
332I39235796I43195730I46487394I49196439I51144542I52232859I52778593
325I53323277I54030663I54561564I54631791I54398074I54178599I54023312
318I53697579I52964661I51746195I49967227I47361422I43704446I39426787
311I35798362I34120535I34597223I36115039I37127354I36625922I34358452
304I30493685I25335172I19177929I12130317I04081875H95040611H85463590
297H76055441H67267781H59126010H51313845H42904556H32160327H17814583
290H01526119G88348042G83227792G86373621G92092307G92028447G79914403
283G54647091G20104733F82248067F45975244F13897975E86919428E65331078
276E49649024E40645368E38519631E42160953E49408120E58270470E68151042
269E79728540E93529732F09034217F25225545F41383073F57160785F72330217
262F86619845F99763662G11745522G22861427G33403705G43445010G52998142
255G62164895G71056320G79744678G88334587G96882754H05170229H12770861
248H19458807H25318275H30490178H35223984H40116490H45758321H52113182
241H58579291H64623514H70139725H75228866H79880040H84011800H87720887
234H91284335H94859203H98298540I01316320I03763492I05709035I07264261
227I08322453I08449714I06983748I03261076H97025796H89220785H82615076
220H80852976H85810720H95856751I07413312I17899803I26503101I33147337
213I37963708I41442950I44398051I47691094I51562817I54704708I56183014
206I57040108I58235800I59822661I61425734I62835125I64073084I65068532
199I65591885I65629952I65620501I65989486I66676395I67534408I68806103
192I70762606I73319253I76243835I79224270I81685749I83157557I83877545
185I84527897I85347909I85981655I86266435I86551805I86902807I86522203
178I84384555I80001555I73103978I62745865I46612424I20806598H80995595
171H25712070G60124710F95951663F44529427F08501675E83301899E67409986
164E66279270E84183277F16862461F55072820F91996915G25182978G54298517
157G79529731H01250200H19838950H35595464H48819287H59810294H68902226
150H76763352H84401919H92265212H99550151I05196314I09321117I12851880
143I16321999I19865101I23696986I27859068I32036836I36050391I40066441
136I44085116I47561470I49755103I50411952I50057734I49710538I50353343
129I52346535I55005174I57004798I57599559I57345233I57486409I58711438
122I60540418I61866653I61894021I60232207I56048730I46859334I27804724
115H94167503H48437503H04829072G81920787G87938495H15420508H50074967
108H81112880I04531654I20950268I32153661I39484346I44268821I48101756
101I51790365I54853103I56877996I58618043I61126122I64472261I68024092
94I71460476I74685261I77023285I77330183I74997934I69637207I58804308
87I37823517I05765216H72691121H55682013H62850126H85396120I09011528
80I26999348I40045570I49549214I55556946I58682494I60485746I62239511
73I64223251I65912631I66731920I66895017I67277457I68208716I69048024
66I69372051I69974623I71796120I74328089I76316687I77530493I78379318
59I78543661I77971281I78065923I80024920I82927778I84814120I85006029
52I84279347I83560999I83001155I81990415I80391477I79634998I81105624
45I83391996I83365218I80837778I79078041I80226805I82902115I84478672
38I84037491I82979693I83781459I87957914I94808826A000558032I99660968
31I91527926I80884377I71529127I63942213I55506540I42449424I22458436
24H95784555H65001558H34667290H10283653G96936835G98885594H16166815
17H39333166H57637860H70059326H80427940H90954663I01977764I13555853
10I25972857I38824937I49886237I56743515I59973222I62259593I65130554
3I67814331I67829754I63326121
$$ === CHEMSPECTRA INTEGRALS AND MULTIPLETS ===
##$OBSERVEDINTEGRALS= (X Y Z)

##$OBSERVEDMULTIPLETS=
##$OBSERVEDMULTIPLETSPEAKS=
$$ === CHEMSPECTRA SIMULATION ===
##$CSSIMULATIONPEAKS=
##END=


$$ === CHEMSPECTRA PEAK TABLE EDIT ===
##TITLE=SG-V3429 1-6
##JCAMP-DX=5.00
##DATA TYPE=INFRAREDPEAKTABLE
##DATA CLASS=PEAKTABLE
##$CSCATEGORY=EDIT_PEAK
##$CSTHRESHOLD=0.93
##MAXX=3997.453
##MAXY=0.9751273973825675
##MINX=373.96442
##MINY=0.48906099721283897
##$CSSOLVENTNAME=- - -
##$CSSOLVENTVALUE=0
##$CSSOLVENTX=0
##NPOINTS=30
##PEAKTABLE= (XY..XY)
400.8785259499605, 0.7237446897098235
491.5365670445658, 0.777094602471176
531.1994600234557, 0.7101077431876719
604.8591184128222, 0.5142711398893431
684.1849043706015, 0.7999538179146841
760.6776265441749, 0.48906099721283897
780.5090730336196, 0.7112947104435827
851.3356676387803, 0.8253369919654132
871.167114128225, 0.8077674499793298
933.494517380766, 0.7648892991764024
1017.0698990148553, 0.6449918150395938
1085.063429835809, 0.5097300403155688
1113.394067677873, 0.8428192136362543
1175.721470930414, 0.5826358194987148
1196.9694493119623, 0.4992642994457445
1276.2952352697416, 0.876115440366195
1324.4573196012507, 0.5985875122327682
1368.3698082564501, 0.7350786915353626
1392.4508504222044, 0.7475993028024975
1447.6955942142295, 0.6619632240820217
1471.7766363799842, 0.5457570550410378
1500.107274222048, 0.5968117706030407
1546.852826661454, 0.6189330812049622
1681.4233564112587, 0.5310364960186904
2120.548242963252, 0.594752251344109
2906.7234430805315, 0.8833667036636842
2946.3863360594214, 0.8661720747944773
2961.9681868725565, 0.8646681903099458
2991.715356606724, 0.8265202039873324
3229.6927144800625, 0.6477473376307679
##END=


$$ === CHEMSPECTRA PEAK TABLE AUTO ===
##TITLE=SG-V3429 1-6
##JCAMP-DX=5.00
##DATA TYPE=INFRAREDPEAKTABLE
##DATA CLASS=PEAKTABLE
##$CSCATEGORY=AUTO_PEAK
##$CSTHRESHOLD=0.93
##MAXX=3997.453
##MAXY=0.9751273973825675
##MINX=373.96442
##MINY=0.48906099721283897
##NPOINTS=41
##PEAKTABLE= (XY..XY)
3086.6229933776385, 0.9065536851931923
424.95956811571523, 0.8927010293122448
439.12488703674717, 0.8896635172552837
432.0422275762312, 0.8891577122109645
454.7067378498823, 0.8881525990858029
2906.7234430805315, 0.8833667036636842
2930.8044852462863, 0.8814820048505525
651.6046708522281, 0.8769361374464382
1276.2952352697416, 0.876115440366195
549.6143746207972, 0.8694208852860512
2946.3863360594214, 0.8661720747944773
2961.9681868725565, 0.8646681903099458
558.1135659734164, 0.8624873747226901
890.9985606176697, 0.8506333224839341
811.6727746598904, 0.8483291862838156
1113.394067677873, 0.8428192136362543
2991.715356606724, 0.8265202039873324
851.3356676387803, 0.8253369919654132
871.167114128225, 0.8077674499793298
684.1849043706015, 0.7999538179146841
491.5365670445658, 0.777094602471176
933.494517380766, 0.7648892991764024
1392.4508504222044, 0.7475993028024975
1368.3698082564501, 0.7350786915353626
400.8785259499605, 0.7237446897098235
780.5090730336196, 0.7112947104435827
531.1994600234557, 0.7101077431876719
1447.6955942142295, 0.6619632240820217
3229.6927144800625, 0.6477473376307679
1017.0698990148553, 0.6449918150395938
1546.852826661454, 0.6189330812049622
1324.4573196012507, 0.5985875122327682
1500.107274222048, 0.5968117706030407
2120.548242963252, 0.594752251344109
1175.721470930414, 0.5826358194987148
1471.7766363799842, 0.5457570550410378
1681.4233564112587, 0.5310364960186904
604.8591184128222, 0.5142711398893431
1085.063429835809, 0.5097300403155688
1196.9694493119623, 0.4992642994457445
760.6776265441749, 0.48906099721283897
##END=

##END=

