##TITLE=CHS 287
##JCAMP-DX=5.0
##DATA TYPE=LINK
##BLOCKS=1


$$ === CHEMSPECTRA SPECTRUM ORIG ===
##TITLE=CHS 287
##JCAMP-DX=5.00
##DATA TYPE=INFRARED SPECTRUM
##DATA CLASS=XYDATA
##ORIGIN=Angelika Moesle
##OWNER=
##XUNITS=1/CM
##YUNITS=TRANSMITTANCE
##XFACTOR=1
##YFACTOR=8.435912e-010
##FIRSTX=3997.453
##LASTX=373.96442
##MAXX=3997.453
##MAXY=0.9057991529547577
##MINX=373.96442
##MINY=0.6278565542828056
##NPOINTS=2559
##XYDATA= (X++(Y..Y))
2559A032734940A032782491A033002019A033303083A033652900A033967248A034092592
2552A033985901A033848758A033959194A034349143A034741000A034840978A034593824
2545A034175754A033906131A034070406A034631201A035247815A035694572A035989348
2538A036094342A035884848A035501257A035373441A035754558A036383607A036728125
2531A036517218A035927312A035280174A034723195A034260399A033927962A033811452
2524A033953612A034266757A034544012A034658898A034702210A034822891A035045103
2517A035372098A035774695A036002490A035757031A035153136A034741707A034898634
2510A035474832A036039090A036159558A035729476A035179561A035021787A035271837
2503A035539341A035556934A035423606A035261875A035000025A034632614A034430537
2496A034715494A035439221A036017116A035737530A034694650A033888820A033981097
2489A034711608A035529520A036187184A036699934A037043038A037053637A036749675
2482A036388271A035999169A035428482A034888883A034727081A034664409A034233479
2475A033720235A033755705A034409978A035272332A035875168A036068200A036121262
2468A036361068A036670399A036670329A036226681A035568380A034990345A034657485
2461A034750751A035427493A036523082A037234868A036594586A035438443A035207046
2454A035745444A036415191A036806624A036747768A036335773A035964972A036010474
2447A036408761A036693645A036547458A036094766A035559972A035153348A035132575
2440A035540825A036045237A036306663A036344252A036293874A036137230A036062689
2433A036453839A037109243A037451641A037347777A037146125A036989693A036802102
2426A036602217A036483515A036529017A036767551A037086068A037290051A037375121
2419A037532330A037741471A037845265A037886386A038054689A038404011A038786189
2412A038968763A038819467A038403870A037896773A037457223A037159409A036989552
2405A036907520A036898053A036893531A036784085A036610483A036613027A037012586
2398A037750869A038494592A038934707A039007624A038900439A038801733A038665508
2391A038388255A038130573A038179184A038570476A039104776A039369664A038858399
2384A037859325A037408470A037758005A038401043A038835930A039076231A039311444
2377A039355957A038903972A037972163A037067061A036686792A036801677A037153261
2370A037468245A037470718A037098079A036624897A036399293A036543219A037041696
2363A037825481A038733550A039658788A040593636A041331495A041236462A039863690
2356A038229350A037796724A038441317A039121521A039139680A038542214A038028546
2349A038229986A038907929A039355887A039216624A038648622A037947998A037297329
2342A036997536A037508519A038696032A039816068A040467232A040748796A040972704
2335A041457191A042259983A042909381A042610577A041506156A040786738A040582331
2328A040125823A039274774A038704581A038581216A038530697A038350383A038108952
2321A037948069A037865472A037680354A037424509A037634145A038621066A039863831
2314A040252439A038999499A037108395A036071238A035894810A035994718A035963488
2307A035733715A035628367A036007294A036752007A037366783A037611111A037632025
2300A037364169A036476732A035457802A035350336A036091587A037052506A037741966
2293A037746559A037001775A036223431A036054139A036251481A036445926A036681068
2286A036979024A037064235A036804080A036481819A036359514A036348279A036235725
2279A035990900A035844786A035987369A036210571A036070743A035503094A035050897
2272A035199698A035805925A036239187A036003832A035339102A034767426A034485226
2265A034474628A034646887A034844935A034884008A034648512A034206136A033785945
2258A033528476A033331204A033042505A032722646A032522195A032395580A032303021
2251A032392542A032794503A033452803A034220338A034928662A035339173A035270707
2244A034853485A034399521A033993603A033515404A033020034A032767512A032797541
2237A032851734A032763838A032644571A032636516A032638636A032430342A031984080
2230A031478538A031144265A031198740A031691212A032309380A032634255A032649870
2223A032670784A032767512A032658420A032204032A031707887A031641258A032165030
2216A032936238A033380805A033234265A032719537A032119386A031513936A030995110
2209A030686132A030465192A030076231A029507028A028968206A028602703A028415183
2202A028343255A028250414A027996547A027617054A027321784A027313941A027632104
2195A028068192A028295916A028283127A028341984A028552185A028476159A027782813
2188A026864005A026410112A026590213A027009909A027290483A027352025A027228165
2181A026953455A026676131A026577919A026601236A026500339A026223226A026010200
2174A026029771A026156881A026199910A026114911A025902025A025506494A025007381
2167A024724334A024906343A025385461A025755627A025826706A025693803A025449616
2160A025089837A024690631A024453298A024487142A024629161A024572565A024210878
2153A023799520A023693536A023961463A024347314A024498235A024141070A023259214
2146A022246646A021637875A021566230A021697367A021698498A021513662A021188857
2139A020722528A020173886A019765495A019732358A020004100A020127889A019759348
2132A019179546A019006369A019418999A020023813A020424431A020539812A020424220
2125A020151841A019896632A019791850A019685937A019319939A018778645A018430312
2118A018355982A018220746A017819421A017364822A017115477A017082340A017197791
2111A017429613A017660728A017735623A017652250A017515672A017354435A017133141
2104A016886270A016706662A016627387A016620250A016709913A016992677A017474197
2097A017961016A018205697A018108404A017721634A017179067A016704119A016562454
2090A016850659A017367365A017747494A017746716A017455332A017252903A017454131
2083A017975429A018429111A018569150A018551274A018704739A019107407A019445706
2076A019310048A018615218A017717889A017108200A016992183A017194470A017460914
2069A017751238A018157298A018633518A018987998A019159056A019321141A019609628
2062A019911046A020081609A020191620A020346427A020466754A020461526A020376951
2055A020220872A019952097A019719286A019731439A019872539A019825129A019535793
2048A019237979A019087764A019063529A019167676A019498204A020077511A020718077
2041A021132474A021160100A020863134A020506534A020490989A021074253A021983594
2034A022484897A022094594A021177269A020618452A020887792A021625369A022181501
2027A022308327A022168712A021939363A021692209A021507374A021456925A021505254
2020A021565453A021681823A022044923A022672771A023179161A023132880A022599360
2013A022036303A021701536A021460529A021182145A021077362A021471410A022301263
2006A023051133A023261122A022909468A022218948A021406053A020765982A020637388
1999A021006848A021389025A021352920A020988477A020657949A020497419A020397441
1992A020262559A020053912A019756169A019443940A019241582A019179192A019215934
1985A019353925A019632309A020058010A020557264A020991869A021357795A021890116
1978A022686337A023349301A023382368A022844747A022272859A022060326A022214992
1971A022609251A023135496A023638142A023966055A024109063A024070979A023723070
1964A023089852A022606142A022651362A022961683A022933844A022424981A021905378
1957A021870262A022322176A022802212A022862906A022528209A022254630A022401382
1950A022816273A023017359A022764977A022328394A022105122A022116780A022063506
1943A021820026A021650310A021797062A022064777A022087317A021889055A021812889
1936A021928200A021906367A021516910A020908848A020389245A020171554A020339574
1929A020849638A021491688A021923536A021940776A021781024A021929401A022497048
1922A023042725A023109919A022676798A022035597A021509211A021281416A021262692
1915A021181156A020928137A020676461A020618311A020773825A021087890A021512743
1908A021924950A022105263A021903823A021398352A020822295A020327068A019868017
1901A019357034A018836441A018386293A017948156A017423961A016908526A016607108
1894A016517658A016437888A016351688A016536665A017127275A017806491A018181109
1887A018295500A018519055A019087199A019973577A020989820A021802786A022074033
1880A021802008A021395596A021296890A021595057A021985007A022080392A021835429
1873A021642397A021916400A022644650A023428223A023870246A023825168A023401869
1866A022907914A022740106A023107939A023817820A024473506A024894756A025167629
1859A025332398A025269585A024899984A024282240A023506157A022639421A021789008
1852A021094954A020621208A020322263A020136509A020004241A019744298A019080416
1845A017876723A016213485A014243671A012158475A010186965A008379165A006479298
1838A004206302A001513537I98421708I94773959I90354719I85184549I79547696
1831I73738725I67906723I62179784I56797222I52025904I48039714I44897931I42566147
1823I40998435I40260506I40435732I41338784I42464403I43270020I43341030I42291084
1815I39783013I35770539I30506326I24192237I16795065I08275596H98783478H88534990
1807H77719630H66616913H55610005H45001666H34969314H25747455H17747448H11450528
1799H07245729H05425352H06251389H09796546H15616185H22774611H30341427H37781275
1791H44852794H51361257H57139280H62148072H66522516H70519376H74392659H78270180
1783H82147632H85999435H89887696H93942070H98204030I02514813I06637087I10472215
1775I14091702I17593123I20982908I24092118I26539495I27914104I28035773I26975865
1767I24984784I22557049I20344108I18781907I17901606I17463611I17007245I15849549
1759I13378714I09355641I03787396H96693337H88211245H78799322H69189138H60226304
1751H52810406H47920388H46541751H49297824H55949082H65325960H75923488H86594639
1743H96736155I06068802I14454589I21896488I28559757I34662231I40265734I45227611
1735I49396518I52768426I55460767I57730021I59986415I62510878I65149591I67512604
1727I69434231I71034727I72427354I73597980I74582428I75588496I76821582I78243178
1719I79615809I80760221I81663556I82393502I83056819I83792841I84673424I85615408
1711I86448511I87069011I87535834I88031555I88699041I89510099I90319674I91051032
1703I91765716I92525973I93275137I93948487I94590042I95228771I95767591I96158531
1695I96513789I96907130I97246772I97450544I97590654I97802339I98180136I98745171
1687I99400504I99952043A000289919A000526899A000854459A001265323A001554447
1680A001617896A001585889A001603058A001658311A001712504A001841098A002141173
1673A002571820A002963960A003179955A003247220A003304451A003417429A003504689
1666A003497977A003505396A003704010A004108514A004560852A004909822A005101299
1659A005161428A005190184A005301397A005526153A005851452A006313471A006928459
1652A007604918A008234533A008784518A009219756A009449601A009469526A009475461
1645A009708272A010186471A010698584A011067125A011298453A011466684A011588707
1638A011667347A011748318A011884472A012074254A012233936A012254426A012144839
1631A012083792A012232947A012524967A012759191A012878246A012989105A013144054
1624A013307975A013526867A013897952A014367601A014731902A014837180A014705053
1617A014508135A014439458A014584797A014931717A015434433A015956015A016273048
1610A016299544A016206984A016212142A016363346A016565987A016702918A016730685
1603A016716625A016736550A016746795A016647665A016460639A016367726A016548676
1596A016997765A017518569A017923497A018220252A018549579A018946735A019259175
1589A019375051A019423874A019598041A019882996A020158907A020406132A020621915
1582A020724295A020678581A020529497A020304811A020099909A020141737A020525540
1575A021020696A021294487A021209135A020872955A020558112A020552813A020919658
1568A021401178A021682953A021727325A021753538A021947206A022289180A022592153
1561A022632568A022373332A022086185A022090991A022410638A022831181A023161921
1554A023303092A023294401A023379963A023767230A024332901A024779587A024960183
1547A024884581A024655374A024504665A024616230A024855401A024953753A024945628
1540A025129333A025619402A026211145A026646597A026763461A026457027A025804732
1533A025171161A024881261A024850808A024829117A024861265A025138095A025519989
1526A025647170A025492504A025444741A025826212A026540542A027206120A027510859
1519A027441899A027238693A027186618A027476167A028143653A029039993A029898178
1512A030474094A030587849A030177552A029451634A028853744A028735678A029176005
1505A030028327A030937102A031466314A031483484A031285647A031219301A031343444
1498A031526513A031667542A031745051A031749503A031711702A031831888A032379258
1491A033323574A034231572A034660311A034484520A033875749A033225857A032945212
1484A033061228A033195687A033110900A033003220A033110900A033301105A033273761
1477A033047592A032966691A033203388A033575179A033918354A034227332A034370128
1470A034157595A033725817A033400800A033267614A033217519A033205225A033269663
1463A033520209A034048926A034663420A034979393A034941310A034878709A034995291
1456A035182034A035310697A035392942A035481827A035600953A035734775A035852205
1449A035947025A036023687A036065303A036049900A035971048A035876369A035903006
1442A036153411A036498141A036670329A036595363A036494042A036649061A037120689
1435A037648842A037834878A037501807A036867529A036319946A036048487A035920882
1428A035709056A035402975A035235662A035378245A035698952A035896435A035831008
1421A035699235A035872342A036512978A037343467A037846325A037756450A037369892
1414A037328205A037973858A038916337A039487306A039691714A040245514A041447935
1407A042482477A042168342A040330231A038359922A038019502A039381252A040727952
1400A040811397A039920144A038761106A037774114A037299660A037462734A037950330
1393A038026638A037083807A035691037A035296497A036439920A038220445A039441592
1386A039720329A039415873A038985579A038725213A038748033A038767253A038173037
1379A036693716A034877577A033740090A033873276A034955441A036167542A036816304
1372A036660013A036115115A036074204A037085149A038700554A039909122A040116214
1365A039544467A038834941A038453400A038473325A038733267A039008119A039104422
1358A038976747A038719136A038410865A038134176A038104006A038492260A039161795
1351A039827161A040333551A040602468A040630942A040680048A041015875A041364138
1344A041179231A040519800A040093887A040389935A041217880A042038689A042398186
1337A042161983A041612422A041204526A041153724A041415363A041950722A042694940
1330A043394998A043828401A044089616A044371886A044569510A044377538A043851859
1323A043655365A044386582A045672801A046436379A046186893A045495455A045035698
1316A044746009A044115829A042944214A041738048A041350218A042056141A043147491
1309A043731391A043764952A044012246A045012805A046229640A046499967A045563850
1302A044678532A045167400A046888716A048663734A049657720A049877036A049718696
1295A049489135A049293842A049223964A049410495A049788221A050094585A050173084
1288A049920771A049150058A048139467A047896129A048945015A050307612A050799377
1281A050835977A051660954A053149320A053811577A052925341A051455558A050876957
1274A051914680A053979808A055394056A054942141A053268445A051926691A051605490
1267A052187764A053578766A055337460A056542284A057207862A058664149A061339815
1260A063530994A063747837A062582298A061518645A061370127A061773430A061756685
1253A060957073A059935460A059083350A058176200A057333064A057177268A057617807
1246A057720611A057225314A056959507A057336597A057561565A056780606A055215720
1239A053857433A053416611A053676836A053779358A053208247A052365746A051919908
1232A051899418A051907685A051869319A051937855A051976221A051730762A051226492
1225A050578578A049856192A049420316A049808924A051002583A052366453A053480413
1218A054488389A055496719A056077439A055584049A053857574A051615735A050034526
1211A049693331A050115923A050668593A051425176A052552137A053428128A053255302
1204A052232984A051383842A051409702A052162964A053036836A053563787A053726225
1197A053820550A054049546A054264057A054069895A053295931A052468551A052520129
1190A053719512A055132064A055459059A054183580A051871862A049832523A049520153
1183A051562390A055095535A058479243A060413729A060256873A058347397A056221506
1176A055386778A055924822A057090502A058613206A060576238A062942148A065705428
1169A068473865A070024831A069536105A067935891A067048949A067880144A070142897
1162A072612531A073741823A072879257A070918698A069202115A068379257A068588327
1155A069609304A070502182A070211857A068833503A067436213A066815431A066973064
1148A067323658A067165107A066460032A065974273A066196062A066534503A066163913
1141A065225957A064635981A064997386A065769442A065564469A063807259A061853059
1134A061590008A063169307A065120327A066515426A067531104A068100731A067676231
1127A066454733A065746055A066507018A068087801A069048438A068622878A067037149
1120A065032855A063286949A062083751A061373236A060960252A060617430A060267401
1113A060118810A060420936A061126929A061998328A062795114A063158709A062829594
1106A062214676A062074919A062565200A063065302A063088618A062844714A062757030
1099A062984542A063436457A063808740A063770094A063413211A063242295A063552756
1092A064303404A065447887A066759189A067691351A067932712A067680117A067282607
1085A066946284A066758058A066674117A066486033A066112900A065869279A066084355
1078A066517051A066580430A066075382A065303679A064588359A064120759A064183430
1071A065004734A066284099A067332420A067790694A067840930A067818885A067781579
1064A067550958A067185456A067098408A067535767A068255326A068908752A069397761
1057A069657209A069545926A069282804A069351834A069761497A070070687A070017836
1050A069771247A069586412A069533984A069593901A069743550A069926902A070065812
1043A070133500A070213977A070412661A070597779A070354299A069545997A068660184
1036A068149060A068013401A067940979A067664714A067347046A067406326A067956874
1029A068601469A068817323A068467506A067711912A066810485A066116998A065823494
1022A065805335A065843419A065853805A065886307A066014406A066329743A066910958
1015A067606494A068049082A068124825A068133162A068414726A069072249A069981661
1008A070892414A071593673A072050605A072359300A072671387A073085925A073438709
1001A073470151A073295137A073149656A073025655A072835803A072632173A072483584
994A072323407A072053290A071679238A071309284A071068701A070971619A070867755
987A070646320A070377616A070156675A070052246A070111243A070301096A070485578
980A070485437A070225494A069739311A069076771A068304927A067453029A066417427
973A065038437A063348561A061492997A059362865A056827804A054099570A051469689
966A048934979A046475098A044263429A041971565A038196566A031503055A023102712
959A014776840A005656725I94821793I82572543I69139808I54847121I41270176
952I29721339I19317832I08187629H96970026H89239994H86006642H85864199
945H88001963H91956429H97212305I03624958I10833832I17608879I23580992
938I30106625I37874317I45006741I50451339I55020935I58969607I62308378
931I65451856I68594133I71471098I73804790I75513672I76529279I76953708
924I77041816I76907358I76619082I76145970I75376529I74461818I73711877
917I73073431I72308863I71504942I70944641I70505303I69738051I68400960
910I66952516I66045648I65683961I65582287I65516930I65007078I63505782
903I62091747I61718967I61651349I61136763I60305567I60171321I61110196
896I62766157I64738727I66715324I68354045I69159663I69105682I69074522
889I69612708I70760653I72446996I74379363I76194794I77889686I79702150
882I81634940I83393635I84613649I84756021I83283836I80349923I76112268
875I70018201I61832581I52784253I45258982I40994549I39994910I41073825
868I42780093I44030348I44484170I44438951I44347734I44489046I44944635
861I45670411I46579399I47608572I48704868I49823915I50978573I52207772
854I53500138I54801972I56047917I57121179I57857130I58296539I58671510
847I58787527I57904541I55455539I52204097I49372707I47216078I45761416
840I45184723I45417181I46246680I47627790I49343879I51050076I52529115
833I53436972I53371898I52261329I50539023I48687062I46856652I45181402
826I43897656I42928117I42276670I42517677I43627467I45200267I47062897
819I49178968I51598788I54481901I58011867I62137956I66325233I70064976
812I73439640I76545459I79046040I80974874I82843509I84788947I86477480
805I87733741I88702291I89545710I90325044I91181887I92367492I93699637
798I94848077I95681816I96138112I96168635I95711138I94789009I93575354
791I92071727I89993809I87214632I84459832I82862656I82602855I83112354
784I83813543I84320498I84422949I83979301I82806626I80580331I76512109
777I69421372I59827439I50642816I43352688I37264345I31509568I26255529
770I22635830I21144992I21102528I21489793I21586520I21778210I22989887
763I25133726I27628584I29822024I31093829I31077225I29668065I26867479
756I23048036I19490162I17979116I19620098I24536826I31652787I38603767
749I44178301I48983321I53627531I57938173I61431892I64069121I66150996
742I67832675I69057706I69793092I70115990I70214908I70260057I70135137
735I69511034I68113320I65925957I63187125I60057353I56352091I52025833
728I47929844I45191647I44091395I44250300I45094778I45991048I46458648
721I46380714I45975786I45462542I44793148I43730555I42184817I40430080
714I38701485I36826349I34499582I31825682I29478000I28154193I27937986
707I28163449I27796109I26005761I22478621I17758952I13383589I11003689
700I11634575I15575121I21933017I28978958I35582029I41376939I46134408
693I49648194I51916812I53035223I52851306I50894704I46811715I40979429
686I34649867I29361348I26305059I26178231I28953592I33572365I38583348
679I43097055I46903992I50048106I52505728I54274385I55608367I56940583
672I58557118I60449705I62456826I64417243I66126549I67238318I67295126
665I65838980I62635797I58011514I52857877I48216777I44983990I43741222
658I44401644I46054708I47493191I47960791I47315986I45650062I42953129
651I39084934I33943025I27666950I20658315I13391361I06244451H99389564
644H92637904H85436378H77177912H67556847H56710469H45194627H33845321
637H23498197H14780962H08163124H04050318H02652958H03795675H06962752
630H11506205H16787376H22239817H27480078H32436797H37281384H42157415
623H47047082H51891812H56695561H61487299H66310902H71255257H76390594
616H81681939H86974909H92006382H96479957I00255452I03451285I06311858
609I09025890I11690393I14397430I17303434I20529368I23965079I27275022
602I30132697I32347193I33858663I34841273I35762272I37087069I38868514
595I40677728I41827511I41601200I39523353I35654310I30577264I25047950
588I19858844I16083985I15047181I17580122I23257814I30529289I37628152
581I43395435I47479271I50058846I51491887I52085043I51968885I51048239
574I49032923I45559128I40425275I33893284I26819009I20436385I15952212
567I14204398I15421940I19105298I24188634I29496512I34193642I37877355
560I40314911I41276042I40743933I39125843I37057747I35109624I33807790
553I33723638I35226277I38118998I41673905I45110605I48038936I50472889
546I52542469I54280744I55628716I56543707I57077161I57332935I57328766
539I56922354I55895936I54072027I51360397I47789097I43525724I38815594
532I33876609I28934304I24337082I20439705I17213984I14066761I10169173
525I04941135H98213145H90158944H81320252H72667314H65361500H60149713
518H56813274H54234265H51140104H46976921H42342463H38771446H37969432
511H40902709H47316563H55917428H65001155H73205287H79980405H85425992
504H89709502H92733643H94297822H94369467H93108119H90731610H87433890
497H83371108H78754526H74129677H70526371H69033272H70141650H73651267
490H79051069H85702539H92870856H99994943I06878942I13462371I19552056
483I24901410I29443803I33366615I36961089I40394610I43632556I46560604
476I49119194I51320900I53191090I54740996I56033857I57234370I58519105
469I59956810I61488841I62910648I63864219I64062620I63608728I62916159
462I62151310I60740878I57456865I50921129I39869779I23038922H99493146
455H69778762H36749912H04783938G77921223G58570497G47471736G44266363
448G47918281G56920400G69568219G84229801G99400104H13833185H26957295
441H38948863H50079419H60146321H68746409H75860322H81873770H87136994
434H91759299H95811199H99472090I02871625I05940562I08558431I10772715
427I12759769I14606359I16209327I17406945I18205356I18876657I19813553
420I21228154I22966358I24678915I26210874I27740573I29475951I31342255
413I33076149I34529752I35748706I36754633I37352735I37314934I36833203
406I36613463I37321999I39036393I41332849I43700456I45776324I47428187
399I48767045I49946361I50920282I51523541I51765608I51894484I52140155
392I52501701I52855757I53203030I53655652I54205989I54722555I55226543
385I55952532I57039501I58312225I59425266I60138396I60509268I60910947
378I61758534I63113572I64673582I66180601I67623887I68968185I69971074
371I70478666I70687242I70863246I70938141I70667458I70088787I69467793
364I68828993I67906723I66520455I64633379I62178583I59294694I56622914
357I54917000I54361009I54483456I54656280I54587673I54472151I54653454
350I55041071I55060502I54408914I53648092I53746586I55142604I57396596
343I59485677I60199301I58638584I54812288I49725774I44743760I40986916
336I39228648I39876138I42809556I47429530I52956371I58622969I63710048
329I67721039I70700455I73167333I75345864I76508789I75545820I72359171
322I68490552I66330462I67731779I72964550I80511654I87923240I93224334
315I95749716I95871810I94255840I91382338I87295886I81396830I72609081
308I60126314I44132727I25738258I06208277H86362394H66894731H49169866
301H35114370H26012485H21987858H22928004H28966747H39482526H52490973
294H65763673H78174159H89627612I00119156I09388072I17415918I24669023
287I31481800I37537288I42234842I45064608I45189457I41226795I32125334
280I18173561I01029274H83116676H66967295H54425035H45864021H40097303
273H35333545H30535448H26017431H22941429H22544202H25777908H33082591
266H43991288H57029975H70306278H82335857H92456246I00567680I06439463
259I09529031I09867331I08747153I07866993I07860421I08014028I07290936
252I05429155I03119627I01080782H98953547H95371861H89141641H80132032
245H69158968H57259465H45528971H36056213H31957891H34629389H40984670
238H45083627H42829847H34529693H23593159H14022684H08850040H09504879
231H15638088H25465962H36888468H48725511H60919226H73668224H86454882
224H97749784I05769433I09974586I11903561I14177054I18537862I24706894
217I30856637I35177524I37142605I37209163I35630923I32409723I28075199
210I23782575I21043177I20074132I19132784I18162609I18582022I20858129
203I23500870I24980615I25855051I27551286I30177493I32413539I32901700
196I31630531I30386140I31331233I34667743I38436313I40730932I41207647
189I40468446I39154742I38055196I38195165I40108101I43288672I46760702
182I49893087I52340393I53681653I53643287I52422778I50447947I48210065
175I46527749I46305537I47727485I50136991I52835267I55502594I57883132
168I59567073I60171180I59805889I59437843I60236535I62124955I63592760
161I63456041I62209036I61122066I60658423I60451330I60258299I60202410
154I60278294I60225797I59926358I59602189I59724494I60815985I62925486
147I65054700I65738154I64709617I63393793I63196522I63745164I63542806
140I61845017I59028958I55592328I51730845I47902217I44948591I43323436
133I42574343I41843196I40884962I40494942I41829631I45184440I49436580
126I52815766I54312822I54500413I54988645I56844350I59456779I61120583
119I60680043I58499110I56022128I54438872I53529814I51925714I48896557
112I45501403I43242111I42126809I41048601I39561366I38149307I37212201
105I37056899I38150298I40266653I42260207I43635876I44993952I46320869
98I46625254I45709767I44776896I44629298I44475974I43209115I40983951
91I39073699I38420698I38579603I38404306I37649207I37421201I38605181
84I40560298I42348880I44226701I46599960I48783084I50122365I51251445
77I52807075I54027655I53877582I52502336I50667970I48610189I46390536
70I44686953I44131103I44501905I45256227I45974373I46304689I46102613
63I45159782I42362164I36125585I27073724I19176167I15693470I16526573
56I19952463I24561414I30277542I37308787I44014733I47802169I48291814
49I47173544I45406865I43085609I41122366I40947775I43133513I47307860
42I52241192I55542233I55736820I54728207I55465501I57964528I60310655
35I62596018I66138772I69098475I67639785I63130529I59150839I56948850
28I57439979I60757058I63782047I62371615I56656971I51406959I51087524
21I56385509I64159349I68211673I63234888I53872989I49576337I50503624
14I52056498I52696640I52871655I51068871I44289938I33400671I26379741
7I30325305I42522270I55275931I63374080I64549016I58004731I48978094
##END=


$$ === CHEMSPECTRA PEAK TABLE EDIT ===
##TITLE=CHS 287
##JCAMP-DX=5.00
##DATA TYPE=INFRAREDPEAKTABLE
##DATA CLASS=PEAKTABLE
##$CSTHRESHOLD=0.93
##MAXX=3997.453
##MAXY=0.9057991529547577
##MINX=373.96442
##MINY=0.6278565542828056
##$CSSOLVENTNAME=- - -
##$CSSOLVENTVALUE=0
##$CSSOLVENTX=0
##NPOINTS=22
##PEAKTABLE= (XY..XY)
383.88014324472215, 0.7814857982094704
454.7067378498823, 0.772470953189464
664.3534578811568, 0.7745538971214408
702.5998189679435, 0.682338775863648
713.9320741047691, 0.7018323556181593
733.7635205942138, 0.7658630628274864
753.594967083659, 0.6938910504182224
796.0909238467552, 0.6934217235156497
1008.5707076622357, 0.6278565542828056
1070.8981109147771, 0.7331088207664065
1097.8122168647378, 0.7069036387041985
1175.721470930414, 0.7712147851540977
1202.635576880375, 0.7719257494764072
1269.2125758092257, 0.6771109720227696
1340.0391704143858, 0.7813158053031672
1365.5367444722438, 0.7685146952079368
1375.452467716966, 0.7828003191353232
1440.6129347537135, 0.7743991040413792
1460.4443812431587, 0.7770339869185536
1712.587058037529, 0.7473072426714489
2850.0621673964033, 0.7141351715761912
2919.4722301094607, 0.6794497392041025
##END=


$$ === CHEMSPECTRA PEAK TABLE AUTO ===
##TITLE=CHS 287
##JCAMP-DX=5.00
##DATA TYPE=INFRAREDPEAKTABLE
##DATA CLASS=PEAKTABLE
##$CSTHRESHOLD=0.93
##MAXX=3997.453
##MAXY=0.9057991529547577
##MINX=373.96442
##MINY=0.6278565542828056
##NPOINTS=56
##PEAKTABLE= (XY..XY)
2953.4689955199374, 0.7931954885691472
2919.4722301094607, 0.6794497392041025
2850.0621673964033, 0.7141351715761912
1712.587058037529, 0.7473072426714489
1644.5935272165752, 0.8099920768879753
1633.2612720797497, 0.8175027389034064
1604.9306342376854, 0.7929714341207921
1596.4314428850662, 0.7966434381423408
1562.4346774745895, 0.7973495146972377
1539.770167200938, 0.794896306777304
1485.9419553010162, 0.8289151215728761
1460.4443812431587, 0.7770339869185536
1440.6129347537135, 0.7743991040413792
1400.950041774824, 0.796427192817724
1375.452467716966, 0.7828003191353232
1365.5367444722438, 0.7685146952079368
1340.0391704143858, 0.7813158053031672
1306.0424050039092, 0.7961317899564464
1269.2125758092257, 0.6771109720227696
1202.635576880375, 0.7719257494764072
1175.721470930414, 0.7712147851540977
1155.8900244409692, 0.7876810442487856
1097.8122168647378, 0.7069036387041985
1070.8981109147771, 0.7331088207664065
1008.5707076622357, 0.6278565542828056
947.6598363017979, 0.7901188751883257
876.8332416966377, 0.8050905488155209
871.167114128225, 0.8051843072286713
864.084454667709, 0.8044891383079904
848.5026038545734, 0.7923250222406977
827.2546254730255, 0.8151878740351345
796.0909238467552, 0.6934217235156497
753.594967083659, 0.6938910504182224
733.7635205942138, 0.7658630619838952
713.9320741047691, 0.7018323556181593
702.5998189679435, 0.682338775863648
664.3534578811568, 0.7745538971214408
648.7716070680217, 0.7848655603059681
637.4393519311961, 0.7913351084598752
619.0244373338542, 0.7982950235244745
606.2756503049254, 0.8093733213017816
592.1103313838935, 0.8100183032947921
586.4442038154807, 0.8095119621411369
575.1119486786547, 0.8125441098298064
556.6970340813132, 0.7933932567157105
521.2837367787329, 0.7904929538956889
500.03575839718496, 0.7916434427306577
494.3696308287722, 0.7908002758570313
470.2885886630179, 0.7964606901370936
454.7067378498823, 0.772470953189464
436.2918232525408, 0.7937752626495801
427.7926318999216, 0.8054003138169784
413.6273129788897, 0.8072736287101201
403.71158973416686, 0.8023290656761889
395.2123983815477, 0.8010542416214345
383.88014324472215, 0.7814857973658792
##END=

##END=

