##TITLE=X7684
##JCAMP-DX=4.24
##DATA TYPE=INFRARED SPECTRUM
##DATE=29/10/2018
##SAMPLING PROCEDURE=Diamant-ATR
##ORIGIN=ComPlat
##XUNITS=1/CM
##YUNITS=TRANSMITTANCE
##RESOLUTION=4
##FIRSTX=3997.453
##LASTX=373.96442
##DELTAX=-1.4165319
##MAXY=0.96126515
##MINY=0.57475156
##XFACTOR=1
##YFACTOR=8.9524793e-010
##NPOINTS=2559
##FIRSTY=0.94697613
##XYDATA=(X++(Y..Y))
3997+1057780857+1058204499+1058636863+1058560097+1058036986+1057354752
3989+1056731241+1056516124+1057070727+1058214885+1059250853+1059692205
3980+1059620167+1059302119+1058854176+1058319747+1057809287+1057505354
3972+1057536446+1057796237+1057976333+1057908356+1057734718+1057617606
3963+1057531786+1057499561+1057740777+1058357497+1059029012+1059169095
3955+1058461161+1057326589+1056665794+1056930511+1057647367+1058047439
3946+1057935587+1057717408+1057945773+1058828210+1059811381+1060131892
3938+1059750395+1059107376+1058395314+1057698699+1057402689+1057690310
3929+1058059357+1058065349+1057850033+1057714545+1057763946+1057904428
3921+1057886452+1057462544+1056708337+1056098008+1056022108+1056447947
3912+1057241102+1058353103+1059455650+1059798132+1058835534+1056942429
3904+1055343336+1054986407+1055660585+1056712066+1057737981+1058499244
3895+1058875881+1058875948+1058645784+1058522480+1058764161+1059178416
3887+1059305049+1058781272+1057679724+1056455604+1055569771+1055541209
3878+1056488494+1057655622+1058110823+1057469534+1056182098+1055237676
3870+1055533685+1057105281+1058786266+1059361042+1058538259+1057085973
3861+1056070645+1055796872+1056011056+1056463527+1056971657+1057245829
3853+1057080314+1057091233+1057820605+1058999585+1060080760+1060523643
3844+1059990479+1058547048+1056693490+1055081348+1054274079+1054632673
3836+1055960456+1057509215+1058466820+1058455102+1057912351+1057666142
3827+1058043844+1058712696+1059158375+1059023154+1058115084+1056750815
3819+1055720106+1055339142+1055631224+1056635500+1057886518+1058653374
3810+1058566822+1057706688+1056680641+1056370383+1056699749+1056530705
3802+1055292603+1054072611+1054324679+1055935090+1058042313+1059841608
3793+1060773047+1060797881+1060263585+1059595999+1059073221+1058726145
3785+1058458564+1058166749+1057682787+1056905611+1056220647+1056258996
3776+1056910005+1057500027+1057758953+1057891512+1058086987+1058253701
3768+1058155830+1057784120+1057555155+1057912550+1058655238+1059015164
3759+1058423544+1057244964+1056461529+1056405936+1056521517+1055976502
3751+1054442124+1052884976+1052439097+1053000690+1053730129+1053510485
3742+1052298616+1051090275+1050100579+1049078326+1048323388+1048562007
3734+1049630132+1050700056+1051737355+1052951755+1054094649+1054821291
3725+1055059044+1054949322+1054615895+1054146647+1053741248+1053707758
3717+1054185995+1054923756+1055448797+1055493339+1055337344+1055568173
3708+1056194415+1056684302+1056717126+1056387028+1056012654+1055826034
3700+1055775500+1055777564+1055935156+1056388293+1057249957+1058628540
3691+1060320710+1061324454+1060471578+1058372811+1056668124+1055874237
3683+1055589412+1055338543+1054998058+1054701848+1054401444+1054021212
3674+1054026538+1054499848+1054527478+1053692046+1053380923+1054892530
3666+1057134842+1058493252+1058471614+1057554356+1056383299+1055301725
3657+1054678213+1054987139+1055969777+1056592424+1056257065+1055252656
3649+1054278673+1053568276+1053237645+1053777267+1055154252+1056554274
3640+1057198758+1057165002+1056990033+1056702345+1055927367+1054684804
3632+1053314077+1051798475+1050201180+1049581796+1050308771+1051261849
3623+1051879368+1052580045+1053758825+1054943530+1055334681+1054927551
3615+1054151906+1053479060+1053645174+1054992599+1056849951+1058192581
3606+1058561029+1058168879+1057406417+1056515192+1055526428+1054469688
3598+1053595373+1053100892+1052851021+1052672523+1052577781+1052480243
3589+1052177375+1051854334+1052288762+1053772873+1055411114+1056188889
3581+1055968646+1055540943+1055604792+1055932360+1056120579+1056428173
3572+1057045160+1057364340+1056763997+1055606656+1054948590+1055072493
3564+1055334348+1055557987+1056017581+1056711001+1057332115+1057616474
3555+1057382382+1056574048+1055570570+1055019896+1055057380+1055240139
3547+1055216437+1055012506+1054919761+1055355520+1056517256+1057961153
3538+1058831206+1058708169+1057980328+1057222926+1056642757+1056285495
3530+1056228437+1056340422+1056213589+1055673168+1055229220+1055682489
3521+1057070127+1058338123+1058504703+1057889514+1057654557+1058188853
3513+1058630005+1058147574+1057100554+1056586698+1057068862+1057914548
3504+1058309893+1058218214+1058228334+1058498512+1058515689+1058036654
3496+1057560082+1057619470+1058076068+1058460229+1058617754+1058720020
3488+1058926414+1059236273+1059485411+1059400523+1058858437+1058125670
3479+1057602626+1057425659+1057591107+1058116215+1058749181+1058963099
3471+1058587860+1057981460+1057396431+1056724516+1055969378+1055423564
3462+1055287343+1055518372+1056036223+1056792027+1057662081+1058377005
3454+1058621683+1058370747+1058078132+1058222808+1058640524+1058614026
3445+1057786450+1056697818+1056219781+1056602410+1057120594+1056847421
3437+1055775966+1054846125+1054811371+1055453924+1056018447+1056098341
3428+1055958060+1056105266+1056601279+1056899818+1056560799+1055914983
3420+1055630025+1055857192+1056263457+1056574247+1056650480+1056378838
3411+1055839349+1055394935+1055412845+1055916781+1056562330+1056999287
3403+1057211341+1057337109+1057282314+1056828978+1056045145+1055283415
3394+1054836271+1054745657+1054818029+1054762369+1054454707+1053999041
3386+1053501697+1053014272+1052796759+1053250361+1054292654+1055127687
3377+1055053718+1054333334+1053858626+1054089256+1054627147+1054759905
3369+1054260031+1053639182+1053486850+1053638849+1053532123+1053334184
3360+1053818213+1054984742+1055786419+1055527960+1054691928+1054039921
3352+1053701633+1053493707+1053421070+1053496171+1053546771+1053448167
3343+1053246233+1053047628+1052999825+1053150093+1053209149+1052897493
3335+1052538366+1052731179+1053503028+1054337462+1054888203+1055203654
3326+1055419103+1055602994+1055796339+1055945476+1055822771+1055249860
3318+1054456372+1053980133+1054114156+1054651248+1055154652+1055238608
3309+1054749985+1053996245+1053618876+1053973408+1054782942+1055462047
3301+1055638814+1055335147+1054762702+1054081466+1053458886+1053190107
3292+1053474399+1054159363+1054915766+1055519770+1055853397+1055859722
3284+1055628028+1055410115+1055451261+1055748669+1055950936+1055699267
3275+1055134012+1054773288+1054850852+1055158447+1055536282+1056006596
3267+1056393153+1056398546+1056207464+1056411262+1057099688+1057591374
3258+1057362076+1056722519+1056217318+1055799269+1055057646+1054054502
3250+1053476064+1053865018+1054944395+1055884024+1056200473+1056264256
3241+1056744357+1057615342+1058074404+1057639111+1056878247+1056594820
3233+1056758671+1056773851+1056369517+1055771372+1055363443+1055477759
3224+1056166851+1056992230+1057349692+1057135308+1056849085+1056918194
3216+1057187240+1057273459+1057139503+1057022989+1057026984+1057090900
3207+1057158078+1057130048+1056850017+1056293151+1055678761+1055384416
3199+1055753463+1056822653+1058140650+1058981142+1058874083+1058013884
3190+1057062670+1056393219+1055770906+1055057580+1054734805+1055184013
3182+1055974371+1056475711+1056702811+1057014134+1057363674+1057375325
3173+1056912069+1056216719+1055687882+1055722770+1056465591+1057498896
3165+1058143712+1058216284+1058065016+1057879660+1057529322+1056990898
3156+1056414525+1055966382+1055893345+1056328305+1056933840+1057198891
3148+1056981178+1056415656+1055678029+1055061108+1054773354+1054619557
3139+1054358701+1054177606+1054351577+1054726216+1054919828+1054818095
3131+1054616028+1054498450+1054459568+1054419487+1054390525+1054418555
3122+1054446185+1054362163+1054125009+1053726933+1053151425+1052460868
3114+1051816384+1051276895+1050666167+1049866487+1049243642+1049404496
3105+1050403912+1051570974+1052284101+1052516395+1052477979+1052220119
3097+1051839754+1051664518+1051907398+1052347751+1052608208+1052611403
3088+1052545557+1052496821+1052366260+1052072114+1051574503+1050785143
3080+1049723809+1048645297+1047777640+1047134355+1046785814+1046964312
3071+1047612724+1048183306+1048201548+1047794684+1047523908+1047888294
3063+1048940774+1050195121+1051055720+1051384287+1051361051+1050978489
3054+1050262432+1049748643+1049998380+1050748126+1051150329+1050820963
3046+1050190860+1049760161+1049449237+1048994636+1048631914+1048771797
3037+1049189779+1049291911+1049064078+1048997832+1049248768+1049495044
3029+1049431328+1048992106+1048319593+1047640221+1047021503+1046402053
3020+1045854974+1045393582+1044665275+1043425775+1042108178+1041365957
3012+1041316422+1041616626+1041910972+1041930080+1041516691+1040756693
3003+1039890901+1039086760+1038373500+1037677218+1036938858+1036345906
2995+1036253760+1036708428+1037312632+1037701519+1037850390+1037854784
2986+1037678083+1037113161+1035888442+1033907120+1031367001+1028546850
2978+1025660654+1022910012+1020285138+1017326038+1013537963+1008978705
2969+1004033489+998764366+992877458+986287343+979435972+972926351+966968402
2959+961438024+956426429+952376299+949658814+948293680+948069642+948782835
2949+950425603+953121784+956712851+960518902+963699244+965794283+966865405
2939+967276996+967451299+967756364+968387532+969182085+969708857+969788619
2929+969793612+970283700+971520337+973322562+975229981+976939062+978647744
2919+980684393+982866185+984666079+985952717+987155132+988708152+990543933
2910+992165063+993242643+994064627+995192673+996781180+998516693+1000067249
2900+1001321996+1002309361+1003116364+1003871569+1004705470+1005685379
2891+1006778005+1007918835+1009083168+1010191307+1010992585+1011208234
2883+1010804233+1009997363+1008926707+1007387935+1005040562+1001928929
2874+998648719+995945415+994285535+993761826+994148516+994985679+995812923
2864+996476981+997222731+998419487+1000131098+1001977598+1003485944+1004552738
2854+1005513405+1006765089+1008312317+1009724189+1010620541+1011117154
2846+1011642528+1012430023+1013341156+1014123325+1014763149+1015586730
2837+1016956259+1018910683+1021250799+1023875606+1026748021+1029599330
2829+1032021804+1033895135+1035454347+1036880734+1038076958+1038895279
2820+1039330905+1039444689+1039398483+1039544024+1040113141+1040883393
2812+1041515360+1042071161+1042844741+1043851947+1044785450+1045364487
2803+1045544117+1045416951+1045062419+1044618470+1044413807+1044740177
2795+1045466087+1046129213+1046413438+1046386407+1046358843+1046612176
2786+1047180627+1047853607+1048374387+1048576055+1048431445+1048123784
2778+1047946484+1048008869+1048120255+1048014262+1047648544+1047303532
2769+1047319244+1047735629+1048356810+1049101895+1049963360+1050701387
2761+1050970033+1050748791+1050388200+1050244989+1050375683+1050550320
2752+1050548322+1050427947+1050398187+1050499453+1050615234+1050743731
2744+1050991005+1051278693+1051312848+1050981551+1050607711+1050610507
2735+1051007251+1051435153+1051576501+1051358987+1050855717+1050265761
2727+1049893052+1049869350+1049978340+1049958433+1049850375+1049872413
2718+1050116824+1050506577+1050889872+1051112911+1051143871+1051150329
2710+1051367310+1051908064+1052695226+1053483454+1053985659+1054088457
2701+1053923874+1053686786+1053455957+1053249363+1053161145+1053285249
2693+1053528728+1053706627+1053822740+1053973342+1054004434+1053662218
2684+1053078854+1052702616+1052731645+1052952820+1053088508+1053024925
2676+1052752284+1052314128+1051825506+1051448736+1051330358+1051540215
2667+1051981567+1052373583+1052464330+1052310600+1052194087+1052239227
2659+1052303143+1052263462+1052225246+1052407805+1052902753+1053511484
2650+1053856696+1053798905+1053630727+1053676533+1053887988+1054030933
2642+1054010027+1053816415+1053416076+1052884244+1052428511+1052190891
2633+1052219919+1052577515+1053195633+1053744177+1053982729+1054087591
2625+1054281669+1054381138+1054120215+1053676533+1053425863+1053401029
2616+1053427062+1053565679+1053948574+1054359566+1054487131+1054452377
2608+1054597652+1054908310+1055127155+1055252123+1055440542+1055596137
2599+1055498798+1055251591+1055249194+1055661983+1056187158+1056450477
2591+1056454938+1056387028+1056204402+1055792078+1055360048+1055303988
2582+1055717843+1056239422+1056436163+1056335362+1056401009+1056844025
2574+1057325924+1057603957+1057889048+1058228867+1058274873+1058097507
2565+1058449376+1059660447+1060857802+1060877909+1059676492+1058244580
2557+1057335045+1056933174+1056859072+1057095560+1057433848+1057454887
2548+1057000020+1056280568+1055610984+1055315640+1055640678+1056441489
2540+1057126520+1057160075+1056629375+1056191219+1056353938+1056930644
2531+1057457217+1057928729+1058613160+1059341867+1059654189+1059505118
2523+1059154314+1058569152+1057667473+1056946823+1057117065+1058161289
2514+1059312772+1059918507+1059989680+1060015046+1060463788+1061338502
2506+1062132389+1062368678+1062068607+1061477386+1060632899+1059599061
2497+1058845121+1058892193+1059654854+1060437157+1060544748+1059844937
2489+1058885269+1058503638+1059168296+1060669717+1062387320+1063621427
2480+1063767568+1062711426+1061184239+1060219643+1060091479+1060188751
2472+1059983288+1059612111+1059385476+1059232811+1058910502+1058493252
2463+1058370081+1058714627+1059081410+1058804109+1057870007+1057002883
2455+1056724250+1056879312+1057242234+1057853229+1058519151+1058749980
2446+1058463291+1058125070+1058082526+1058261357+1058463757+1058541588
2438+1058351705+1057865413+1057336110+1057153085+1057438708+1057897437
2429+1058206496+1058397778+1058653441+1058955243+1059159640+1059196458
2421+1059112103+1059122423+1059470564+1060037151+1060368514+1060229897
2412+1059806787+1059396195+1059207377+1059330748+1059689009+1060176767
2404+1060757268+1061203147+1061087034+1060361923+1059567902+1059196325
2395+1059216698+1059372626+1059557716+1059789876+1060058988+1060199670
2387+1059780888+1058356832+1056035624+1053499034+1051185416+1048769999
2378+1045765559+1042325093+1039059330+1036279526+1033743202+1030984638
2370+1027767078+1024260499+1020775825+1017578039+1015235926+1014428856
2361+1014868943+1015417020+1015840396+1017198739+1020015627+1023426931
2353+1026437031+1028838732+1030668321+1031597696+1031078181+1028977283
2344+1026271449+1024601583+1024673688+1025831229+1027086375+1028015617
2336+1028796721+1029603058+1030240219+1030498478+1030484364+1030328236
2327+1029978098+1029559649+1029519369+1030217649+1031668470+1033745799
2319+1036226729+1038516778+1039905148+1040321000+1040430856+1040842846
2310+1041624549+1042703128+1044177451+1045974949+1047625308+1048696829
2302+1049299235+1050018620+1051358321+1053185114+1054677281+1054971160
2293+1054034128+1052869330+1052658408+1053672538+1055198394+1056488427
2285+1057375591+1057919674+1058093778+1058070409+1058219945+1058546781
2276+1058624745+1058248308+1057664810+1057100953+1056545219+1056039885
2268+1055799935+1056010524+1056730641+1057795505+1058619619+1058545050
2259+1057673399+1056804344+1056364524+1056146278+1056126771+1056434498
2251+1056574913+1056098741+1055921441+1057378521+1060039814+1062084319
2242+1062877274+1063502717+1064524836+1064961061+1064081021+1062737259
2234+1062072468+1062111950+1062260554+1062085318+1061313602+1060212919
2225+1059890277+1061030375+1062719083+1063481611+1062895916+1061606482
2217+1060494415+1060150002+1060631367+1061671996+1063023149+1064330359
2208+1065133301+1065397353+1065452481+1065236099+1064328828+1062670746
2200+1060693552+1059019092+1058174938+1058198707+1058541522+1058526208
2191+1057760617+1056307998+1054689332+1053495971+1053047229+1053653363
2183+1055605058+1058433797+1061087899+1063141193+1064719313+1065188495
2174+1063454380+1060084022+1057593238+1057652959+1059142862+1059903061
2166+1059499659+1059333212+1061090163+1065472587+1070683720+1072644602
2157+1069756009+1065451016+1063378347+1063973297+1065760009+1067026007
2149+1066866018+1065878519+1065075178+1064246670+1062761560+1060944621
2140+1059182144+1057171527+1055381020+1055554591+1058437658+1062369943
2132+1065088893+1065813072+1065146883+1063995534+1062865357+1061818137
2123+1061010534+1060935567+1061605018+1062061549+1061575656+1060794619
2115+1060717587+1061092227+1060816923+1059590006+1058302570+1057870273
2106+1058219679+1058564425+1058517686+1058558832+1059148522+1059835283
2098+1059868240+1059432281+1059446595+1060160788+1060819453+1060841957
2089+1060597079+1060768254+1061446227+1062079259+1062046969+1061258607
2081+1060406397+1060415985+1061319194+1062056955+1061871267+1061347024
2072+1061340233+1061707549+1062099433+1062992855+1064732563+1066440778
2064+1066954967+1066140907+1064531295+1062524406+1060565454+1059477089
2055+1059882155+1061102080+1061178646+1058863497+1055491408+1054067351
2047+1056202804+1060585628+1064877239+1068338011+1071548846+1073741823
2038+1072509980+1067387930+1061649359+1058854842+1059326620+1061368662
2030+1063778021+1065694162+1066231587+1065870596+1066469207+1068468572
2021+1069450545+1067039456+1062206691+1058234593+1057479921+1060248738
2013+1065067721+1069022509+1070045361+1069504740+1070142899+1071726479
2004+1071571883+1068821441+1065532375+1064056054+1064781432+1066025392
1996+1065876189+1064301531+1063056372+1063409639+1064679766+1065438366
1987+1064964457+1062998182+1059526357+1055520237+1053090106+1054253572
1979+1059315834+1065985112+1070515142+1071041115+1069209263+1067500515
1970+1066151426+1063968436+1061275452+1059995938+1060654603+1061643367
1962+1061916274+1062376601+1063969635+1065655813+1065254608+1061937113
1953+1057341636+1054263759+1054532738+1057908556+1062283390+1065156604
1945+1065644294+1064852538+1064155190+1063953389+1064279893+1065190559
1936+1066195168+1066483655+1065899225+1065046016+1064583160+1064709327
1928+1065034099+1064941620+1064295405+1063553849+1063002376+1062332459
1919+1061441233+1061122187+1062071669+1063432210+1063706382+1062787992
1911+1062050963+1062488986+1063540400+1064268108+1064640950+1064915522
1902+1064842884+1064227428+1063497324+1063112098+1063050846+1063190395
1894+1063456045+1063498256+1062939392+1061994704+1061520928+1062338651
1885+1064440947+1066689450+1067604844+1066959228+1065893033+1065361867
1877+1065366327+1065524119+1065641365+1065775788+1065929186+1065621658
1868+1064338415+1062818152+1062452767+1063417829+1064687955+1065252145
1860+1065023912+1064697542+1064868517+1065570392+1066441710+1066940053
1851+1066681061+1065937841+1065462667+1065625785+1066104421+1066455825
1843+1066625069+1066756096+1066838587+1066789119+1066591113+1066175794
1834+1065376714+1064203993+1062980805+1062197370+1062294442+1063313832
1826+1064705931+1065643695+1065763737+1065400682+1064996015+1064834295
1817+1064983099+1065123581+1064927905+1064509124+1064126029+1063841737
1809+1063677287+1063675223+1063738939+1063691135+1063447390+1063119954
1800+1062953707+1062987928+1063003175+1062887195+1062635060+1062210353
1792+1061841306+1061933518+1062359091+1062677671+1062592050+1061931188
1783+1060849147+1059836016+1059130279+1058582667+1058116881+1057673599
1775+1056865197+1055112441+1052158201+1048446226+1044365870+1039520722
1766+1033460508+1026033829+1016432882+1003533481+988198757+972179601+954877736
1756+935794419+917091866+900033946+882777554+863615873+844383419+828436302
1747+816225061+806190352+797387620+789685570+782779072+776555274+771760926
1737+768561941+765773949+762612515+760471337+760687452+763121311+767437423
1727+773373467+781185439+791389125+803366008+816046097+830266423+848712114
1717+871774655+894436722+913100459+928666612+942409035+954489115+964830819
1707+973937285+982284018+989435993+995074030+999902866+1004540621+1008403863
1697+1011306837+1014037505+1016678491+1018722331+1020180876+1021359389
1689+1022333306+1022922729+1022858680+1022018587+1020892405+1019833533
1680+1018510410+1016590674+1013641094+1009055604+1003088068+996855149+990299522
1670+982449068+973974835+966669463+960122824+952539950+943131283+933222275
1660+924615018+917511713+911411419+905714194+898857496+889712881+882536472
1650+879765857+879226434+880365666+884301679+890656771+898026924+906173056
1640+915078186+924558959+935528303+949718602+964941806+976307495+983860807
1630+989839794+995278094+1000042482+1003688011+1006070804+1007214630+1007029674
1621+1005268262+1001189437+993361753+981833412+970325645+961496946+954981466
1611+950655967+949314934+951223152+955457572+960621700+965450802+969223630
1601+972346648+976166347+981894132+989768821+998750651+1006918420+1012789350
1591+1016157777+1017626242+1017989497+1018023652+1018359210+1019462689
1582+1021520510+1024103706+1026481838+1028533135+1030951348+1033985749
1574+1036587654+1038058915+1038725836+1039515861+1040973674+1042468970
1565+1043382499+1043682903+1043313257+1042141202+1040994113+1042000187
1557+1044338306+1045840926+1046467300+1046557781+1046310707+1045869821
1548+1045222607+1044171859+1042435214+1039875454+1036569411+1032138451
1540+1026408335+1021002659+1015678143+1007336003+992789973+972677345+952023231
1530+932401890+910836709+885890918+860868960+839196521+819687631+801051458
1520+786214677+777605889+775126224+778932008+788889286+803757558+821577674
1510+840656597+863095026+895114762+930138938+952678568+964730285+972436995
1500+978069706+982143936+985043249+987327372+989392983+991308392+993287717
1490+996031634+1000014918+1004464255+1008200131+1010622472+1011742396
1482+1012136743+1012324429+1012026289+1010530260+1007391197+1002378137
1473+995547606+988167665+981794397+976202500+970200543+962984186+955033930
1463+947952995+942241789+936706284+929845192+921742937+916002568+914657008
1453+915342372+916114021+916274011+915684987+914549350+913049993+910807348
1443+906929259+900908793+893156343+884041422+873449314+863209409+857488548
1434+857444606+861413775+868112547+875981178+882734811+886984677+888668125
1424+888390291+886951986+884909811+883089210+883288414+886487731+891872701
1414+898650969+906577656+915447367+924726005+933774481+942557040+951402716
1404+959801314+966720862+971976536+975918807+978478167+979193225+977731418
1394+974228501+969310915+963551772+957414526+952054457+949273522+949590504
1384+951496193+953195486+953656878+952566116+950000164+945959289+940344689
1374+933747516+927838970+924116542+922985566+924133919+926774373+930018697
1364+933413689+936622794+938668165+938040658+933250704+922863726+905773649
1354+881979939+852810513+820402889+787706977+758843815+738411009+729938575
1344+734525264+750701612+775784689+806304335+836990229+862504338+880964943
1334+893428451+901298280+905454136+906672397+905960469+904332215+902463344
1324+900764383+899562101+898993384+898956366+899270352+899638467+899510636
1315+898304958+895824360+892421512+888809205+885740250+883754467+882960513
1305+882902323+882745796+881784396+879862263+877384395+875039152+873489794
1295+873084795+873653778+874494737+874550663+872850703+869122616+864012750
1285+858582706+853622710+849409329+845874254+842902970+840522041+838827608
1275+837825728+837397426+837288436+837049351+836125102+834159759+831271099
1265+827983831+824700092+821037386+815746758+807465805+795608365+780589091
1255+763531704+745980833+729650555+716125778+706611450+701764038+701594262
1245+705501979+712461807+721287110+730924076+740703655+750356600+759765001
1235+768781519+777295765+785285103+792712314+799483125+805527293+810837428
1225+815371786+818895076+820956626+821160624+819490758+816306154+812020602
1215+806800282+800498520+792870439+783935481+774147247+764198292+754740290
1205+746280772+739186254+733674518+729815204+727600789+727032338+728076629
1196+730537053+734029584+738011270+741685161+743970083+743761558+740300652
1186+733364860+723226620+710467102+695894241+680701396+666472348+654706254
1176+646356924+642002662+642317514+648053555+659444010+675704914+695168797
1166+715841553+735900185+754080559+769956903+783737009+795581600+805228420
1156+812387918+817379806+821303236+825660560+831780828+840342877+851154629
1146+863259410+875359330+886366025+895761710+903554174+909927574+914942565
1136+918567322+920924016+922363985+923233572+923641435+923480314+922534959
1126+920477138+916916431+911652967+904872569+897069852+888871057+880858683
1116+873328141+866202331+859362412+853051596+847904912+844750668+844376961
1106+847071210+852121621+857965054+863046690+866592218+868739521+870160648
1096+871489830+872910957+874230551+875328438+876374393+877550975+878756387
1086+879737893+880434176+881076263+882034800+883709459+886519756+890794056
1077+896487220+902982394+909301466+914639964+918791759+922122570+925166292
1067+928269535+931584101+935210588+939153925+943248861+947327753+951316230
1057+954968949+957746622+959204767+959310894+958152487+955455908+950581997
1047+943022493+932857556+920720551+907394046+893567801+879987165+867653086
1037+857636220+850570732+846367138+844469040+844330289+845639697+848251388
1027+852010368+856605246+861500062+865867772+868512154+868209220+864647514
1017+859111410+853991490+851489388+852589005+856908313+863284976+870456325
1007+877343516+883197001+887940550+892298274+897286300+903526344+911010747
997+919270994+927643627+935515386+942462365+948215516+952557327+955308036
987+956347932+955611702+953264129+950109553+947646533+947275288+949304747
977+952804069+956329223+958771671+959777945+959590126+958565010+956917848
967+954804100+952297536+949243828+945365738+940550817+934955591+928939586
958+922947150+917353255+912456575+908688274+906706885+907173537+910462469
948+916482136+924546642+933405234+941648770+948352802+953357806+956867314
938+958966548+959741726+959588595+959010357+958284247+957597152+957204670
928+957105933+956830097+955894396+954293240+952245605+949579252+945702694
918+940354942+934291732+929107564+926326696+926504395+928937189+932170195
908+934926030+936710145+937801973+938953655+940961276+944169248+948302268
898+952881833+957695556+962725527+967679998+971847173+974670785+976391251
888+977752058+979117258+980267010+980911893+980988060+980650105+980270871
878+980100429+979737175+978272572+974923452+969198463+960801197+950001363
868+938178277+927787704+921495196+920648712+923978657+927731578+927263262
858+919137836+903225140+883941088+868525936+862185825+864311956+869792800
849+873671022+873989602+871056068+865696398+858630710+850544633+842089842
839+833901366+826641534+820853695+816854166+814978171+815819462+819838033
829+826516765+834080863+840322304+843792531+844243537+842185050+838404232
819+833986188+830478211+829555693+832213058+838298438+846985656+857665315
809+870128357+883867451+897609075+909853538+919755090+927357071+933076933
799+936992706+938696394+938067556+935964661+933657701+931753810+930128818
789+928604960+927142154+925597790+923867004+922304596+921694001+922577370
779+924684194+927174778+929317887+930675032+930886820+929824819+927960143
769+926250463+925619761+926538217+928839052+931753011+934186471+935211786
759+934579087+932835518+930723302+928352027+925162364+920923749+916664496
749+914234698+914726383+917469102+920635862+922493214+921985484+918794223
739+913513116+907640855+902926601+900470304+900359450+902031913+904739545
730+907641853+909969120+911540981+912877420+914531507+916616692+919197757
720+922753405+927797491+934033739+940114525+944362460+945810685+944413327
710+940297085+933409029+924106688+913418707+902260944+890804909+879098736
700+868127727+859942115+856817233+860173610+869775423+883780233+899663101
690+915128121+928526996+939046067+946745453+952250532+956286613+959491256
680+962420063+965377033+968204107+970461599+971737917+971573400+969442675
670+965646078+963002695+964818369+968321153+969114574+967076127+964626156
660+963927809+965257990+967707961+970504875+973247527+975537709+976884667
650+977182941+977017093+977037266+977179412+976845785+975658550+973867577
640+972276540+971781126+972690395+974421647+975935385+976595981+976797249
630+977632415+979705750+982422769+984656825+985728413+985354505+983231636
620+979551753+975701893+973532685+973694938+975236573+976852843+977710246
611+977239866+975366535+973140402+972197777+973248593+975384511+976925081
601+976844787+975470464+973923703+972979547+972428607+971279321+968716033
591+965284754+962660613+961752143+961848416+962031309+962620199+964503784
581+967503364+970138292+970921393+969567177+967296570+966054207+966916071
571+969039939+970330705+969543742+967533058+965770647+964369494+962569999
561+960433947+958716011+957375112+955664499+953689835+952403397+951578817
551+948909268+941974874+930794341+917837017+906034505+897564534+893830255
541+895333607+901287760+909984632+919871869+929901984+939049063+946344715
531+951512837+955189126+958370866+961526507+964127812+965328697+964927958
521+963059554+959763764+955910242+953737439+954760890+957689630+960016830
511+961026366+962051549+964084736+966594961+969022628+971552628+973584017
501+973655723+972210161+971878199+973915181+976571014+977498192+976561626
492+975427521+975478054+977060436+979755218+982467044+984129919+985044381
482+986517439+988772268+990260240+989430068+986665378+983731378+981716500
472+980520143+980152894+981035730+982792815+984232850+984623269+983887372
462+982087544+980220738+980653634+984305088+987873918+987984306+985373414
452+981918300+977543333+971998307+967422404+966361469+968126343+969486550
442+968465496+965514718+961541754+957009860+953098614+951828754+953704149
432+956664581+958910422+961336757+965481895+970471053+973820372+974064850
422+970823722+963889393+956503926+956471569+963850445+970148744+970258733
412+965096602+958672668+953326048+948565388+944257199+941811622+942024941
402+943890150+945480654+944932043+942614497+943024091+948276769+954153757
392+957176773+957694291+955860907+949923665+940715400+934456116+936067792
382+941171799+942233266+936784181+925319556+908393929+889878596+877944524
##END=
