##TITLE=YCW-365
##JCAMP-DX=4.24
##DATA TYPE=INFRARED SPECTRUM
##DATE=4/3/2022
##SAMPLING PROCEDURE=Diamant-ATR
##ORIGIN=Angelika Moesle
##XUNITS=1/CM
##YUNITS=TRANSMITTANCE
##RESOLUTION=4
##FIRSTX=3997.453
##LASTX=373.96442
##DELTAX=-1.4165319
##MAXY=0.94738978
##MINY=0.13453588
##XFACTOR=1
##YFACTOR=8.8232549e-010
##NPOINTS=2559
##FIRSTY=0.90657061
##XYDATA=(X++(Y..Y))
3997+1027478660+1027087522+1027009767+1027369020+1028002947+1028532976
3989+1028677001+1028403948+1027890267+1027399216+1027153185+1027269242
3980+1027689158+1028077189+1028022470+1027553104+1027144538+1027060230
3972+1027136296+1027314774+1027724084+1028150079+1028158997+1027808932
3963+1027619983+1027857638+1028313493+1028716385+1028968834+1029038415
3955+1028887432+1028520005+1028018957+1027555536+1027336932+1027441843
3946+1027713816+1027973426+1028298496+1028878920+1029568782+1029929115
3938+1029798803+1029491027+1029361458+1029429485+1029506835+1029494202
3929+1029355919+1028985047+1028374899+1027814201+1027642546+1027868379
3921+1028307278+1028884392+1029476233+1029768742+1029620866+1029297890
3912+1029114413+1029083744+1028965592+1028585600+1028156902+1028183046
3904+1028842914+1029641267+1030130561+1030494475+1030927293+1031155356
3895+1030856429+1030072667+1029203044+1028636401+1028214999+1027585260
3887+1027139268+1027776303+1029432998+1030859672+1031294112+1030895881
3878+1030066520+1029175820+1028517303+1028158794+1028080431+1028600057
3870+1029999236+1031513797+1031986540+1031375987+1030591482+1030460292
3861+1031004237+1031589053+1031540279+1030591009+1029209935+1028750229
3853+1030227906+1032059702+1032562033+1032231627+1031877103+1031667145
3844+1031507312+1031396186+1031200482+1030605466+1029652008+1028941948
3836+1028935800+1029499539+1030386253+1031384094+1032036733+1031931687
3827+1031264996+1030628434+1030246349+1029864533+1029368281+1028966065
3819+1028761849+1028789073+1029238713+1029949989+1030284044+1029976470
3810+1029387467+1029146501+1029671464+1030490489+1030652213+1030198385
3802+1030061183+1030573378+1031038757+1031185755+1031401928+1031690451
3793+1031701327+1031519877+1031567368+1031938915+1032320933+1032463404
3785+1032381461+1032145090+1031783135+1031422532+1031302015+1031466577
3776+1031546966+1031097327+1030101107+1029072530+1028616000+1028815081
3768+1029284785+1029848590+1030469412+1030678289+1030014503+1028984169
3759+1028866085+1030171364+1031854202+1032869607+1033319314+1033733758
3751+1034064300+1033776317+1032950334+1032305396+1032354710+1032726257
3742+1032392270+1031324916+1030392400+1030206222+1030766447+1031599861
3734+1032284927+1032662756+1032435032+1031319377+1029746989+1028855411
3725+1029377401+1030648295+1031556221+1032038017+1032632289+1033335459
3717+1033686740+1033528867+1033184544+1032988232+1032833330+1032490899
3708+1032158060+1031900544+1031337414+1030420300+1029855751+1030269587
3700+1031247229+1031913650+1031880075+1031136441+1029829675+1028381925
3691+1027516355+1027937149+1029543044+1031080438+1031532172+1031007277
3683+1030070641+1029133869+1028341528+1027797988+1027846627+1028685513
3674+1029449684+1029178252+1028356254+1027817038+1027504060+1026930662
3666+1026214184+1025714013+1025430962+1025179256+1024946262+1024895799
3657+1025150140+1025554654+1025738671+1025630719+1025571204+1025872225
3649+1026481427+1027054893+1027307208+1027184124+1026861351+1026594715
3640+1026470416+1026344630+1026072388+1025734955+1025623761+1025975920
3632+1026786231+1028008081+1029479610+1030369837+1030027338+1029039631
3623+1028200475+1027683754+1027340512+1027259312+1027571344+1028001596
3615+1028310926+1028582425+1028810150+1028760295+1028293834+1027427522
3606+1026248231+1025110959+1024659833+1025335035+1026794067+1028005379
3598+1028233644+1027705574+1027175275+1027065702+1027062730+1026594580
3589+1025637880+1024930927+1025110418+1025712798+1025925863+1025614844
3581+1025046309+1024485003+1024197561+1024306120+1024549179+1024518307
3572+1024131020+1023672328+1023497836+1023766228+1024175403+1024089339
3564+1023326992+1022395489+1021899778+1021993543+1022210526+1021913829
3555+1021046165+1020259431+1020172894+1020684413+1021275916+1021681240
3547+1021859380+1021755415+1021471012+1021272066+1021166614+1020871200
3538+1020284899+1019704204+1019454322+1019437231+1019191537+1018430675
3530+1017424661+1016754390+1016713317+1017089188+1017415001+1017253411
3521+1016436616+1015231992+1014151533+1013526455+1013265224+1013026285
3513+1012677774+1012487407+1012661156+1012854495+1012545909+1011714386
3504+1010723098+1009808957+1009090385+1008814156+1009161587+1009892927
3496+1010446870+1010457138+1009995136+1009288521+1008482398+1007731806
3488+1007234743+1007067209+1007150706+1007342965+1007455307+1007353300
3479+1007114902+1006917847+1006823947+1006783685+1006671748+1006269463
3471+1005478811+1004566089+1003931824+1003703221+1003750982+1003961548
3462+1004227238+1004263176+1003773950+1002885750+1002169474+1002044094
3454+1002331604+1002611750+1002776582+1002913582+1002852040+1002235745
3445+1000993223+999451438+998064148+997172840+996853039+996934915+997320243
3435+998117448+999243304+1000119209+1000150960+999430226+998618902+998187231
3425+998095763+998175680+998400432+998686118+998821699+998739621+998550132
3415+998292818+997931945+997494803+997007063+996499597+996167974+996251133
3405+996738468+997382325+997864931+997916813+997575935+997278292+997342266
3395+997514731+997398808+997105691+997085628+997451568+997837504+997919515
3386+997794270+997760628+997932350+998175612+998300385+998266337+998258906
3376+998475620+998866758+999273771+999666057+999972887+1000003489+999800422
3366+999669164+999693146+999703144+999784074+1000257830+1001140424+1002074291
3356+1002765909+1003125431+1003073482+1002596551+1001967150+1001583781
3347+1001588442+1001902298+1002528254+1003437193+1004265608+1004565278
3339+1004314044+1003892642+1003660257+1003755643+1004141579+1004672486
3330+1005185019+1005536097+1005542109+1005086457+1004410106+1004076457
3322+1004448004+1005290065+1005984588+1006116116+1005866098+1005835294
3313+1006422473+1007421327+1008336144+1008952777+1009348576+1009489224
3305+1009202930+1008586634+1008141251+1008329929+1009098153+1009906843
3296+1010228332+1010008849+1009686076+1009751739+1010263393+1010849492
3288+1011155512+1011120789+1010843142+1010448288+1010140782+1010128488
3279+1010418835+1010812472+1011093632+1011222998+1011434510+1012048846
3271+1013009262+1013751681+1013787079+1013236784+1012576375+1012096607
3262+1011900497+1012134910+1012843957+1013786133+1014652649+1015303734
3254+1015685280+1015757495+1015595838+1015370613+1015198958+1015098843
3245+1015024534+1014931782+1014887939+1015037031+1015400404+1015838897
3237+1016211661+1016421078+1016414188+1016361968+1016678189+1017581589
3228+1018750611+1019664482+1020161477+1020384406+1020337591+1019883898
3220+1019139520+1018504782+1018254765+1018333938+1018539978+1018703932
3211+1018731426+1018650969+1018635229+1018894704+1019508770+1020282940
3203+1020778178+1020682251+1020223965+1019971245+1020169719+1020620372
3194+1021183367+1021870054+1022449938+1022567347+1022306385+1022135204
3186+1022324625+1022760281+1023212555+1023578833+1023948016+1024436432
3177+1024937345+1025241811+1025397050+1025615047+1025847635+1025768800
3169+1025205332+1024407519+1023828445+1023692121+1023881678+1024184388
3160+1024434743+1024493717+1024355434+1024136357+1023790615+1023152297
3152+1022332394+1021654354+1021278551+1021286387+1021804797+1022622673
3143+1023111967+1022937070+1022518775+1022551944+1023287675+1024397453
3135+1025384215+1025989837+1026166085+1025913028+1025454538+1025312202
3126+1025745359+1026282481+1026221547+1025471292+1024592752+1024148179
3118+1024252617+1024631730+1024882018+1024702122+1024063939+1023227147
3109+1022488106+1021876404+1021159386+1020129659+1018795129+1017311103
3101+1015778504+1014083979+1011979468+1009370329+1006455642+1003597904
3092+1001178456+999462449+998375167+997499126+996468454+995191480+993573224
3082+991308745+988182479+984501122+981099304+978756800+977510293+976721330
3072+975898859+975069904+974212508+972933170+971036455+968834802+966525400
3063+963789394+960389534+956729525+953459707+950815709+948642699+946897508
3053+945863526+945893520+947044573+948949191+950996889+952620821+953467678
3043+953446263+952745998+951733971+950736198+949925685+949385861+949132803
3033+949030864+948757270+947928855+946389096+944483532+942949380+942322141
3023+942477785+942975659+943780024+945315460+947768212+950657768+953263057
3013+955291164+957016697+958925571+961329616+964205054+967291800+970322814
3003+973165015+975803946+978286219+980644733+982779981+984427353+985306096
2993+985313527+984597049+983472004+982244277+981019928+979599132+977530492
2983+974410306+970305521+965820000+961581593+957747969+954108901+950465577
2973+946780437+943139477+939694829+936595653+933996039+932113038+931053723
2963+930599084+930387910+930254964+930129314+929701021+928478834+926209018
2953+923094845+919535355+915665658+911213104+905833709+899494235+892422950
2944+884754891+876335565+866897253+856363080+844904633+832735179+819997123
2934+806933592+794077046+782155313+771819344+763542759+757767294+754956168
2924+755424115+759226461+766191620+775847118+787323332+799535209+811484099
2914+822359150+831606824+839152474+845417300+850902620+855857641+860480904
2904+865156859+870088033+874822287+878606799+881254106+883342472+885593372
2894+888358223+891679923+895576507+900144376+905359749+910870875+916251554
2884+921450647+926643188+931649212+935889443+938899043+940591474+941160752
2874+941030981+940721718+940437991+939868173+938532089+936182087+932748248
2864+928129512+922259877+915254726+907302941+898505042+889012619+879340301
2854+870454716+863498002+859382205+858598308+861297902+867366416+876295640
2844+887079899+898451201+909367257+919339921+928373247+936659289+944292017
2834+951147062+957002645+961801481+965753527+969192163+972415638+975578383
2825+978533602+980872998+982382628+983394587+984484436+985926783+987596381
2815+989250846+990718660+991914367+992873904+993798786+994909983+996162434
2805+997232153+997896952+998293089+998666595+999037061+999254585+999255531
2795+999134879+999053004+999135352+999399691+999758133+1000152243+1000646671
2785+1001281139+1001879059+1002183255+1002170758+1002040716+1001913579
2776+1001760772+1001631879+1001690111+1001965393+1002287694+1002577771
2768+1003023222+1003797729+1004712140+1005341339+1005471380+1005259936
2759+1005010189+1004944932+1005145702+1005551161+1006035389+1006531033
2751+1007017827+1007454699+1007855159+1008339522+1008988243+1009714787
2742+1010358577+1010826321+1011127206+1011346689+1011576103+1011813285
2734+1011980144+1012062087+1012149569+1012289068+1012352704+1012174564
2725+1011815514+1011559214+1011585155+1011769375+1011876853+1011812880
2717+1011637307+1011428092+1011178547+1010805717+1010309465+1009891508
2708+1009782273+1009992501+1010401473+1010981222+1011716413+1012406680
2700+1012804843+1012913267+1012966365+1013152139+1013449174+1013691625
2691+1013751748+1013697772+1013747627+1013992916+1014213412+1014084249
2683+1013595023+1013161393+1013243404+1013910770+1014845853+1015666364
2674+1016130190+1016178762+1015991029+1015890374+1016023658+1016198825
2666+1016105195+1015602458+1014802348+1014016492+1013583606+1013609142
2657+1013881114+1014132010+1014352439+1014737834+1015350887+1016004337
2649+1016513897+1016872474+1017108846+1017208285+1017229295+1017231794
2640+1017101955+1016751282+1016398380+1016346701+1016618201+1017102563
2632+1017861938+1018966447+1020149453+1020923217+1021030965+1020667660
2623+1020285777+1020204104+1020353331+1020394471+1020110407+1019623545
2615+1019255443+1019282059+1019742440+1020350358+1020733322+1020851407
2606+1020987798+1021300033+1021637398+1021773992+1021584098+1021102370
2598+1020611320+1020493235+1020831478+1021324488+1021700156+1021995232
2589+1022295847+1022438318+1022256733+1021983545+1022064204+1022616053
2581+1023344961+1023943557+1024364689+1024756908+1025316526+1026179055
2572+1027298764+1028352944+1028904726+1028832037+1028469880+1028173521
2564+1028024429+1028100765+1028573913+1029322682+1029892433+1030015381
2555+1029852981+1029727128+1029862169+1030300122+1030865819+1031266887
2547+1031268576+1030765231+1029841768+1028891215+1028508251+1029045035
2538+1030204398+1031137792+1031081519+1030036323+1028772049+1028035778
2530+1027903034+1028064826+1028438670+1029126978+1029977686+1030569257
2521+1030575810+1030028014+1029322345+1028904996+1028830146+1028856357
2513+1028974306+1029391047+1030003695+1030419962+1030523590+1030594657
2504+1030904055+1031478264+1032143266+1032581219+1032506166+1031998295
2496+1031516229+1031420235+1031661538+1032056324+1032533593+1032960670
2487+1033167858+1033300669+1033686132+1034317965+1034959391+1035583725
2479+1036131791+1036128346+1035236430+1033993976+1033371939+1033719166
2470+1034596693+1035470302+1036080788+1036289665+1036067480+1035604329
2462+1035118751+1034672219+1034327558+1034182047+1034124761+1033927300
2453+1033653166+1033607837+1033851032+1034056126+1033872244+1033260137
2445+1032455230+1031687209+1031016329+1030445498+1030066452+1029971741
2436+1030127386+1030424894+1030782120+1031180013+1031628301+1032066795
2428+1032352886+1032474618+1032634384+1032942025+1033239735+1033426455
2419+1033661070+1034021403+1034310737+1034425511+1034562308+1034852723
2411+1035105713+1035121926+1035048224+1035237038+1035853739+1036731333
2402+1037540901+1038014860+1038053838+1037730727+1037227653+1036740385
2394+1036418828+1036333980+1036452605+1036691882+1037014520+1037355465
2385+1037484493+1037201982+1036731468+1036620004+1037079236+1037658174
2377+1037812062+1037629869+1037677090+1038262783+1039244276+1040451331
2368+1041920429+1043719527+1045641710+1046998398+1047049806+1045990154
2360+1044910032+1044324069+1043539564+1041952990+1040086201+1038830642
2351+1038320609+1038028100+1037554547+1036965340+1036588862+1036579607
2343+1036676952+1036581228+1036310607+1036050524+1035964797+1036131453
2334+1036458888+1036716471+1036685734+1036252037+1035393561+1034185762
2326+1032857447+1031808401+1031399023+1031540616+1031689843+1031520080
2317+1031283979+1031298165+1031463267+1031515824+1031400982+1031172312
2309+1030848323+1030570676+1030533994+1030581349+1030310593+1029761176
2300+1029558378+1030141099+1031174879+1031934524+1032051325+1031775772
2292+1031638840+1031930200+1032492858+1033011133+1033371060+1033673905
2283+1034074636+1034725384+1035672221+1036649660+1037217519+1037340130
2275+1037599470+1038527933+1039955552+1041311834+1042224895+1042497340
2266+1042031622+1041238808+1040988791+1041655819+1042571177+1042705879
2258+1041697635+1040159025+1039119233+1039103358+1039756538+1040436402
2249+1040973051+1041717429+1043038515+1044881727+1046769052+1048178499
2241+1048878089+1048961923+1048720890+1048405008+1048026637+1047590441
2232+1047393589+1047615504+1047855523+1047669142+1047148030+1046500930
2224+1045757903+1045368521+1046222607+1048450742+1050737919+1051359956
2215+1049858568+1047575174+1046419595+1047091419+1048692382+1049909031
2207+1050120205+1049619156+1049332660+1050041707+1051488376+1052682732
2198+1053133385+1053091636+1052891068+1052833039+1053130615+1053411437
2190+1053125143+1052491756+1051890458+1050909641+1049676172+1050036910
2181+1053338276+1057948028+1060768206+1060460430+1058168727+1055839937
2173+1054481831+1053859861+1053491421+1053431163+1053864792+1054339697
2164+1054039622+1053052050+1052957271+1055308084+1059152652+1061281414
2156+1059979716+1056831225+1054550938+1054564990+1056377667+1058478665
2147+1059672480+1059562502+1058303430+1056465690+1054878238+1054172974
2139+1054489937+1055542429+1056865407+1058046454+1058575875+1057667341
2130+1055009698+1051632807+1049125606+1048037446+1047782700+1047839040
2122+1048244837+1049085142+1050113990+1050879850+1051003136+1050435817
2113+1049502018+1048636313+1048156341+1048261996+1048983270+1049999283
2105+1050747579+1050928421+1050754807+1050548497+1050346038+1050122096
2096+1050046300+1050202823+1050406634+1050600108+1051037723+1051755080
2088+1052148785+1051541068+1050145267+1048994822+1048737846+1049006982
2079+1049271185+1049688264+1050574370+1051572886+1051989627+1051648344
2071+1050920787+1050125744+1049379947+1049044812+1049821886+1051998274
2062+1054816426+1057032333+1057978900+1057937692+1057764078+1058157243
2054+1059017476+1059717876+1060138400+1060825762+1061986341+1063175224
2045+1064145840+1064915010+1065135102+1064612571+1064050184+1064386603
2037+1065981148+1068691484+1071761949+1073741823+1073680957+1072110190
2028+1070218407+1068796868+1068233737+1068697699+1070077017+1071880642
2020+1073153968+1072919150+1071222598+1069343583+1068340270+1067824833
2011+1066694586+1064898527+1063863735+1064643713+1066186242+1066462200
2003+1064804627+1062110505+1059626948+1058337545+1058581887+1059752126
1994+1060875887+1061492993+1061731527+1061874471+1061852178+1060899329
1986+1058352947+1055046988+1052792169+1052237753+1052500201+1052998277
1977+1054261537+1056365980+1057947555+1057689026+1055881077+1054092854
1969+1053631190+1054347533+1054988959+1054845812+1054382796+1054001386
1960+1053432987+1052794263+1052840943+1053647944+1054273156+1054028881
1952+1053113456+1052049345+1051175601+1050499588+1049802160+1049117568
1943+1048763855+1048532482+1047582267+1045639616+1043508151+1042239216
1935+1042239148+1042997442+1043519973+1043181460+1042155922+1041017704
1926+1040194693+1039795179+1039564144+1039034790+1038051812+1036951762
1918+1035976755+1034857654+1033399298+1032099288+1031633773+1031990459
1909+1032530823+1032868661+1033201702+1033729772+1034229199+1034321208
1901+1033985802+1033656611+1033736393+1034201772+1034844144+1035631081
1892+1036606763+1037752953+1039155645+1040931505+1042889626+1044665689
1884+1046114993+1047242808+1047920983+1048034406+1047856469+1047908891
1875+1048399063+1049041502+1049491006+1049782029+1050233155+1050901872
1867+1051339149+1051243358+1050905453+1050662528+1050401905+1049889845
1858+1049298883+1049006847+1049062173+1049162829+1049004617+1048485059
1850+1047730683+1047030013+1046625905+1046498498+1046379603+1046056627
1841+1045590504+1045092631+1044597865+1044199837+1043975827+1043788770
1833+1043483088+1043201456+1043186661+1043350345+1043390945+1043171935
1824+1042713648+1042206655+1042043444+1042460253+1043195646+1043708449
1816+1043738510+1043524094+1043525039+1044063175+1045075134+1046153162
1807+1046931181+1047362514+1047659144+1048087841+1048715756+1049280508
1799+1049448717+1049201740+1048806481+1048568151+1048676913+1048987458
1790+1049037989+1048647662+1048044674+1047372782+1046572942+1045699131
1782+1044936649+1044286373+1043646637+1043118769+1042893342+1043050067
1773+1043620156+1044442356+1045001095+1044999541+1044690954+1044406417
1765+1044285563+1044394865+1044696629+1044956374+1045040952+1045085740
1756+1045177344+1045250167+1045310695+1045412702+1045383654+1044831264
1748+1043553682+1041650685+1039220632+1036245417+1032623305+1028302954
1740+1023712050+1019761828+1016976305+1015253947+1014420668+1014418844
1731+1015161195+1016578141+1018526805+1020737375+1023021377+1025211749
1723+1026979909+1028151228+1029054223+1030298298+1032049974+1033676607
1714+1034701740+1035253318+1035552718+1035730588+1035952570+1036419841
1706+1037132874+1037842192+1038490035+1039348039+1040376751+1040950690
1697+1040960418+1040931573+1041056683+1041152407+1041172876+1041112212
1689+1040855507+1040491120+1040426809+1040868477+1041274139+1041163756
1680+1040734315+1040283797+1039939001+1039682499+1039494563+1039475513
1672+1039755660+1040381615+1041174497+1041778227+1042139033+1042597320
1663+1043457215+1044582328+1045584357+1046285297+1046745813+1047264088
1655+1048372109+1050037045+1050918423+1050628076+1049916867+1049307394
1646+1049123107+1049394066+1049929499+1050596258+1051204920+1051583492
1638+1051879784+1052376509+1052894649+1053046645+1052858980+1052450751
1629+1051718263+1050296521+1047628609+1042705677+1033577370+1018434796
1621+996289706+963369748+912915600+849200326+796006997+770072599+770267155
1611+790888969+824083669+858830896+885373686+898411750+895677365+876048460
1601+839773971+789493843+730316713+669248206+614378254+572988574+549176520
1591+543298847+552908610+573834080+601911225+634604404+670708656+708381581
1581+744093142+774955269+801472456+825573641+845624623+858771922+866809973
1571+873326100+879891677+885818800+890771726+895687836+900930367+906052786
1561+911716314+920354110+931554569+940119339+945402740+949362690+952224143
1551+953407893+952580964+949476248+943543653+933859782+919795371+902305699
1541+885456980+877628887+882913639+895356821+910892019+929385881+948403828
1531+963225993+973070912+980422885+986891724+992447233+996875400+1000558851
1521+1003728081+1006023769+1007307026+1008029111+1008641083+1009216441
1513+1009651016+1009901709+1009939269+1009835776+1009890089+1009923326
1504+1009132201+1007346883+1004624455+1000694770+995496487+989893691+985192268
1494+981583734+977811449+972056859+962804321+949574742+932327117+910337671
1485+882101234+845065952+797310115+741815423+687009242+642318264+614938479
1475+607790790+616483440+629455638+637712024+642498430+650036379+665567187
1465+689088082+713663226+733008809+747033837+758231526+767114138+770753881
1455+767982004+761803513+755692440+753180038+757729464+770014908+785505588
1445+795913773+791882283+766337807+720763898+666124507+618142837+594814133
1435+605060999+640490319+689637634+743932566+793513713+831200149+857451443
1425+875756694+887607698+892638650+889982898+879065356+862525832+847048055
1415+838049047+837592449+845184306+857379228+868771405+874581727+871831737
1405+859466782+840009600+819803040+805593590+801934661+809672165+825756577
1395+845987929+866477810+884030712+897900366+909504932+920093959+929389529
1385+936453182+941335920+944885749+947686269+949894543+951627709+953122680
1375+954692433+956595632+958894023+961608682+964844926+968420560+971759351
1366+974535619+977005597+979512527+982031887+984330683+986327918+988151742
1356+989988536+991936592+993953553+995876613+997515339+998799879+999776981
1346+1000476300+1000930736+1001202911+1001193386+1000568984+999095495+996959977
1336+994617204+992421833+990447296+988499375+986167275+982853682+978077072
1326+972147787+966506417+963070349+963001444+965865127+969746916+972337546
1316+972261885+969549794+965230456+960719401+957208010+955263062+954824974
1306+955406681+956358991+957192202+957814104+958507209+959636104+961287530
1296+963163168+964790274+965785953+965956324+965166550+962981718+958402703
1286+950171176+937547489+920995671+902478165+885205612+872709264+867621230
1276+870824169+881228030+896137746+912151970+926394994+937507227+945701599
1266+951903059+956829775+960694541+963380354+964684822+964519653+963021034
1256+960438444+956895843+952230426+945958980+937292000+925116872+907944367
1247+884081851+852435083+813943066+772839815+736489395+713224800+708875131
1237+723673382+751732355+784037639+813011698+835316486+851450821+863523132
1227+873289418+881329362+887247635+890457600+890890824+889240006+886885073
1217+885560135+886591550+889937299+893722419+894736743+889680121+876358736
1207+854169263+823912893+787407639+747134830+705904510+666538681+631556771
1197+602877112+581625829+568053211+561500740+560612067+563860200+569864335
1187+577308113+585180388+593472307+603322226+616221736+633111595+653958431
1177+677731911+702684142+726810862+748316282+766030368+779567656+788985701
1167+794357936+795824061+793834325+789127768+782786471+776590280+772906356
1157+773681741+779487672+789619966+802890280+818096828+833946490+848955510
1147+861659654+870923068+876047717+876758791+873463100+867749582+862318306
1137+859831844+861499956+866555565+872711291+876898560+875800334+866006959
1128+843924086+806244676+751726545+683483259+609857268+542774830+494008081
1118+470891665+473798583+497038825+532393194+572562848+612620363+649849660
1108+683144273+712317549+737410832+758337585+774757809+785877811+790770074
1098+789859243+786301374+784970560+789242407+798784752+810587657+821726912
1088+831012349+838788155+845948748+853078400+860066054+866257449+870740537
1078+872299887+869359395+860649451+846440271+829164948+812740401+801202983
1068+797461503+802165223+812971031+825443059+835790918+843192881+849441629
1058+856597763+865215563+874489651+883439614+891570012+898614277+904225315
1048+908213097+910846420+912627077+913847306+914554529+914852172+914876018
1038+914075773+910220059+899106881+875727579+836674863+782642378+719429097
1028+656291950+602264194+563036378+540438541+533690670+540183660+555189640
1018+572078553+584330625+588387110+585196938+579472815+577415997+584208555
1009+602121655+629698833+662263119+693511250+717476245+730414667+732471349
999+727857206+721885294+716692686+710901887+704421091+701819990+708751304
989+725752560+747366067+766735295+779518950+784402295+782576040+777629936
979+774479081+776856105+785368048+797839806+811259617+823415425+833256966
969+840480316+845206059+847943010+849453586+850361377+850894446+851103593
959+851202222+851489800+852010168+852469806+852454809+851608425+849695294
949+846732307+843229293+840376756+839887124+843258138+850781361+861188329
939+872382843+882606200+891052143+897709796+902903890+906971251+910141021
929+912471298+913810354+913950528+912892970+910767990+907324221+901621850
919+892457402+879308483+863217180+847017858+834465103+828562907+830087601
909+837084645+845610505+851604777+852964166+850285784+845838094+842119650
899+841154641+844159039+851100959+860624726+870719460+879599573+886112255
890+889625875+889823065+886674845+880494664+871974547+862283043+853090560
880+846174513+842725610+842964075+846365016+852185336+859823400+868809775
870+878573292+888229128+896519831+902069598+904055078+902860993+900034465
860+897481531+896464775+896899755+897274545+895380262+889527178+879498850
850+866797543+854168587+844519845+839625015+839323116+841592323+843255774
840+840843082+831348025+813024061+786275569+754035272+721021076+692354657
830+672415409+663940891+667339129+680908099+701992051+727952525+756361225
820+784998933+812050877+836165775+856312414+871863488+882916949+890285000
810+894861380+896937721+896273394+892728496+886476844+877566197+865625549
800+850182832+831131446+808778290+783523215+755691224+725700273+694296903
790+662884751+633807739+609643256+591474667+578119167+567716589+560245384
781+558415345+566201724+586375689+618776967+660174145+705400557+748872928
771+785935232+813704060+831060785+838105995+835794836+825901886+811025340
761+794219991+778034450+763600585+750747349+738975722+728136745+718247510
751+709220940+701545518+697389121+700006908+710677270+725940766+738733338
741+743121242+738409213+729103037+721303046+718778012+720895493+722487404
731+715356738+691485304+646898900+583909764+510272829+435699763+368609456
721+315875799+283853937+277062967+295694099+335659132+390215633+450763536
711+508239081+556137355+592297070+616928959+628973573+625322480+603758760
701+565682132+515888494+460886609+408115831+366097628+343388766+345688069
691+373083627+419259645+473619328+525794111+569867172+605459568+635160238
681+661108891+683789279+702912474+718564473+731206670+740041049+742242499
671+735448726+721242113+709088804+711832579+725041689+734567618+733561333
662+720350399+696913474+668432626+640813768+618898632+605764709+602691946
652+609409452+624405028+645469389+670192408+696395875+722327436+746555216
642+768071243+786248750+800272832+808828753+810505917+804770714+793157906
632+779280011+766798660+757252195+749835978+742112390+730653538+713868725
622+696436137+688878192+700039739+729689542+768652613+805750991+834092948
612+852044081+861400382+865616158+867994939+870002847+871294345+871648328
602+872163698+874210450+878291592+884307278+891725927+899224019+905283076
592+909303419+911437045+911561412+909030568+903334412+894727150+883919113
582+871088981+856093877+840242526+827016663+820144864+820715560+826106169
572+832198057+836895427+841328525+847736025+856715645+866981561+877087846
562+886430029+894871378+902106009+907419675+909703136+907183168+896651224
552+873152554+831221023+767130013+680929852+577958186+468997416+366946208
543+281310511+216139937+172728551+152478740+156879480+185147008+232124944
533+289169528+347249749+399930410+444989794+483509171+516831447+544595377
523+565803696+580185578+587710489+588064539+581640826+570813131+559204038
513+549238535+540682850+531791726+522094041+514043762+511639447+517427645
503+530789799+548455449+566927828+584571523+600457867+612062164+615687181
493+609213072+593955724+573969999+553655217+535856554+521394654+509608604
483+500000461+493931204+494183654+502693942+518782509+539613504+562232789
473+583957389+601191436+611164776+615073452+616721298+618436765+619439537
463+617612876+611625629+601754364+590871207+584939152+588483780+599071929
453+610317716+617780275+620855199+621199657+620417381+619544786+619431971
443+620395967+621858917+623094210+624223849+625814138+627817723+630095645
433+633978718+641287322+651484400+661878669+670885918+678991727+686600202
424+693346013+699207473+704075012+706947477+708245730+710904792+716033156
414+721717085+725881588+728821270+732612537+738014630+743319378+746440375
404+747429501+748699449+752862939+759675155+764661318+763882961+759259158
394+753900366+748260145+742352477+737146358+733840196+733680499+737702868
384+744309383+748393835+746029241+738060837+727456543+714423006+696671968
374+677811220
##END=
