##TITLE=X9668
##JCAMP-DX=4.24
##DATA TYPE=INFRARED SPECTRUM
##DATE=19/11/2018
##SAMPLING PROCEDURE=Instrument type and / or accessory
##ORIGIN=Default
##XUNITS=1/CM
##YUNITS=TRANSMITTANCE
##RESOLUTION=4
##FIRSTX=3996.5625
##LASTX=399.65625
##DELTAX=-2.0390625
##MAXY=1.0962015
##MINY=0.35133189
##XFACTOR=1
##YFACTOR=1.0209172e-009
##NPOINTS=1765
##FIRSTY=1.0239036
##XYDATA=(X++(Y..Y))
3997+1002925181+1003298718+1003407778+1003273497+1003050589+1003115161
3984+1003548015+1004032948+1004421548+1004461482+1004303147+1004437896
3972+1004549641+1003918984+1002570560+1001730189+1002639453+1004305482
3960+1004931703+1005166871+1005682280+1005715675+1005657058+1006148530
3948+1006514244+1006583486+1006624705+1005651687+1004179140+1003843552
3935+1004455060+1005499540+1006638717+1006977691+1006601819+1006377043
3923+1006166979+1006536780+1008062806+1008572960+1006841424+1005145036
3911+1004526522+1005022781+1008291669+1013664228+1016674127+1015524441
3899+1011847102+1007834877+1007063865+1009976965+1011243418+1009930141
3886+1010779036+1012057750+1012260340+1012342194+1010194852+1009099345
3874+1011155142+1014038116+1016367848+1015629998+1014397524+1015001559
3862+1013381886+1010698817+1012103406+1019021491+1027680570+1024766770
3850+1014135849+1008477445+1008491457+1011789887+1016370183+1020931914
3838+1022294700+1019008297+1015450761+1012933384+1011040360+1010583919
3825+1011333679+1014742453+1019985869+1020540745+1018778383+1015951340
3813+1009958749+1006460414+1008759670+1013069184+1014111445+1015250389
3801+1016053161+1013356781+1010972519+1008249633+1005173643+1003989861
3789+1004059571+1004578249+1005365958+1006430405+1008563619+1008982928
3776+1006124943+1004488222+1006465552+1010020635+1011176160+1010440879
3764+1009455367+1009221366+1011222517+1012600949+1012724255+1016779568
3752+1025410973+1028860850+1025025993+1023989220+1022364760+1015947370
3740+1013399051+1017917811+1024825621+1025116020+1017940230+1011165301
3727+1008601334+1008719152+1009574002+1009598056+1007814443+1006120623
3715+1007432498+1012456158+1016573007+1013940499+1008728844+1006645490
3703+1007713556+1007371312+1004655199+1003067520+1004048478+1008597247
3691+1014934418+1016028640+1009924536+1004108146+1002492093+1005351479
3678+1011734773+1019434496+1020991932+1017831053+1017223165+1013030184
3666+1005474552+1001372532+1000522353+1001161651+1003925990+1006783975
3654+1007482007+1011687832+1020587685+1022013642+1012759285+1004917340
3642+1002463718+1002456479+1001698545+1000941312+1002185463+1006548106
3630+1012867645+1012171831+1004451674+1000416212+1002369488+1006440564
3617+1006985164+1006109997+1006722556+1006436594+1004514144+1001412817
3605+997936201+996441468+996924649+997185507+996910637+996571663+995493088
3591+995190545+997342908+998418798+995511420+992189870+990603826+989993953
3577+989045573+987894252+987356307+988197378+990978414+992674103+990089702
3562+986689218+984807403+983754633+983534644+983925113+983480581+982309176
3548+982046801+981965882+980544946+978509933+976764094+975765329+975680089
3534+975930846+976377012+976986184+976643649+975000564+973157867+971696121
3519+970416940+969327155+968495483+967882691+967646938+967119619+966290108
3505+966662185+967492339+966340084+963735833+962061338+961676299+961398978
3491+960787587+959939334+959017576+958650228+958485878+957330879+955619194
3477+954541961+953982473+953078698+951575616+950117257+949568511+949860837
3462+949808467+948891497+948015745+947443938+946480495+945153148+944082804
3448+943551223+943138569+942448477+941467694+940421580+939561008+938522776
3434+937247506+936381797+936031847+935672438+935279401+935134085+934664507
3420+933459006+932370681+931437538+930035636+928715528+927807841+926850878
3405+925593241+924154323+922816700+921754005+920680976+919471096+918553426
3391+917806819+917129688+916713472+916029569+914898682+913958534+913192777
3377+912084776+910791058+909724568+909027294+908569160+907746596+906401091
3362+905301673+904754095+904359831+904029440+903762919+903524832+903595301
3348+903729232+903473162+903196834+903282716+903604408+903942390+904225024
3334+904640597+905302257+906084770+907037237+908096020+908790491+908766145
3320+908546565+909358854+911121041+912603980+913533210+914132107+914608750
3305+915238765+915712372+915869715+916196604+916652170+916989801+917664013
3291+918582209+919124357+919540456+920137952+920476985+920285662+920241466
3277+920938797+921693345+921776424+921533900+921419935+921585335+921932425
3263+922046973+922079960+922408308+922753179+922750610+922572190+922705305
3248+923141312+923506967+923969364+924477417+924157359+923397499+923657480
3234+924655253+925018981+924791811+924933975+925269855+925450610+926002333
3220+926709765+926958887+927262832+928282323+929498625+930240269+930904323
3205+931927317+933071398+934039512+934693407+935281853+936187030+937165186
3191+938023422+939302545+940819229+941701461+942287164+943180664+944014496
3177+944570948+945186134+946203932+947627846+948786640+949340874+949930546
3163+950930830+952105621+953154129+954066020+955275374+956738813+957610594
3148+958149473+958834661+959188523+959739429+960765226+961759787+963024197
3134+964462064+964900699+964508712+965225019+966932851+967957480+968259614
3120+968392086+968641967+968976387+968933767+969004820+969814189+970533590
3105+970733436+971328305+972367180+972958837+973133637+973311648+973590079
3091+973635618+973294834+973335761+973498767+973134046+973065854+973358122
3077+973286310+973096681+973175031+973527959+973888710+974222722+974949887
3063+976034301+977085962+977899418+978245398+978179600+978253222+978424986
3048+978317618+978037903+977656426+977240795+976921671+976889852+976981280
3034+976753877+976330363+975823537+975273040+974878776+974369731+973763011
3020+973496140+973032050+972057047+971332567+970779793+969439660+967329391
3006+965384522+963838296+962407026+960883394+959033573+956637226+953376395
2991+949220896+944410686+939121614+933344399+927190027+920565319+912452124
2977+902744712+892422056+880937628+868322896+856530320+845158280+831970048
2963+816514087+799368802+780928164+762802154+747495772+735245353+724952063
2948+716711710+710697633+705486445+698027204+686128020+670883932+655555364
2934+642276405+630431926+618929048+610316793+610859583+624517218+649356738
2920+679960395+709748844+733896287+751892569+766091126+778564394+789181128
2906+796818789+801428978+803968073+804905945+804454407+803988858+804344179
2891+804700552+804189755+802681828+801186628+801826277+806377557+814207475
2877+822089354+826520131+825444825+818078296+804351536+785362619+762978530
2863+738659090+714142255+692122480+676760750+673022284+682787671+702515371
2849+726289102+751339503+778632236+807681201+835016087+858057747+876543399
2834+891198047+903170736+913209357+921448134+928219502+934090715+939256071
2820+943913259+948630172+953238026+956966800+959639009+961663279+963361186
2806+964569606+965254386+965976413+967307555+969219496+971095239+972597035
2791+974022058+975667478+977338879+978608018+979645141+980744267+981673498
2777+982219499+982432365+982683998+983212251+983906313+984807403+985805760
2763+986702646+987482298+988002027+988500505+989085040+989161172+988871940
2749+988753305+988745015+988686515+988353029+987857120+987427768+987019201
2734+987166677+988237546+989346131+989759135+989934986+990316930+990709500
2720+990747450+990168987+989143774+988138294+987185360+986225770+985889949
2706+986486160+987748994+989230531+990192924+990694904+991322877+991909163
2692+991962058+991728525+991605452+991407883+991167810+991122621+991285511
2677+991469886+991456808+991180187+990990675+991271849+991560147+991520563
2663+991417458+991295320+991229230+991428551+991688007+991483431+990914776
2649+990810153+991434622+992093071+992548461+993079284+993487033+993783621
2634+994038990+994078107+994286536+994873990+995436222+995667888+995324827
2620+994780693+994929454+995495423+995676412+995692175+996089066+996890553
2606+997637161+998028330+998187366+997888910+996944266+996467040+997231396
2592+997763152+997234549+996981048+997520160+998225899+998497032+997732326
2577+996810101+996995060+997369765+997115446+996791535+996863230+997588819
2563+998564290+998930587+998676736+998678371+999555523+1000568125+1000463502
2549+999439224+998688179+998837174+999237450+999122318+999277618+999963974
2535+1000011381+999521544+999356319+999480559+999926141+1000602688+1001172627
2520+1001389113+1000906399+1000499116+1001282038+1002832468+1003676342
2508+1003115277+1002136538+1001627434+1001455553+1001428347+1001285658
2496+1001163987+1001426829+1001717578+1001888175+1002038921+1002431724
2484+1003214529+1003146454+1001664683+1000276792+999725186+999694242+1000423101
2469+1001506347+1002014983+1002042774+1002060406+1002074184+1002345784
2457+1002758088+1002293239+1001244789+1000633632+1000523053+1000763009
2445+1000989537+1001085403+1001480425+1001919468+1002054684+1002144478
2433+1001853612+1001147289+1001042316+1001216765+1000828632+1000817890
2420+1001715360+1002490458+1002457179+1002146696+1002097538+1002136771
2408+1001931729+1001398922+1001011022+1001014875+1001106304+1001005300
2396+1001138882+1001866573+1002278409+1001994900+1001459056+1000350472
2384+998591263+996855757+994822379+991991834+989530622+988284136+987560415
2369+986853976+985968416+984908056+984041996+982827738+981619435+981903645
2355+983653046+985880841+988318582+990508661+990892824+989115049+987737083
2341+987848946+988286938+989063672+989508203+988637122+987654646+988257630
2327+989837252+990708683+990385706+990102079+990938947+991671893+991371101
2312+991480162+992811187+994289455+995438558+996611247+997512804+997899186
2298+998491661+999918902+1001124286+1001249694+1001716644+1003447479+1004868065
2284+1004853352+1004482384+1003732624+1002404868+1001473652+1001156046
2272+1002187215+1004120406+1005154494+1004972921+1004452375+1004396443
2259+1004415009+1003662213+1002664324+1002626375+1003215113+1003499557
2247+1003367494+1003362123+1004486354+1006082090+1006182159+1005883703
2235+1007275330+1008636014+1007773341+1006276623+1006359411+1007089437
2223+1007600526+1007522292+1005698627+1004316925+1005009586+1005266707
2210+1005677726+1008541666+1011060094+1010912034+1010796668+1011053905
2198+1009359385+1007777077+1008366049+1009034423+1009260250+1009932943
2186+1009109153+1006133584+1004628459+1007808254+1012620449+1013169837
2174+1010075983+1008681436+1011021794+1012360877+1010903860+1010311735
2161+1009137528+1008051946+1009663562+1009711437+1007010269+1005399587
2149+1006725825+1009256747+1010737000+1010533709+1008897455+1006921760
2137+1005734591+1005665465+1007236914+1008334756+1007047284+1005327542
2125+1004444551+1003909759+1003406377+1003105352+1003532369+1004521734
2112+1005157530+1005126119+1005078128+1005408812+1005523127+1005261919
2100+1005181350+1005605214+1006710178+1007949425+1008502083+1007546579
2088+1005521842+1005053841+1006626807+1008182141+1009199064+1009587314
2076+1009110555+1008599349+1007985623+1006686008+1005149239+1004442566
2064+1005193844+1007031521+1008658317+1009423606+1009991210+1009350978
2051+1007916964+1008178405+1009301702+1009785584+1008469972+1004700971
2039+1003039963+1005511216+1006341662+1004962529+1006295656+1009208639
2027+1011417984+1012483365+1010216103+1004541935+1000598018+1001050139
2015+1001056094+999054126+999171360+1001940253+1006006425+1009236663+1009290492
2000+1007373297+1005578241+1005235647+1006634046+1008972186+1010751829
1988+1010679317+1008473825+1005600893+1005485061+1009079728+1012457910
1976+1012094882+1011490263+1013555518+1014150679+1011209205+1008140923
1964+1007345857+1008297741+1008985614+1008035132+1007588148+1009043881
1951+1009289558+1007093991+1005718478+1006964964+1008114884+1006336758
1939+1004084676+1003862118+1004516947+1004948634+1005107437+1004141658
1927+1002756103+1003307242+1004451090+1004413375+1004603588+1005038661
1915+1005190224+1006044724+1006929583+1006330920+1005096110+1005027685
1902+1006132533+1006935305+1007039344+1006961461+1006968817+1007775092
1890+1009235612+1009059177+1007424208+1006441381+1005797529+1005376584
1878+1005711238+1006683672+1008079854+1010616497+1014277137+1014714663
1866+1010489688+1007160198+1006465202+1006159740+1005698394+1005540291
1854+1005477938+1005191859+1005620160+1008111381+1011557754+1011487811
1841+1008137069+1006595280+1007016808+1007175027+1007796344+1010536278
1829+1011999366+1010505568+1008765392+1006107078+1003382206+1002406736
1817+1001840300+1000960462+1001312864+1001954849+1000531344+997956401+996521337
1803+996490393+995821553+992832205+989134432+987364013+985452540+979577066
1788+974316135+973870261+976267134+979013140+980472784+979657168+979385568
1774+981747995+981967750+975125563+966140529+958754909+953502736+947380650
1760+937865145+925703002+909334975+889785694+865388662+830927904+790847625
1745+752795352+720282090+697833955+689511164+694986654+711036374+727662514
1731+729374024+724574439+720818925+715506617+705803292+696598970+688433348
1717+666664329+631983874+611129723+618690669+650789000+694761761+737101654
1703+771236807+810244642+848770287+873134274+890620927+902724220+915733098
1688+931244640+949085505+968794640+974552588+971580697+973337220+980020780
1674+985622669+989004004+992301383+990576503+987361678+989454140+992360817
1660+991808510+993308847+1002058537+1015561222+1014780636+1009094090+1009200115
1646+1002521401+990866668+986365190+990218379+1000185247+1006866529+1001586799
1631+996901997+998363801+1001837498+1004964047+1006684723+1005409629+1006439396
1617+1009887521+1007258749+1002360380+1001500859+1002507389+1002413158
1605+1002007627+1002297676+1002488473+1002426703+1002756219+1002978894
1593+1002425886+1001474353+1000762893+1000670063+1001363541+1002919109
1580+1006091664+1012358775+1017942098+1016127191+1015162113+1018660915
1568+1018669322+1016152063+1016964526+1023789782+1039412720+1044770800
1556+1031615730+1022393718+1018700733+1017532364+1017805832+1021871536
1544+1031426217+1043536224+1043354885+1029414091+1022759782+1022297969
1531+1019155656+1017128000+1019812353+1024094660+1029013230+1031223043
1519+1028216180+1024293865+1019236459+1015482638+1017402169+1026350246
1507+1034017274+1023450575+1011405724+1008586155+1010728593+1010093031
1495+1004817621+1002435928+1004219658+1002093568+992951074+983344782+974808191
1480+963891892+947921923+922456825+882144938+833799551+804817377+798435193
1466+794884546+785523465+785123422+803274245+829719542+836763210+823303788
1452+809803205+803081346+805960583+815532312+827632160+841289210+856429083
1438+874833874+893351929+906319821+917224094+925893040+930429257+933990879
1423+937756552+941859388+945632359+943525593+937367893+931612163+925558211
1409+919029718+913986733+911484419+912552252+918898705+928583990+935613413
1395+934863594+924050867+906929578+885921645+861589419+840998928+828539905
1380+821705658+816844829+813630238+816168574+825870615+837842486+845776093
1366+846099129+840848883+831660499+825680810+834307779+854026605+871656006
1352+882600796+889742549+895517545+901810636+908533896+913904996+915817929
1338+914519890+915138930+920360451+927101868+932096162+935600277+940112089
1323+947117867+955334049+961748928+964222283+963241617+960145778+956339003
1309+953332665+950973450+948235384+944889313+941810872+940270834+939544135
1295+938056701+936657017+937739854+942276830+947992450+951682341+952095287
1281+949144997+943657306+937418395+931203479+923484957+912588216+899327998
1266+883734194+860765921+825733589+782426399+740697430+707563085+684225654
1252+670624009+671309314+693501963+736402162+787561630+832960056+865699320
1238+885238734+894633211+898585886+901479135+906056162+912919367+921068642
1223+928186457+929891370+923907653+916575220+914454034+914092115+911375359
1209+909198475+910410164+912512785+912143393+911295899+914656332+922848753
1195+932680755+941140688+946698207+949430201+950754337+951373551+949961723
1181+945060727+938090271+933099014+932327477+934151142+936273788+938438412
1166+942210681+948449417+955239935+960165044+962313963+960846495+954245957
1152+941950058+926610397+914071389+909827614+913617341+918830572+918671477
1138+909648552+890991604+867448779+851622259+853931207+869844427+885303131
1124+890846054+885576658+873364246+859906400+851135517+849767009+852067491
1109+849680310+836367079+812527842+785176959+764629263+755874027+754051063
1095+751129731+742777106+728226264+708421847+686889982+670217019+665933777
1081+677692724+698956143+715690408+717648180+704497138+685727042+675249845
1066+679392032+690639541+697925383+698278661+697079641+702428789+715616670
1052+729105810+735915011+735815934+733404056+731514126+727612537+717208961
1038+703431699+699656919+716059976+749701439+788166833+817220585+830630032
1024+837515773+850332978+865896948+872043438+865945990+852958948+837052967
1009+822595363+817198691+825554644+844095351+864622146+881573189+892164351
995+895115458+894607931+896623210+900592291+901516909+896940116+890044391
981+888324123+895919690+908567291+920090837+927054695+926608412+918993695
967+910660045+909450282+917074632+927562514+932734409+927286652+911479106
952+893446743+883238869+882656319+884486989+879803821+867499690+858115722
938+865081215+888967742+916794333+939436827+956922545+969359091+975792068
924+977017770+972638021+961657208+946378908+928679972+908345609+889099046
909+875352260+866312113+864541577+874168712+887725051+894341936+891202601
895+880216359+865047236+848723580+831839911+814577100+796120991+773293539
881+746921979+721774312+694635302+656413309+607108098+561046962+536689573
867+539514221+559099291+581513272+596381545+599199129+594899015+593671912
852+599578972+607479358+609067271+597479737+569626990+526894118+474338498
838+418702772+369991701+344133565+354538104+402371090+475131754+551748935
824+614555663+656083501+674049832+672528010+669740260+684866004+716469535
810+746371482+759867686+760711736+762117608+763758183+759548563+755020286
795+755742722+758837628+761622809+762148785+754135543+730689227+689104115
781+630642340+560744186+490050091+433872888+408485352+421280284+463984811
767+521861876+585884030+650691208+707552927+746904756+767137824+780092288
752+800442940+828802981+855495299+874262008+885658862+892216605+895943978
738+898872315+901112604+901519186+901023744+901487659+903163847+904859535
724+905293149+904326962+904632949+908085278+911310378+912617700+915605647
710+921035831+924856442+924068091+917695715+907162761+897725723+893693180
695+893314096+893564211+893896471+893105843+889998735+884486230+876399426
681+866921811+857125714+842923129+817233429+780233168+744923982+728084217
667+744142928+774228666+808531205+845109179+873758101+890146737+894530690
653+888436803+879878961+880337388+891251818+905160502+916749787+925249304
638+931715268+937001012+939774633+939965605+938834251+934058837+924678256
624+916225445+913527956+914816244+916543927+918303720+920653828+923234550
610+926136090+929746462+934415327+938283462+940334005+942099111+942991501
595+941361144+936061214+927710691+920213967+917991369+921511831+928186749
581+935508439+941131405+943220131+941658724+939804992+941180214+945263376
567+949857917+954201060+958439347+961920984+964069903+966511439+967856068
553+963911100+957552970+954778005+956064718+957756903+958883820+961309126
538+962055499+959400280+959855028+966544484+975137707+982342572+987597313
524+991559913+996062443+1001509733+1007110338+1012338691+1015386072+1016998973
510+1019390708+1020581263+1018911380+1015881747+1011458269+1006324264
498+1006614780+1013582024+1020417089+1022930261+1022402592+1024811025
485+1029635831+1029224111+1027869616+1031921075+1036813723+1038378749
473+1035412754+1027671696+1020777314+1020694994+1022505347+1016789376
461+1010807761+1018331866+1031594946+1034227571+1029718736+1024229877
449+1017018823+1011444257+1016153464+1031585721+1047352632+1057143999
436+1060869212+1059613735+1058310617+1058978290+1059546711+1061460636
424+1065841261+1070898901+1073741823+1060943125+1031837003+1004273955+989634194
410+990204600+994380417+995305444+996088132+993472204+977488807
##END=
