##TITLE=NiW- X13506
##JCAMP-DX=4.24
##DATA TYPE=INFRARED SPECTRUM
##DATE=26/9/2019
##SAMPLING PROCEDURE=Diamant-ATR
##ORIGIN=Marie
##XUNITS=1/CM
##YUNITS=TRANSMITTANCE
##RESOLUTION=4
##FIRSTX=3997.453
##LASTX=373.96442
##DELTAX=-1.4165319
##MAXY=1.0003817
##MINY=0.64750439
##XFACTOR=1
##YFACTOR=9.3167807e-010
##NPOINTS=2559
##FIRSTY=0.99971431
##XYDATA=(X++(Y..Y))
3997+1073025488+1073477348+1073741823+1073558981+1073235520+1073029135
3989+1072891907+1072777071+1072696334+1072574908+1072361998+1072158235
3980+1072079162+1072077498+1071969571+1071675924+1071395838+1071380996
3972+1071592052+1071793063+1071851345+1071788968+1071732414+1071845203
3963+1072152670+1072516371+1072854354+1073163100+1073332123+1073200462
3955+1072780782+1072273711+1071921334+1071868938+1072069245+1072299046
3946+1072259637+1071664344+1070478301+1069181708+1068487381+1068662354
3938+1069462944+1070490136+1071352719+1071779500+1071729791+1071345810
3929+1070850511+1070531656+1070600174+1070893054+1070890943+1070325783
3921+1069568120+1069201156+1069422640+1069863431+1070028488+1069892092
3912+1069856458+1070226749+1070888832+1071561343+1072176532+1072710601
3904+1072805796+1072132581+1071051330+1070231099+1069928367+1069981530
3895+1070123684+1070115367+1069828053+1069360711+1068925549+1068603752
3887+1068424237+1068423341+1068477081+1068439655+1068439143+1068607335
3878+1068689799+1068425196+1067948067+1067584621+1067569971+1067960222
3870+1068608295+1069146073+1069378688+1069439401+1069370883+1069055228
3861+1068610790+1068382653+1068615204+1069460513+1071040326+1072914747
3853+1073332123+1071622632+1069784869+1069088559+1069192711+1069127904
3844+1068288864+1067184006+1066932198+1067881148+1069252081+1070029704
3836+1069939754+1069374978+1068728057+1068222842+1067950498+1067886650
3827+1067975064+1068046909+1067756012+1066950111+1066182021+1066420202
3819+1067568755+1068632733+1069137628+1069253232+1069265644+1069145242
3810+1068698308+1067974233+1067498190+1067808728+1068603496+1069206722
3802+1069403575+1069325717+1069068855+1068720764+1068506509+1068556794
3793+1068641242+1068462750+1068035201+1067583214+1067296859+1067314516
3785+1067693252+1068192773+1068398838+1068201218+1067901684+1067831823
3776+1067994769+1068167695+1068159314+1067887482+1067356100+1066678087
3768+1066144659+1066067760+1066398258+1066648211+1066417579+1065770722
3759+1064971667+1064175682+1063552113+1063473103+1064279707+1065865086
3751+1067400883+1068024389+1068098473+1068336206+1068754479+1069031621
3742+1069291426+1069943273+1070996503+1072121450+1072823454+1072627624
3734+1071602480+1070553664+1070160086+1070307486+1070397244+1069946856
3725+1069064312+1068426860+1068497169+1069037507+1069584754+1069960226
3717+1070197064+1070321305+1070352717+1070289765+1070053631+1069642780
3708+1069209473+1068823572+1068475481+1068240371+1068210494+1068296542
3700+1068297821+1068197763+1068118497+1068102951+1068081775+1067999439
3691+1067981078+1068307993+1068896888+1069067447+1068569845+1067949794
3683+1067763177+1068016073+1068285410+1068333327+1068385212+1068631006
3674+1068708416+1068359302+1067988243+1068074098+1068597930+1069053245
3666+1069155862+1068992276+1068745970+1068540480+1068364356+1068164176
3657+1068033986+1068151317+1068463326+1068780069+1069145306+1069677135
3649+1069999060+1069511950+1068588654+1067969946+1067898294+1068233206
3640+1068676429+1068971100+1069059322+1068999825+1068818134+1068594476
3632+1068588398+1069033732+1069656215+1069677582+1069086832+1068605288
3623+1068515850+1068576179+1068360325+1067674059+1066867839+1066457116
3615+1066555254+1066980052+1067527811+1067981782+1068059000+1067654291
3606+1067093545+1066777249+1066818578+1067205374+1067829776+1068308889
3598+1068218235+1067502988+1066492302+1065679620+1065436449+1065799447
3589+1066583275+1067525700+1068265130+1068549181+1068513739+1068460063
3581+1068475929+1068306522+1067668813+1066795291+1066377722+1066723638
3572+1067306519+1067551866+1067652563+1068112548+1068720380+1068757869
3564+1068307865+1068009035+1068137882+1068587183+1069113062+1069386749
3555+1069098987+1068252462+1067308311+1066802968+1066768549+1066831693
3547+1066798809+1066829709+1067075568+1067460189+1067833422+1068001486
3538+1067750894+1067184326+1066838666+1067092393+1067686087+1068068597
3530+1067922220+1067318163+1066690627+1066565234+1066968025+1067255211
3521+1066873917+1066098277+1065632470+1065747690+1066159117+1066619870
3513+1067213563+1067976088+1068582576+1068668496+1068275558+1067716795
3504+1067208317+1066801368+1066501451+1066327821+1066313363+1066495117
3496+1066893173+1067425322+1067831119+1067835917+1067512457+1067262376
3488+1067283232+1067325520+1067108515+1066633560+1066090216+1065790426
3479+1066060211+1066851461+1067646997+1067968539+1067811159+1067457246
3471+1067139287+1067015175+1067110306+1067130842+1066662221+1065746475
3462+1065008645+1065013891+1065662603+1066374203+1066685253+1066556726
3454+1066294746+1066273890+1066597030+1066950367+1066901938+1066386039
3445+1065800662+1065613278+1066015236+1066847047+1067665422+1068005005
3437+1067742961+1067201855+1066826767+1066773091+1066836299+1066770468
3428+1066611233+1066557173+1066593831+1066516805+1066360065+1066428391
3420+1066792859+1067121374+1067135193+1066886392+1066559029+1066265125
3411+1066062514+1066038587+1066344455+1067048058+1067849928+1068163024
3403+1067699202+1066802712+1066036732+1065678789+1065730481+1066114590
3394+1066651793+1067013063+1066930727+1066475733+1066017923+1065844741
3386+1065857473+1065755495+1065512580+1065428900+1065668681+1066008135
3377+1066150609+1066076077+1065988239+1066058484+1066269795+1066436388
3369+1066379193+1066115870+1065841735+1065746539+1065872379+1066064114
3360+1066073902+1065876345+1065820623+1066205692+1066784927+1067051705
3352+1066946209+1066841993+1066909359+1066962971+1066886328+1066734898
3343+1066465944+1065985424+1065446110+1065163337+1065273439+1065669448
3335+1066223541+1066907568+1067661648+1068222778+1068255085+1067706623
3326+1066889910+1066185283+1065812050+1065835913+1066190849+1066711227
3318+1067197633+1067423659+1067222519+1066712698+1066260455+1066096933
3309+1066155727+1066290651+1066417259+1066461018+1066386167+1066272034
3301+1066252138+1066337353+1066361152+1066200829+1065998923+1065962840
3292+1066027520+1066009862+1065992909+1066160717+1066380025+1066365439
3284+1066203197+1066280287+1066670474+1066969304+1066845703+1066454173
3275+1066184836+1066228467+1066473685+1066680774+1066734322+1066763879
3267+1066908591+1067027074+1066905904+1066632537+1066449822+1066456540
3258+1066707708+1067286239+1068001550+1068355975+1068035137+1067213947
3250+1066320656+1065736751+1065721972+1066313938+1067178120+1067749102
3241+1067695363+1067201727+1066742319+1066620509+1066729012+1066705789
3233+1066344327+1065841159+1065564464+1065654926+1066004041+1066488400
3224+1066989137+1067277794+1067086124+1066292059+1065079082+1063978574
3216+1063569834+1063915174+1064447451+1064631508+1064549300+1064594275
3207+1064821196+1064940511+1064840901+1064769056+1064949211+1065268705
3199+1065449756+1065406956+1065337607+1065487246+1065883063+1066294490
3190+1066467800+1066415084+1066423081+1066708156+1067120350+1067296155
3182+1067106212+1066826063+1066786654+1066911022+1066757801+1066126042
3173+1065418024+1065174149+1065392114+1065583081+1065445790+1065190783
3165+1065185025+1065540090+1066127641+1066770276+1067240113+1067254571
3156+1066758569+1066130136+1065828939+1065915946+1066134807+1066274849
3148+1066189570+1065691776+1064700026+1063251299+1061120337+1057609677
3139+1052008103+1044454826+1036574506+1031111951+1030232095+1033721899
3131+1039197185+1044234622+1047843741+1050057296+1051035610+1050962038
3122+1050390736+1050172516+1050789176+1051813937+1052322095+1051954236
3114+1051312624+1051224274+1051980849+1053382618+1055129663+1056972352
3105+1058670520+1059973063+1060700017+1060874159+1060741729+1060589979
3097+1060569571+1060649924+1060683128+1060574241+1060474055+1060688246
3088+1061286417+1061905253+1062110039+1061907172+1061701619+1061766490
3080+1061981320+1062132366+1062218094+1062310346+1062259550+1061737893
3071+1060572386+1058925846+1057152315+1055579284+1054418127+1053717466
3063+1053392279+1053375005+1053628732+1053969402+1054149558+1054193189
3054+1054298685+1054381469+1054136762+1053557911+1053015654+1052842856
3046+1053101190+1053654451+1054281667+1054795711+1055115909+1055188905
3037+1054943494+1054398295+1053706143+1053079374+1052795898+1053121022
3029+1053939846+1054548573+1054142968+1052607490+1050689630+1049377491
3020+1049214225+1050127413+1051642802+1053159727+1054241554+1054846635
3012+1055213663+1055461249+1055459522+1055144506+1054684841+1054216156
3003+1053703712+1053221592+1053024931+1053096456+1052886104+1051710808
2995+1049196824+1045183956+1039437605+1031693041+1021961268+1010771747
2986+999142906+988122089+978100762+968719255+959860173+952777116+949694069
2976+951798418+957778919+964834210+971157045+977018551+983476438+990669852
2966+997637625+1003270483+1007044210+1009157515+1010364159+1011554488
2958+1013211904+1015204423+1017092279+1018513496+1019220426+1018957487
2949+1017613872+1015526412+1013440233+1012070963+1011672907+1011887609
2941+1011981781+1011393014+1010099492+1008406378+1006574757+1004848312
2932+1003604243+1003156990+1003465800+1004224870+1005201457+1006358904
2924+1007695993+1009119706+1010524929+1011885050+1013206722+1014505810
2915+1015861772+1017353235+1018897286+1020300974+1021545619+1022853408
2907+1024344231+1025757195+1026693094+1027080658+1027223771+1027450117
2898+1027898394+1028600206+1029527276+1030506166+1031240222+1031547881
2890+1031559460+1031597014+1031828862+1032086107+1032035887+1031508600
2881+1030661499+1029808001+1029037159+1028122628+1026965886+1025950401
2873+1025551386+1025713116+1025927882+1025913807+1025969466+1026583120
2864+1027851308+1029439310+1031050151+1032669117+1034268506+1035595616
2856+1036466579+1037047606+1037643986+1038387510+1039289694+1040413041
2847+1041786533+1043278379+1044730177+1046092857+1047311336+1048267451
2839+1048985257+1049684318+1050499303+1051316719+1051951804+1052337705
2830+1052528096+1052621501+1052685029+1052740623+1052849766+1053134265
2822+1053651892+1054293695+1054834736+1055075732+1054991988+1054748497
2813+1054534179+1054416144+1054367330+1054302267+1054086478+1053697250
2805+1053340266+1053202335+1053179240+1053080973+1052988977+1053148212
2796+1053585869+1054042654+1054229207+1054045725+1053636345+1053305528
2788+1053298810+1053599623+1053973945+1054229207+1054393241+1054623489
2779+1054980664+1055347756+1055596493+1055774345+1056059932+1056522348
2771+1057012081+1057321275+1057394975+1057331319+1057265040+1057301762
2762+1057461253+1057642240+1057757844+1057872744+1058046502+1058154109
2754+1058038953+1057708071+1057258515+1056804288+1056518509+1056507953
2745+1056663734+1056800066+1056841010+1056780937+1056646205+1056552544
2737+1056624581+1056810558+1056873702+1056592273+1055993334+1055387805
2728+1055093773+1055151607+1055399257+1055720030+1056067226+1056373924
2720+1056621830+1056917013+1057351791+1057836086+1058179315+1058301061
2711+1058244634+1058066718+1057864172+1057823483+1058023919+1058258645
2703+1058259093+1057998968+1057627718+1057254037+1056930960+1056709604
2694+1056617799+1056647484+1056752468+1056829431+1056785415+1056634049
2686+1056464706+1056366375+1056407384+1056575256+1056731356+1056734683
2677+1056576023+1056328694+1056078677+1055934924+1055975293+1056139454
2669+1056269580+1056269452+1056168115+1056070872+1056106379+1056364584
2660+1056794244+1057153531+1057179761+1056875109+1056545699+1056484922
2652+1056699432+1056960645+1057038439+1056873510+1056585620+1056316730
2643+1056106826+1055975932+1055993014+1056142205+1056311740+1056505458
2635+1056826296+1057179441+1057294725+1057122311+1056942156+1057014192
2626+1057329144+1057748248+1058211367+1058738782+1059313730+1059821888
2618+1060078175+1059972743+1059681270+1059572384+1059704365+1059658111
2609+1059166650+1058574556+1058289417+1058164281+1057852528+1057430673
2601+1057271374+1057501366+1057847218+1057959559+1057801156+1057643456
2592+1057660537+1057715684+1057670262+1057677939+1057985725+1058562145
2584+1059089624+1059326909+1059358513+1059391269+1059479299+1059659646
2575+1060077599+1060634890+1060844602+1060424794+1059732770+1059326397
2567+1059391013+1059712746+1059934229+1059849206+1059635464+1059631049
2558+1059838202+1059964874+1059973383+1060159488+1060635466+1061130445
2550+1061379566+1061425948+1061486853+1061700979+1062022328+1062258334
2541+1062236711+1061981000+1061725802+1061770137+1062265436+1063027897
2533+1063631570+1063848511+1063862330+1063882610+1063776667+1063334148
2524+1062681789+1062146377+1061862645+1061765019+1061829954+1062076196
2516+1062388397+1062561131+1062548080+1062552494+1062800847+1063257185
2507+1063663814+1063888496+1064041142+1064130516+1063906601+1063261407
2499+1062503169+1061991940+1061754335+1061616531+1061476041+1061364212
2490+1061417631+1061764123+1062281685+1062575333+1062333378+1061686201
2482+1061178746+1061343867+1062206194+1063229676+1063875253+1064109276
2473+1064235884+1064435743+1064672005+1064858942+1064932066+1064891761
2465+1064832776+1064780316+1064548724+1064000773+1063375540+1063102044
2456+1063315147+1063745639+1064088932+1064303314+1064496968+1064676227
2448+1064727280+1064543606+1064117657+1063647564+1063486538+1063736234
2439+1064018303+1063942939+1063602909+1063306126+1063121941+1062969231
2431+1062883440+1062967312+1063224174+1063518845+1063659591+1063541237
2422+1063200311+1062746468+1062341695+1062168321+1062257375+1062421216
2414+1062478986+1062446806+1062448598+1062521722+1062567272+1062494724
2405+1062409381+1062512381+1062776473+1062901993+1062675007+1062227946
2397+1061897704+1061883246+1062060010+1062136205+1061988677+1061738661
2388+1061532403+1061402277+1061353528+1061422685+1061610198+1061818886
2380+1061919392+1061884845+1061845756+1061943958+1062147017+1062277143
2371+1062231017+1062174654+1062548144+1063635537+1064922853+1065267490
2363+1064158857+1062434011+1061283219+1060943124+1060837629+1060652483
2354+1060689973+1061201970+1061905445+1062409829+1062687291+1062914724
2346+1063117015+1063125331+1062926943+1062781335+1062879729+1063239208
2337+1063828231+1064470418+1064824203+1064704185+1064274653+1063825032
2329+1063539317+1063476621+1063515007+1063320073+1062639629+1061656644
2320+1060835965+1060469769+1060598488+1061167615+1062015227+1062872948
2312+1063543348+1063955670+1064052274+1063809038+1063371829+1062986824
2303+1062756640+1062564202+1062284628+1062015291+1061999809+1062306700
2295+1062706355+1062938843+1063004290+1063085986+1063285334+1063534007
2286+1063701432+1063705078+1063586084+1063517246+1063670211+1064090659
2278+1064731566+1065521409+1066366846+1067191427+1067954080+1068566454
2269+1068914993+1069017098+1069036739+1069174606+1069545665+1069908470
2261+1069639453+1068526598+1067428713+1067427945+1068406835+1069177933
2252+1069069878+1068694470+1068949860+1069769131+1070260400+1069858121
2244+1068743859+1067166477+1065077546+1062512573+1059551208+1055679214
2235+1049711636+1040701955+1029203624+1017850261+1009967382+1006432092
2227+1003472070+993285046+967127543+921004988+862768657+813027516+793448238
2217+810736870+852758846+900120416+939601474+967774208+986952743+1000590098
2207+1011102437+1019819814+1027547552+1034354362+1039361538+1041834834
2198+1042381761+1042418547+1042868616+1043930994+1045603252+1047679067
2190+1049377555+1049701335+1048537876+1047033682+1046469929+1047005021
2181+1047899655+1048683740+1049429631+1050040726+1050271102+1050546325
2173+1051585544+1052950079+1053328047+1052590281+1052094086+1052469943
2164+1052582092+1051564688+1050778812+1052527457+1056825464+1060538415
2156+1061004669+1059039851+1057315325+1057335861+1058598739+1060068386
2147+1061630350+1063568746+1065199932+1065342853+1064211957+1063461203
2139+1064088228+1065382390+1066042618+1065446493+1063891439+1062299407
2130+1061551596+1061660930+1061778965+1061230823+1060260185+1059544170
2122+1059320704+1059442641+1060048426+1061382381+1062889837+1063442970
2113+1062752674+1061613844+1060575137+1059471046+1058421783+1058080345
2105+1058628872+1059476100+1060114513+1060586844+1061072547+1061573412
2096+1062038322+1062422816+1062570471+1062291538+1061669631+1061119249
2088+1060961741+1061046189+1060993665+1060715179+1060449681+1060395749
2079+1060580895+1060983045+1061519992+1062086368+1062779799+1063746214
2071+1064666055+1064908139+1064403755+1063833797+1063762912+1064024764
2062+1064106013+1063749797+1063029048+1062183035+1061593756+1061681722
2054+1062459985+1063211443+1062985737+1061583328+1060008505+1059797258
2045+1061666496+1064734061+1067226550+1068164624+1068142168+1068066165
2037+1067802522+1066784863+1065258725+1064188414+1064293781+1065432355
2028+1066625883+1066888695+1066115550+1064810576+1063388847+1062431772
2020+1062852476+1065030524+1068316502+1071522638+1073332123+1072791210
2011+1070173969+1067042556+1064777757+1063912103+1064585446+1066293466
2003+1067674699+1067749422+1066888375+1065995340+1065503112+1065531325
1994+1066072622+1066639382+1066547961+1065880312+1065330378+1065037178
1986+1064536249+1063806927+1063450327+1063694458+1064069803+1064175427
1977+1064024188+1063632978+1063132561+1063044978+1063618711+1064326537
1969+1064650061+1064932642+1065886198+1067361474+1068229751+1067693316
1960+1066451102+1066063282+1067048570+1068301340+1068546750+1067625182
1952+1066171913+1064788249+1063930464+1063918053+1064522430+1064968852
1943+1064737388+1064139280+1063821770+1063990537+1064471122+1065122393
1935+1065898609+1066694785+1067286431+1067454431+1067148308+1066572144
1926+1066131736+1066191425+1066702846+1067086955+1066762279+1065681988
1918+1064140048+1062385902+1060629388+1059203884+1058485183+1058655166
1909+1059531439+1060559015+1061065574+1060760090+1060016566+1059536813
1901+1059701358+1060353270+1061163456+1061982024+1062804622+1063625109
1892+1064468947+1065412906+1066394931+1067130778+1067421100+1067346312
1884+1067072433+1066751659+1066624156+1066902514+1067437925+1067739058
1875+1067500110+1066956893+1066626971+1066898803+1067833358+1068933099
1867+1069368580+1068982616+1068438567+1068311320+1068488084+1068416496
1858+1067837901+1067124893+1066855172+1067156625+1067572338+1067618848
1850+1067354117+1067252844+1067624222+1068225337+1068369602+1067693252
1841+1066786974+1066441570+1066835851+1067539710+1068000782+1068119265
1833+1068188423+1068349577+1068384124+1068127710+1067778083+1067487634
1824+1067130459+1066652177+1066270179+1066182404+1066333771+1066507209
1816+1066567410+1066551544+1066502986+1066343495+1065952796+1065301333
1807+1064430561+1063424673+1062496132+1062002368+1062232872+1063066282
1799+1063974095+1064569580+1064882677+1065059697+1065142098+1065181443
1790+1065339078+1065695294+1066166667+1066626779+1067000652+1067300442
1782+1067534081+1067640728+1067643927+1067715003+1067945060+1068256621
1773+1068579250+1068912051+1069168017+1069234360+1069175630+1069129951
1765+1069133662+1069154838+1069192072+1069243764+1069274536+1069307931
1756+1069399608+1069470046+1069379136+1069204867+1069236535+1069546752
1748+1069751730+1069536900+1068995155+1068442534+1068139865+1068078641
1740+1068020487+1067806872+1067474007+1067152274+1067141590+1067632155
1731+1068241842+1068572276+1068607079+1068533315+1068490579+1068523975
1723+1068641050+1068804891+1068927917+1068923758+1068804827+1068713023
1714+1068712767+1068710336+1068620066+1068485078+1068417135+1068434793
1706+1068442470+1068416240+1068454753+1068589678+1068664465+1068514314
1697+1068195652+1067839308+1067522885+1067200256+1066752555+1066173192
1689+1065678533+1065526143+1065775520+1066193856+1066434980+1066595879
1680+1066922730+1067412015+1067909041+1068172941+1067975256+1067388664
1672+1066744942+1066344455+1066292442+1066437859+1066651729+1066995086
1663+1067543997+1068187335+1068754351+1069238006+1069664851+1069955684
1655+1069972062+1069788708+1069851788+1070155672+1070301600+1069873540
1646+1068688904+1067225974+1066004360+1065228209+1065025150+1065360830
1638+1066023937+1066815955+1067576368+1068193477+1068704962+1069191368
1629+1069664787+1070045698+1070237880+1070211395+1069988760+1069608489
1621+1069029574+1067892280+1065409452+1061331840+1057340084+1055220765
1612+1055328883+1057422100+1060792718+1064239722+1066854660+1068570357
1604+1069793442+1070836308+1071707528+1072245178+1072374729+1072218436
1595+1071961511+1071736061+1071682769+1071910266+1072321757+1072675350
1587+1072837656+1072857872+1072858960+1072907837+1072954667+1072942320
1578+1072906686+1072887429+1072871691+1072906430+1073043657+1073228867
1570+1073332123+1073251194+1072919225+1072461928+1072108526+1072011220
1561+1072088566+1071788329+1070233082+1067895223+1065425765+1062316744
1553+1057482557+1049230411+1035718513+1015822171+988314911+951786263+909107449
1543+869729648+844171084+839382000+850662175+867618518+889581143+919989696
1533+954565490+982076013+999509038+1011071473+1019603256+1025712924+1029944333
1523+1033119569+1035184381+1034450709+1028304383+1015354190+998988661+987035847
1513+984776614+991607286+1003563875+1017309476+1031512822+1043016911+1049293171
1503+1052574543+1054921295+1056918996+1058653310+1060104788+1061087453
1494+1061486789+1061408803+1060939030+1060069090+1058784268+1057228766
1486+1055720286+1054341932+1052663597+1050067340+1046212043+1040890235
1477+1033660866+1023865373+1010586410+993758465+977469771+967278845+963505309
1468+963387210+964010844+962063300+955864834+947259862+938379092+929563833
1458+921491714+918117770+922012411+931105517+942911186+955335820+966442812
1448+974685810+979093407+979602077+976687989+971147512+964847261+960662362
1438+961264373+966509858+971402263+971303229+964858649+950871860+928964702
1428+901769003+872080751+841086374+811287508+785841157+763995160+742476526
1418+722220514+707491160+698855225+694987261+695498938+699206131+702778079
1408+702735791+698866932+695980034+700792405+715825579+739507739+769186203
1398+800803894+830782339+858281666+881320168+895376115+898267555+890975619
1388+875715907+857122493+842221876+836030767+839315850+848986526+858385434
1378+859813305+848915257+827393680+802736660+783235304+772358368+771328553
1368+782207216+803518378+828091910+848056577+858370336+858086413+850729797
1358+840742185+830320051+820267760+812421603+810335999+817108006+832672497
1349+853498532+875191435+895109017+912423624+927072624+939345827+949639114
1339+958140701+964981034+970394456+974440783+976997759+978285651+979224365
1329+981105183+984852297+990448817+996937988+1003035628+1007786007+1010481938
1319+1010279519+1006876082+1001801283+997870624+996552727+996532958+996064529
1309+996118269+999465855+1006980362+1016475938+1025180903+1031944274+1037040440
1299+1041081906+1044461160+1047282291+1049473518+1050943101+1051636021
1290+1051388180+1049791413+1046562630+1042263471+1038239726+1035506754
1282+1033915361+1032428825+1029809600+1024887319+1016430899+1003079963
1273+983588843+957104808+923251874+882707479+838817352+798610491+770636273
1264+760154258+766033998+782335999+802506860+822407232+840735276+857968570
1254+875155609+892869296+910542102+926609633+939300724+947476100+951175488
1244+951521915+949523062+944428495+933636774+915201891+890939920+866726890
1234+849226179+842014212+844310423+852615797+863327996+874490583+885967546
1224+898401328+912016163+926191168+939822701+951909671+961989664+970265289
1214+977323459+983564596+988755831+992037522+992262844+988538890+981196604
1204+972794500+967634421+969187300+977554027+989628202+1001630149+1011241584
1194+1017819617+1021596735+1023140978+1023188896+1022432064+1021259584
1186+1019900679+1018960110+1019446068+1021732875+1024659118+1026217180
1177+1025142006+1021441658+1015507284+1007187963+995787771+980589604+961184467
1167+937509664+909730955+877868558+841715446+802350504+764606703+736873289
1157+726392553+734080563+754380526+779973957+806134659+831281220+855100480
1147+877104049+896541942+912884120+925978897+935715277+941618816+942771400
1137+938145453+927630875+913605700+901318103+896392431+900987093+912382935
1128+925475793+936645226+945438989+953151693+960377735+965935038+967872666
1118+965730252+962080125+961223556+965613752+973791303+982022657+987191884
1108+987575609+981597667+967509349+945928083+922824901+907842460+907478759
1098+920067298+938171172+954992463+967817071+976943444+983482644+988415737
1088+992518363+996285117+999895515+1003379753+1006706547+1009750953+1012421677
1078+1014805855+1017021714+1019002398+1020535316+1021473518+1021963507
1069+1022500198+1023568910+1025203039+1027067351+1028894046+1030619083
1061+1032194290+1033524598+1034595422+1035526586+1036471889+1037488013
1052+1038461722+1039156369+1039404018+1039205566+1038478163+1036741482
1044+1033257244+1027383007+1018389639+1004787088+984383676+956211517+923397163
1034+893836159+876595316+876346451+890716517+912699550+935185751+953145744
1024+963307753+965132656+963089980+964739846+973957448+987415862+998953538
1014+1005499136+1007739369+1007374964+1005375087+1001418581+993687005+980414055
1004+963207631+948190835+942000430+946309377+957249329+969844394+981537658
994+991778933+1000327478+1006808908+1011013447+1013042496+1013450405+1013379200
984+1014245813+1016942960+1021250819+1026139961+1030652351+1034386349
976+1037317710+1039508874+1041032772+1042001107+1042578038+1042957094
967+1043323226+1043871817+1044833498+1046363985+1048368148+1050457271
959+1052169833+1053315636+1054039967+1054424589+1054181865+1053057622
950+1051498729+1050535065+1050818157+1052004968+1053223767+1053890904
942+1053912080+1053403602+1052503466+1051251528+1049477421+1047040911
933+1044360782+1042522380+1042655321+1045118125+1049160294+1053348008
925+1056481276+1058171702+1058499129+1057059039+1052096197+1040594796
916+1020603386+995210327+973547620+965145771+972156791+988217732+1004928218
907+1017945649+1027253456+1034252193+1039952929+1044790442+1048873619
898+1052216535+1054835120+1056725406+1057930962+1058572125+1058610127
890+1057533674+1054245137+1047537361+1037497162+1026390361+1016868684
881+1009462231+1003747676+1001605902+1006258142+1017534670+1030858224
873+1041705731+1049029080+1054039839+1057769360+1060534065+1062529591
864+1064006467+1064914281+1064749927+1063011647+1059726757+1055462017
856+1050950459+1046579135+1041946280+1036033976+1027861160+1016883142
847+1003540396+990292141+981272543+979516606+984734902+994376214+1005923998
837+1017281646+1025818420+1028214689+1021514015+1005006204+982157390+959773230
827+942586254+928223225+910252356+887580754+868479885+863201132+873891708
817+893496128+913518438+930910199+947674616+965926145+984769577+1001495416
807+1014446249+1024079436+1031773139+1038379705+1043911354+1048035411
799+1050599872+1051881111+1052421449+1052489583+1051557011+1048187289
790+1040087021+1023902095+995800374+955040636+909269180+874429166+864974279
781+882643375+916075158+951114007+979887792+1001189677+1016414137+1027129343
771+1034691001+1040182601+1044162842+1046264056+1045038731+1038463769
762+1024941315+1004680824+980120919+952847809+920034351+878947058+837403747
752+813584935+820080952+851636395+892043051+928919919+958536070+981234670
742+997941701+1010038587+1019048652+1025869728+1030999674+1035008128+1038278752
732+1040640410+1041585585+1040728952+1037628568+1030549350+1015531658+988103600
722+947071070+896981838+847872647+813093667+804647995+826113913+868352062
713+914734550+952742761+979341057+996889494+1008344130+1015914936+1020533589
703+1021610426+1017889158+1007872566+989905792+964509278+937511008+918465413
693+914122175+923909032+941739601+961041610+978023480+991672286+1002135300
683+1009664650+1014826200+1018676890+1021944507+1024576718+1026580177
674+1028467393+1030446797+1032158016+1033642185+1035933983+1039476758
666+1042396092+1043017807+1041205890+1038340424+1037139538+1039379004
657+1044016593+1048491365+1051205785+1052229778+1052163500+1050874200
649+1046868753+1037455002+1020049038+994500006+965533655+943015147+936956083
639+948675386+967125367+976780946+969354725+947664188+921800332+904508181
629+905916539+926853827+957555836+985506703+1004611027+1016345108+1024487152
619+1031056101+1036246887+1040015113+1042672786+1044428724+1045445296
611+1046337052+1047890379+1050285624+1052874332+1054698724+1055477691
602+1056093200+1057498935+1059346806+1060478726+1060278546+1058578459
594+1054673518+1046805993+1032592026+1011505291+988281324+972325367+971220444
584+984244145+1003533934+1021005217+1033101528+1040344011+1044204298+1045124139
574+1043312350+1040359941+1038792667+1039932136+1042632674+1043549124
565+1037998730+1022745161+1001068635+983680456+980465044+991344987+1007546546
555+1020475435+1026941959+1027217438+1021706325+1010446751+993843553+973070170
545+951097565+932853074+921591900+915141242+908629040+901569399+899631067
535+908280757+926984594+950439449+972905113+990577983+1002084631+1008206902
526+1011309782+1014234873+1018441396+1023419783+1028296770+1033144199
517+1037961625+1041358600+1041193607+1034862648+1019273206+994583111+969180455
507+956241138+961332379+977096985+992954484+1005228071+1016024334+1026439367
497+1034839936+1040078001+1043269551+1046248637+1049705494+1053309110
489+1056498869+1058561953+1058919449+1057713061+1054978041+1048309099
480+1031933782+1000548386+957250033+916457412+894688633+898055604+918331001
470+942579281+965128306+985749043+1003517236+1017215879+1027148600+1034146569
460+1038797402+1041670609+1042933103+1042171794+1039526979+1036842884
452+1037262691+1042290148+1049205717+1053489841+1053510058+1051669864
443+1051483567+1054722267+1060378924+1065330762+1066740336+1064591972
435+1061722923+1060917406+1062969807+1066810581+1069663444+1068649687
426+1063682431+1057559328+1052912270+1050294581+1049552592+1050869338
418+1053326000+1055325493+1056644413+1057753814+1059117581+1060755356
409+1061468812+1060296075+1059310723+1062075300+1068404468+1073332123
401+1072703052+1064375414+1054180074+1052178406+1059977605+1068967709
392+1071424436+1066318928+1057508915+1048345437+1039779491+1033645832
384+1033345083+1038427239+1043885315+1045680854+1043444076+1042368454
375+1052584651+1073332123
##END=
