##TITLE=CZ-204
##JCAMP-DX=4.24
##DATA TYPE=INFRARED SPECTRUM
##DATE=19/3/2020
##SAMPLING PROCEDURE=Diamant-ATR
##ORIGIN=Lara
##XUNITS=1/CM
##YUNITS=TRANSMITTANCE
##RESOLUTION=4
##FIRSTX=3997.453
##LASTX=373.96442
##DELTAX=-1.4165319
##MAXY=0.96320623
##MINY=0.4562031
##XFACTOR=1
##YFACTOR=8.9705571e-010
##NPOINTS=2559
##FIRSTY=0.91115564
##XYDATA=(X++(Y..Y))
3997+1015718012+1015259544+1014711507+1014230780+1013885533+1013732311
3989+1013789453+1013966595+1014134302+1014290513+1014576159+1015039346
3980+1015443795+1015492300+1015286786+1015287318+1015654757+1015945519
3972+1015788178+1015518479+1015693959+1016262128+1016656744+1016573489
3963+1016238607+1016004921+1016010967+1016234487+1016637807+1017156475
3955+1017614479+1017791022+1017641256+1017363251+1017072422+1016544851
3946+1015612565+1014591840+1013979485+1013992774+1014506924+1015197551
3938+1015691302+1015866849+1016015552+1016450832+1017059731+1017432619
3929+1017285511+1016651893+1015931300+1015718278+1016213557+1016961592
3921+1017477004+1017659661+1017540592+1017212222+1016998071+1017184116
3912+1017631156+1017918663+1017791554+1017377935+1017014881+1016984317
3904+1017338467+1017807501+1018067233+1018138263+1018242581+1018400786
3895+1018495337+1018565303+1018742046+1018822378+1018309956+1017281325
3887+1016553555+1016757408+1017423716+1017695142+1017607103+1017504180
3878+1017196142+1016605515+1016275617+1016657475+1017537868+1018550220
3870+1019604831+1020373464+1020446287+1020014197+1019531941+1019138588
3861+1018733873+1018319524+1017896470+1017436340+1017275212+1018267298
3853+1020419178+1021678971+1021229538+1020007819+1018785036+1018072150
3844+1018135206+1018586897+1018688492+1018467430+1018768557+1019847288
3836+1020808943+1021041500+1020842498+1020549144+1020075326+1019358388
3827+1018741182+1018602180+1018965898+1019823036+1021164622+1022110928
3819+1021591330+1020203764+1019320846+1019424965+1019932138+1020348481
3810+1020569675+1020557981+1020376653+1020108283+1019673003+1019195531
3802+1019171080+1019712339+1020190874+1020389677+1020618313+1020793129
3793+1020545822+1019970676+1019534400+1019531343+1019955527+1020611868
3785+1021088343+1021020171+1020608080+1020451005+1020843959+1021492327
3776+1021942823+1022003885+1021713057+1021273923+1020990935+1021023692
3768+1021260900+1021612061+1022086476+1022476241+1022481955+1022194648
3759+1022037506+1022076842+1021815448+1020998443+1019960643+1019305763
3751+1019621841+1020793926+1021890065+1022596373+1023463344+1024594699
3742+1024945660+1024109121+1022744744+1021481098+1020759375+1021041566
3734+1022289000+1023384342+1023314840+1022317505+1021293923+1020825355
3725+1020765089+1020648878+1020498912+1020757714+1021554918+1022522487
3717+1023156303+1023119161+1022425278+1021504354+1020944424+1020978244
3708+1021445019+1022054383+1022369797+1022161227+1021889866+1022281159
3700+1023182947+1023769588+1023792445+1023587862+1023300754+1022772518
3691+1022185412+1022379032+1023808658+1025338947+1025740007+1025153433
3683+1024280748+1023511185+1022836106+1022275578+1022266541+1023266269
3674+1024527590+1024780146+1024239353+1023823674+1023772445+1023650652
3666+1023388195+1023290256+1023419358+1023495105+1023299691+1023005141
3657+1022981022+1023249658+1023332050+1022973049+1022534380+1022712984
3649+1023980484+1025586520+1026192961+1025510839+1024100483+1022679695
3640+1021779634+1021588539+1021964018+1022596705+1023146868+1023288595
3632+1022927933+1022579828+1023238761+1024877621+1026011434+1026122264
3623+1025778479+1025437484+1025243731+1025182669+1025100809+1024967654
3615+1025076224+1025559145+1026019540+1026121998+1026181732+1026550899
3606+1026904651+1026772492+1026250303+1025757150+1025515823+1025401737
3598+1025253100+1025178084+1025370575+1025688180+1025710971+1025339877
3589+1025094031+1025754625+1027340329+1028689224+1028901914+1028121520
3581+1027051494+1026507776+1026877674+1027689031+1028083115+1027784313
3572+1027233553+1026863455+1026762326+1026907508+1027163918+1027177473
3564+1026781130+1026184656+1025683596+1025528514+1025864259+1026609703
3555+1027431691+1027866239+1027585444+1026751164+1025963793+1025728512
3547+1026147048+1026960930+1027688832+1027959528+1027813682+1027550361
3538+1027380595+1027363053+1027506840+1027679729+1027591225+1027128769
3530+1026562527+1026254223+1026297279+1026604786+1027133620+1027776074
3521+1028280190+1028511019+1028566899+1028503777+1028222184+1027760991
3513+1027431558+1027495544+1027863582+1028210224+1028310755+1028211486
3504+1028113148+1028114344+1028109095+1028011421+1027951089+1028056404
3496+1028199526+1028175806+1027993481+1027774014+1027549564+1027341791
3488+1027183652+1026954684+1026550301+1026237081+1026387046+1026863588
3479+1027171958+1027154018+1027043786+1027055082+1027283918+1027746838
3471+1028195540+1028203380+1027734014+1027369964+1027698533+1028602580
3462+1029363306+1029454867+1029115667+1029008956+1029381911+1029759383
3454+1029527292+1028661583+1027762054+1027474215+1027941854+1028724971
3445+1029241181+1029256928+1028902312+1028469425+1028329891+1028720187
3437+1029449020+1030045627+1030256457+1030152736+1029781044+1029076531
3428+1028184576+1027550029+1027505112+1027958797+1028624839+1029353074
3420+1030074265+1030660108+1031032598+1031215985+1031207215+1031011668
3411+1030773064+1030644228+1030611471+1030603232+1030619577+1030650341
3403+1030605624+1030403499+1030069680+1029759782+1029657922+1029759184
3394+1029827821+1029669749+1029365432+1029112211+1028944372+1028775802
3386+1028656733+1028766632+1029139055+1029594534+1029957322+1030162902
3377+1030233201+1030292137+1030480575+1030750739+1030923495+1030974857
3369+1031107547+1031566681+1032429266+1033428728+1034049787+1034057429
3360+1033825536+1033853377+1034103475+1034127794+1033717763+1033118631
3352+1032648999+1032343686+1031987675+1031405486+1030689743+1030044099
3343+1029366695+1028226503+1026426847+1024381079+1022798365+1022180496
3335+1022635775+1023895435+1025436687+1026757808+1027625244+1028086637
3326+1028345173+1028648826+1029224304+1030181241+1031347413+1032285081
3318+1032723351+1032929595+1033296902+1033650720+1033470522+1032784480
3309+1032245480+1032214185+1032341426+1032238105+1032012591+1031906878
3301+1031844619+1031625816+1031270403+1030943362+1030736653+1030663497
3292+1030739244+1030984625+1031362695+1031742693+1032000366+1032197773
3284+1032558302+1033190059+1033904473+1034403739+1034599551+1034651777
3275+1034680946+1034597757+1034326331+1034038226+1033965668+1034077296
3267+1034139621+1034051183+1033944805+1033987263+1034233241+1034594767
3258+1034809317+1034581279+1033967861+1033422682+1033239693+1033196836
3250+1032987867+1032720294+1032723351+1033081754+1033593910+1034081947
3241+1034520748+1034875297+1035053701+1035094365+1035169714+1035297620
3233+1035293367+1035082870+1034859217+1034907456+1035325593+1035859211
3224+1036108711+1036047648+1036036818+1036186518+1036177016+1035892300
3216+1035682069+1035832567+1036212365+1036494290+1036466915+1036190970
3207+1035964194+1036031901+1036341932+1036618475+1036587246+1036191235
3199+1035722468+1035624993+1036044393+1036702395+1037227375+1037410098
3190+1037213621+1036792959+1036484988+1036559871+1036953689+1037380131
3182+1037678668+1037906440+1038128432+1038270026+1038172419+1037712953
3173+1036957343+1036204724+1035747384+1035627850+1035758680+1036055887
3165+1036305055+1036240604+1035969376+1035957151+1036412629+1036988440
3156+1037233820+1037118007+1036967244+1036981795+1036953888+1036576150
3148+1035963463+1035597153+1035701936+1035979609+1036079542+1036038811
3139+1036085655+1036271700+1036501732+1036734488+1036966446+1037156611
3131+1037290099+1037382523+1037347573+1037027044+1036462529+1035966320
3122+1035782002+1035823065+1035887118+1035953031+1036091768+1036271036
3114+1036441400+1036612894+1036696216+1036512097+1036111502+1035850174
3105+1035988978+1036380736+1036653026+1036598342+1036319341+1036069243
3097+1036031037+1036194491+1036371434+1036402065+1036365454+1036421466
3088+1036461200+1036201534+1035625060+1034988054+1034419619+1033844141
3080+1033253646+1032772786+1032522688+1032584481+1032968399+1033496502
3071+1033839756+1033796633+1033484941+1033205075+1033149129+1033262151
3063+1033303347+1032982286+1032084617+1030534063+1028349758+1025567517
3054+1022162223+1017967965+1012812981+1006962720+1001325813+996997469+994718746
3044+994817683+997216139+1001272591+1005947843+1010342300+1013995166+1016792158
3034+1018830418+1020301371+1021337976+1021922823+1021908338+1021120436
3026+1019551875+1017516738+1015578213+1014291643+1013894835+1014071977
3017+1014069651+1013226999+1011396379+1008837592+1005982992+1003532443
3009+1002460224+1003430716+1006161529+1009616524+1012840224+1015432034
3000+1017306640+1018345171+1018359457+1017220528+1014950044+1011728736
2992+1007754542+1003001550+997107502+989529743+979969407+968809346+957015734
2982+945375478+934086780+923601067+915619457+912363864+914645842+921241215
2972+930184612+939973386+949501830+957730016+963856222+967491547+968536391
2962+967085038+963474231+958418782+953184663+949364422+948037387+949094324
2952+951501617+954012830+955449565+954633291+950518102+942512240+930647400
2942+915639457+899057106+883345779+871156622+864163445+862345450+864237730
2932+867641695+870173838+869701615+864988356+856451933+846394656+838212051
2922+834968617+838216503+847560762+861048448+876155195+890800880+903825912
2912+914841722+923871364+931153377+936999253+941533642+944615948+946206901
2902+946727828+946789688+946557530+945566108+943183997+939169338+933822330
2893+927827418+922131907+917922167+916388888+918154591+922843863+929296578
2883+936188494+942429317+947248754+950349864+952174105+953833230+956496801
2873+960665013+965898335+971162686+975519668+978597057+980457709+981138967
2863+980421895+977856264+972842941+964945982+954534754+943149578+933013099
2853+926044905+923229973+924622123+929561161+936815666+944914683+952772772
2843+960075316+966984241+973581674+979709541+985166184+989838446+993716361
2833+996906307+999579047+1001823817+1003627127+1005049776+1006300000+1007541122
2823+1008758589+1009928880+1011175052+1012583149+1013958356+1014960409
2815+1015450904+1015579276+1015581468+1015658677+1015975154+1016536280
2806+1017051891+1017132223+1016695614+1016067180+1015660205+1015676883
2798+1016092030+1016746577+1017398002+1017882716+1018347497+1019124967
2789+1020251339+1021312262+1021905614+1022062025+1022110596+1022306076
2781+1022637303+1022871654+1022827535+1022661356+1022747269+1023216369
2772+1023794970+1024128323+1024142675+1024045068+1024067061+1024274901
2764+1024641742+1025196689+1025948577+1026735283+1027388435+1027998797
2755+1028730752+1029404967+1029606893+1029255865+1028759656+1028543577
2747+1028656467+1028882246+1029052743+1029171148+1029289752+1029346429
2738+1029227626+1028990020+1028864240+1029001913+1029343306+1029719516
2730+1029987289+1030143368+1030348682+1030732267+1031204557+1031580767
2721+1031789802+1031862227+1031859370+1031894984+1032057973+1032265414
2713+1032333187+1032215979+1032069535+1032066611+1032212989+1032382954
2704+1032507804+1032669730+1032987668+1033467599+1033987861+1034371447
2696+1034479153+1034322875+1034106199+1034048060+1034131448+1034153774
2687+1034045136+1033927928+1033802347+1033487731+1033033183+1032835045
2679+1033135906+1033693311+1034144405+1034412310+1034600282+1034735232
2670+1034768055+1034673504+1034476828+1034266397+1034157893+1034184737
2662+1034268524+1034331115+1034360550+1034370118+1034384536+1034452509
2653+1034598688+1034794832+1035015230+1035255959+1035488316+1035696820
2645+1035941270+1036238278+1036432496+1036350503+1036045256+1035742733
2636+1035586389+1035543665+1035526854+1035533167+1035659810+1035984592
2628+1036434556+1036809504+1036949769+1036868905+1036735484+1036753557
2619+1037003323+1037346776+1037529765+1037454018+1037311295+1037362590
2611+1037596210+1037744913+1037701126+1037741657+1038165907+1038813810
2602+1039197063+1039101050+1038800920+1038643844+1038665572+1038702581
2594+1038659326+1038578728+1038613678+1038926234+1039487360+1040034599
2585+1040327288+1040363368+1040342106+1040517852+1040989610+1041511865
2577+1041683027+1041421235+1041054593+1040904428+1041003098+1041269276
2568+1041744954+1042508670+1043427003+1044134838+1044328990+1044028992
2560+1043513248+1043044148+1042684748+1042388338+1042251528+1042522490
2551+1043240426+1044037032+1044463142+1044372777+1043885604+1043171655
2543+1042427541+1041943092+1041982627+1042492058+1043028998+1043196107
2534+1043055776+1042863551+1042608337+1042211861+1041979371+1042384617
2526+1043451056+1044630716+1045290579+1045201808+1044617958+1043956036
2517+1043457966+1043205409+1043341754+1043974574+1044805332+1045189117
2509+1044822077+1044169656+1043951983+1044358026+1045025530+1045605593
2500+1046045125+1046423395+1046787446+1047097211+1047230898+1047126846
2492+1046890900+1046650105+1046453893+1046421136+1046681998+1047066182
2483+1047211961+1047075949+1046980003+1047103324+1047240732+1047156812
2475+1047027577+1047342658+1048248500+1049143112+1049253410+1048576737
2466+1047920063+1047980860+1048614942+1049111418+1049091816+1048899791
2458+1049006900+1049369356+1049573009+1049325768+1048676271+1047981259
2449+1047631560+1047655547+1047762722+1047790629+1047807041+1047873020
2441+1047983850+1048099464+1048128168+1048091026+1048207769+1048549361
2432+1048797732+1048630557+1048158401+1047694018+1047261064+1046688510
2424+1046102666+1045840409+1045854163+1045767386+1045533368+1045450112
2415+1045581474+1045726921+1045855957+1046119942+1046576949+1047141065
2407+1047637208+1047874017+1047831160+1047705314+1047695679+1047856874
2398+1048134015+1048390293+1048461389+1048305310+1048035743+1047741327
2390+1047353223+1046744855+1045924727+1045116892+1044656828+1044757160
2381+1045350711+1046219543+1047252493+1048438997+1049643175+1050634198
2373+1051378247+1052049671+1052727474+1053236839+1053304613+1052898569
2364+1052448273+1052491396+1053018967+1053456838+1053312055+1052550266
2356+1051482764+1050524830+1049909884+1049527495+1049168892+1048851751
2347+1048811951+1049255204+1050037325+1050626823+1050587820+1049972674
2339+1049226566+1048793479+1048757533+1048885173+1048970355+1049024176
2330+1049172746+1049403176+1049430419+1048960987+1048053418+1047084520
2322+1046458212+1046472099+1047188506+1048229098+1049072614+1049657593
2313+1050291676+1050950542+1051140109+1050578385+1049681447+1049205570
2305+1049498325+1050267357+1051031538+1051487349+1051427283+1050812071
2296+1050045033+1049641049+1049535136+1049243776+1048729892+1048535275
2288+1048968827+1049622046+1049860316+1049543707+1049125371+1049172613
2279+1049863373+1050860443+1051633528+1051951333+1052095186+1052509668
2271+1053228135+1053747135+1053553582+1052713122+1051807347+1051319045
2262+1051249743+1051382300+1051706617+1052355118+1053142089+1053519761
2254+1053255444+1052855845+1053000695+1053821022+1054974170+1056074030
2245+1056844258+1057133093+1056869374+1055957553+1054499821+1053124348
2237+1052604285+1053127405+1054198162+1054985665+1054716365+1053375177
2228+1052055983+1051896915+1052734716+1053333184+1052684218+1050763500
2220+1048442651+1046885385+1046709706+1047663188+1049117265+1050650012
2211+1052051199+1052951991+1052806211+1051629807+1050551475+1050919180
2203+1052816842+1055023539+1056342866+1056473098+1055807122+1054981679
2194+1054532579+1054508924+1054415503+1054048994+1054368394+1056515423
2186+1059673675+1061311870+1060288820+1058382720+1057993951+1059437464
2177+1061132868+1061692200+1061115393+1059957062+1058253618+1056096422
2169+1054405403+1054095571+1055038024+1056478546+1057841727+1058970689
2160+1060266628+1062313259+1064875302+1067001800+1068100132+1068201261
2152+1067598806+1066305592+1063940425+1060890943+1058991354+1059512945
2143+1061192735+1061897116+1061384295+1060928816+1061160509+1061603895
2135+1061683894+1061209745+1060359783+1059698658+1059771681+1060459982
2126+1061132336+1061441504+1061514925+1061372601+1060677987+1059214874
2118+1057397743+1056160076+1056211305+1057352361+1058664711+1059365836
2109+1059330687+1058919062+1058557137+1058396872+1058244913+1057884783
2101+1057475018+1057522526+1058342919+1059536466+1060253538+1060113340
2092+1059530088+1059086569+1059020124+1059227432+1059456998+1059633077
2084+1059977859+1060534068+1060855195+1060554533+1059809754+1059058264
2075+1058555077+1058359531+1058482254+1058978596+1059864703+1060894597
2067+1061660174+1061946152+1061762831+1061198250+1060461975+1059771814
2058+1059135672+1058595675+1058481722+1058973480+1059704505+1060306096
2050+1061031208+1062323824+1063983813+1065354635+1066158218+1066449844
2041+1066065859+1064904870+1063600626+1063256642+1064375771+1066299878
2033+1067960864+1068857137+1068827170+1067810765+1066771170+1067410768
2024+1069666235+1071059183+1069931682+1067769503+1067002996+1067854751
2016+1068632155+1068633816+1069145507+1071040379+1072939237+1073004419
2007+1071442104+1069807098+1069005242+1069171620+1070258856+1071712069
1999+1072336450+1071300178+1069263513+1067826313+1067618075+1067823722
1990+1068087973+1069146172+1070733803+1071166225+1069663378+1067183128
1982+1064968591+1063935707+1064777695+1067068378+1069120325+1069823377
1973+1069510023+1069047634+1069204842+1070234470+1071514927+1072235388
1965+1072289341+1072001303+1071665890+1071648016+1072182298+1073021429
1956+1073675445+1073741823+1072958838+1071411738+1069698660+1068573418
1948+1068349433+1068550295+1068114816+1066284662+1063495643+1061045095
1939+1059819388+1059833807+1060521045+1061054197+1060980776+1060721907
1931+1060992935+1061794658+1062492593+1062780166+1062859834+1062600433
1922+1061319644+1058844311+1056120209+1054382015+1053974310+1054304806
1914+1054939686+1055991705+1057437610+1058757335+1059517197+1059769023
1905+1059547563+1058539330+1056530838+1053847533+1051240706+1049516863
1897+1049204307+1050370878+1052720099+1055870244+1059365836+1062484354
1888+1064567530+1065699749+1066467784+1067170969+1067709636+1067979335
1880+1068001196+1067779204+1067332429+1066822200+1066524594+1066658879
1871+1067119607+1067374688+1067004325+1066358681+1065915960+1065546394
1863+1065088258+1064805203+1064888060+1065037893+1064938956+1064857296
1854+1065385399+1066593630+1067792161+1068371492+1068472953+1068554481
1846+1068764247+1068901854+1068613484+1067789436+1066868379+1066478481
1837+1066803463+1067369904+1067594487+1067431963+1067383525+1067906711
1829+1068771224+1069446834+1069868293+1070124438+1070080916+1069693344
1820+1069185839+1068889894+1069034146+1069421785+1069521385+1069119992
1812+1068519398+1068036611+1067669836+1067273028+1066767715+1066238682
1803+1065914764+1065955096+1066257552+1066515026+1066468647+1066152636
1795+1065812373+1065494966+1064960418+1064219094+1063581091+1063138370
1786+1062833588+1062654652+1062576513+1062593656+1062735515+1062925348
1778+1063081826+1063292389+1063707336+1064459159+1065521544+1066460275
1769+1066910970+1066995621+1066872233+1066551305+1066171307+1065984465
1761+1066117155+1066568315+1067209174+1067679670+1067731430+1067546647
1752+1067422861+1067549571+1067914087+1068216809+1068347971+1068557870
1744+1068919329+1069267633+1069586235+1069856134+1069926765+1069950220
1735+1070284237+1070864433+1071179448+1071068418+1070734135+1070448223
1727+1070395067+1070475598+1070523571+1070460848+1070111016+1069414741
1718+1068792088+1068609763+1068474415+1068007043+1067147580+1065902870
1710+1064473976+1062796778+1060219452+1056583662+1052836310+1049504903
1701+1046081404+1042022028+1037488901+1032749131+1027481126+1021341298
1693+1014032708+1003891511+988306894+966218731+933842462+872524919+760994744
1683+634282009+551034209+514244181+508556045+528237313+570507338+622681818
1673+668601056+707507050+747690444+787940151+818755167+839424203+856408611
1663+874188696+891915026+906428487+917216524+925457799+932446392+941071519
1653+953849044+964334624+968211011+970091663+973951173+979630870+983718817
1643+984811103+983797554+981899627+980536645+981588466+986774014+994185859
1633+999348484+1001852122+1003638356+1005746449+1007994142+1009832536
1625+1011158175+1012210327+1012924741+1012972050+1012592252+1012758762
1616+1014141013+1015933028+1017242654+1018265571+1019488619+1021111267
1608+1022788133+1023783342+1023598360+1022082955+1018893141+1013466665
1599+1005749373+996634216+987607895+980026815+974657946+971930057+972345137
1589+976158003+982787262+990947342+999342969+1007127437+1013810384+1019012675
1579+1022698897+1025501338+1028264244+1030795323+1032156843+1032368004
1571+1032019634+1031407745+1030319247+1028339393+1025317352+1021616114
1562+1017762318+1013175437+1004815425+990282496+973821539+957675797+941774571
1553+928912594+922496622+923353162+929720762+939370467+951208795+964255621
1543+976920988+989228948+1001639034+1010921565+1015936815+1019248754+1022980756
1533+1027252290+1030614594+1032513186+1033759756+1035098551+1036419207
1524+1037393819+1038351620+1039674402+1040901371+1041436185+1041225023
1516+1040277986+1038352949+1035092040+1030413399+1024485198+1016411231
1507+1003664137+988128623+976567103+970123424+967601314+969124294+975227975
1497+985298010+996310032+1004773166+1009999578+1012918496+1013412645+1009880176
1487+1001904481+991859429+983268854+979371138+981783813+989152603+998213009
1477+1006503255+1013208726+1018532014+1023015839+1026533158+1028423777
1469+1028783775+1028003647+1025611304+1019843168+1008969020+993261945+974719806
1459+957610614+950691656+958120378+967598457+969588876+964495686+954155554
1449+939074987+920690521+904806637+899298699+907671801+926064174+945556141
1439+958188551+959082631+945683250+922955423+902731634+895294207+906718452
1429+933603793+962670914+984344926+998111681+1005937478+1008532544+1005561334
1419+996059003+981088203+965026779+950201626+935209630+918020040+898931459
1409+882002997+872725848+874130490+885197462+901424599+918476648+935657534
1400+953755025+971420226+986304648+997988625+1006946441+1013200155+1017291623
1390+1020293797+1022816239+1024720745+1025570108+1024834232+1021079772
1381+1011248938+992666401+967791877+945889693+937818184+947091480+965558071
1371+982130256+992588528+997847231+999461373+998521911+995787444+991788666
1361+987151619+982465404+977742511+972381881+965482789+956218597+944068908
1351+928667679+909864611+888593586+867684352+851345521+843384377+845754993
1341+858593448+880182677+906050881+930540424+950560294+966153616+978450214
1332+988384236+996407174+1002598363+1006999065+1009784695+1011170334+1011531594
1322+1011836509+1013574903+1017621123+1023151187+1028377399+1032262557
1313+1034916094+1036780069+1038111289+1039017463+1039490483+1039410151
1305+1038647631+1037108505+1034789450+1032027940+1029646029+1028582115
1296+1029197460+1030927881+1032686939+1033646268+1033626335+1032804214
1288+1031162962+1028303845+1023837030+1017968098+1011737241+1006661526
1279+1003949517+1003856162+1005737280+1008701048+1012130926+1015622000
1271+1018669422+1020655921+1021120569+1019842703+1016556811+1010761832
1262+1002236372+991982020+982245937+974895287+969586749+963776820+954739138
1252+941875301+927326558+914392356+905257265+899912184+896692935+893420664
1242+888208937+879816766+867740697+852102593+833546101+813554404+794990072
1232+781760324+777122546+781909691+794322036+811288638+829987586+848503480
1222+865730411+880999083+893750895+903490433+909995906+913443923+914244383
1213+912838479+909673582+905304574+900638691+897288280+897394260+902443264
1203+911976823+923609373+934281729+941472845+943789109+941152714+934430631
1193+924282259+910234376+891684994+870634101+852948767+845480509+851295953
1183+867977839+890012181+911843668+929194652+939171531+940263351+932912037
1173+920648395+909908265+906442972+910216170+914391093+911337691+900648657
1163+890123144+887551400+892260472+896278586+893389967+885380052+879532050
1153+881878081+893419468+911154702+931001019+949778439+965754681+978475928
1143+988286296+995740069+1001312192+1005468245+1008662776+1011133324+1012788131
1133+1013249856+1011779765+1007070095+997584575+983242541+967490218+956750155
1123+956114611+965235548+979091605+992500688+1003158825+1011087743+1016896011
1113+1021042496+1023886066+1025776884+1027042325+1027899329+1028330356
1105+1028098730+1026938006+1024716758+1021601164+1018360587+1016389171
1096+1016873952+1019773601+1023917959+1028059129+1031539106+1034175567
1088+1035912367+1036566648+1035692568+1032357705+1024939547+1012318433
1079+996872553+985418408+984521802+994359347+1008710350+1020798710+1027583517
1069+1029009887+1025919408+1020137784+1015187385+1014702936+1019511476
1061+1027082391+1034197693+1039462975+1043126141+1045655958+1047261263
1052+1048227902+1049007099+1049928356+1050971605+1051880237+1052539568
1044+1053147538+1053908862+1054669122+1055035698+1054851447+1054383809
1035+1053965406+1053641023+1053343217+1053193717+1053288467+1053313583
1027+1052694517+1051025359+1048136673+1044008261+1038925703+1033382084
1018+1027138470+1018093147+1002372517+976563249+941663475+905897660+882138013
1009+879711318+897642697+926347627+955413220+979130010+996379533+1008198194
999+1016159139+1021643290+1025487584+1027967368+1028872944+1027523185
990+1022991653+1014699614+1002682216+986627370+964810302+935822383+902904988
980+875592142+864609621+873571092+895535202+918369739+934290234+944536812
970+955079468+969040374+984266189+996899928+1005060939+1008995199+1009342838
960+1005957876+997731019+983401810+963463733+941773375+924707306+917698713
950+921021017+927570742+926587293+913968970+899518100+899488731+920206870
941+952373306+981943480+1002141555+1014090913+1021047214+1025267120+1028150291
931+1030530674+1032557771+1033970984+1034623073+1034591246+1033851317
922+1032095581+1028752612+1022714113+1011901891+993165069+963194299+921944998
912+877391931+844807756+836752459+852319734+877244556+894416206+894892083
902+882213361+868465211+864618990+872802592+887661034+903815614+919930659
892+936507163+952814831+966944441+977395603+983612572+985306515+981754578
882+972133377+957212677+941040622+930031191+929091264+938310075+953523000
873+969604291+983003473+992194045+997039196+998138791+996558535+993784865
863+991296576+989526554+987002982+980223026+963567918+929744084+874188098
853+803686095+739787638+707798609+718885913+763384629+820651235+873166310
843+912743729+938545356+952790645+958388616+959065289+959563957+963772767
833+972343609+982849056+992295639+999139648+1003345534+1005395488+1005559141
823+1003809319+1000012400+994090644+986219599+976864510+966190758+953303200
813+936552677+914999993+889637167+863609694+841828839+829621143+829844863
803+840277221+854463574+866239378+874032617+881139946+892077484+908445484
793+927809080+946032882+960344816+970437641+977554472+983113971+987936863
783+992273446+996257474+1000092997+1003770382+1006914481+1009124965+1010387881
773+1011167610+1012188201+1013958223+1016316148+1018582246+1020303099
765+1021687143+1023281684+1025407916+1027874744+1030098850+1031604687
756+1032426675+1032827470+1032732387+1031722427+1029453538+1025813362
748+1020769674+1014153371+1005430637+993838154+979389809+964175157+952291047
738+947699914+951622015+961720754+973624730+983279219+988104038+986500195
728+976671023+955312556+916897456+856638311+779127184+705502677+665560810
718+675290979+724342090+788226594+847207874+893193091+926314006+949699569
708+966331422+978064768+986034749+991255446+994598282+996481393+996720262
698+994648315+989849874+983403936+978249617+977632212+982810584+992170989
688+1002475374+1011004887+1016813686+1020467483+1022942351+1024725263
680+1025700938+1025643463+1024526593+1022218834+1018369955+1013037232
671+1006562324+998021981+984958743+967810482+950728732+934356612+917887350
662+903575150+895513541+895663374+902738345+913632095+924833949+933533760
652+937959645+936689952+927812335+909324681+880661677+844035203+805272929
642+773573732+758632234+765689863+792036736+827423550+858542086+877518707
632+888280099+901422539+922091841+945958397+966360857+981027008+991336841
622+998960181+1005002268+1010269277+1014904928+1018411749+1020391338+1020948078
612+1020629210+1020275857+1020449145+1020692797+1019708219+1016205717
603+1008982906+996302324+976441257+949963155+921510449+898772390+888853916
594+894411621+912383465+936358327+960291394+980467277+995491034+1005987378
584+1013903207+1020838511+1027022657+1032053920+1035885789+1038839125
575+1041347149+1043743678+1045766589+1046638277+1046289110+1045923398
567+1046502331+1047453023+1047844449+1047933086+1048576072+1049763307
558+1050523834+1050065431+1048626172+1047257742+1046840602+1047303921
550+1047670895+1046707181+1043948926+1040544164+1038324444+1037470696
541+1036135820+1032952585+1028767695+1025354296+1023670120+1023916498
533+1026040670+1029348688+1032301094+1033475306+1032697172+1030884027
524+1028544773+1024924597+1018883374+1009284366+993275367+964411833+914506043
514+840543265+753199379+678919328+646985382+668322719+727045196+793956059
504+847995975+883023057+899806071+900961346+893345715+888356710+895888289
494+917216856+945049101+970933119+991192324+1006076148+1016259670+1022275445
484+1025743263+1028706898+1031820566+1034516828+1036499938+1038004446
476+1038951417+1038905836+1038326039+1038982712+1041559373+1043791452
467+1042728668+1037902786+1031323692+1025571836+1023282814+1026640732
459+1035189049+1044586065+1049941711+1050483369+1048542252+1046912628
450+1047828369+1051592797+1056268913+1059351484+1059530885+1057211166
442+1054241883+1052922821+1054005605+1055562140+1054398028+1049692942
433+1044742542+1043250525+1045197689+1047839864+1049634205+1051435323
425+1054224674+1057288375+1059065905+1058922517+1057791229+1057366647
416+1057877142+1058315544+1058272820+1058275810+1059331817+1061451670
408+1061974258+1056164661+1040448284+1014482074+979201571+934455150+883150498
398+841643657+832021660+851609905+879539890+904161060+925825637+947707090
388+969982494+989855190+1003911511+1010686417+1010859639+1003723671+987899388
378+967167629+953983595+962945862+988030883
##END=
