##TITLE=X7426
##JCAMP-DX=4.24
##DATA TYPE=INFRARED SPECTRUM
##DATE=29/10/2018
##SAMPLING PROCEDURE=Diamant-ATR
##ORIGIN=ComPlat
##XUNITS=1/CM
##YUNITS=TRANSMITTANCE
##RESOLUTION=4
##FIRSTX=3997.453
##LASTX=373.96442
##DELTAX=-1.4165319
##MAXY=0.98999745
##MINY=0.54197752
##XFACTOR=1
##YFACTOR=9.2200697e-010
##NPOINTS=2559
##FIRSTY=0.97031558
##XYDATA=(X++(Y..Y))
3997+1052395053+1052894254+1053681391+1054247050+1054447002+1054234702
3989+1053610409+1052982497+1052949204+1053527597+1054136827+1054428254
3980+1054584052+1054719810+1054595753+1054079744+1053444591+1053039515
3972+1052929487+1052992064+1053159499+1053439936+1053792002+1054069142
3963+1054141740+1054074572+1054058734+1054112261+1054014774+1053568971
3955+1052787910+1051924813+1051449208+1051814785+1052967951+1054112972
3946+1054368327+1053743582+1053181932+1053554361+1054637968+1055553364
3938+1055870456+1055549162+1054580238+1053395524+1052980105+1053718951
3929+1054732675+1055165678+1055084029+1054852465+1054524513+1053942047
3921+1053062917+1052081452+1051385078+1051343963+1051958817+1052854690
3912+1053723864+1054552246+1055281008+1055488200+1054763124+1053293253
3904+1051851051+1051163534+1051463172+1052530423+1053705699+1054332965
3895+1054326759+1053992406+1053728971+1053889424+1054372141+1054685354
3887+1054558000+1053982322+1052969955+1051681613+1050689287+1050771259
3878+1051923391+1053243992+1053982580+1053785214+1052744920+1051670817
3870+1051721823+1053149479+1054827447+1055686407+1055399440+1054169732
3861+1052660104+1051585031+1051249450+1051481596+1051851763+1052036264
3853+1052363247+1053444526+1054836950+1055870908+1056298610+1056074480
3844+1055225282+1053957562+1052783062+1052194713+1052255416+1052728694
3836+1053461464+1054345054+1055079116+1055341064+1055149710+1054810897
3827+1054555866+1054480359+1054672489+1055191666+1055854941+1056080299
3819+1055553299+1054784651+1054395801+1054454307+1054439244+1053936358
3810+1052975903+1051946728+1051581863+1052321291+1053317754+1053378328
3802+1052499069+1051918866+1052572766+1054104633+1055751894+1056740211
3793+1056644534+1055813567+1054984603+1054706364+1055064635+1055669081
3785+1055870844+1055275771+1054083494+1052830448+1052109185+1052261234
3776+1053005640+1053797497+1054364060+1054660723+1054611980+1054126742
3768+1053388154+1052882553+1053041067+1053822063+1054633895+1054794413
3759+1054066685+1052983790+1052370875+1052343723+1052339069+1051853185
3751+1051090096+1050769255+1050848705+1050790329+1050516034+1050305674
3742+1050357197+1050463670+1050237148+1049509098+1048653758+1048471843
3734+1049296540+1050773004+1052520661+1054051106+1054785168+1054566986
3725+1053859622+1053258215+1052950691+1052881583+1053029947+1053332106
3717+1053601553+1053605561+1053253237+1052785648+1052738132+1053393326
3708+1054387333+1055161735+1055368216+1055022486+1054502792+1054205676
3700+1054143938+1054163267+1054295793+1054676174+1055417865+1056479039
3691+1057425078+1057483454+1056414263+1055126826+1054300642+1053673569
3683+1052879450+1051966963+1051286492+1051049627+1051274468+1052228458
3674+1053797368+1054636675+1053983550+1052742011+1052830254+1054645273
3666+1056581310+1057434969+1057032091+1055766116+1054179817+1052795280
3657+1052271255+1053081406+1054482751+1055062502+1054370848+1053019475
3649+1051861201+1051192949+1051193789+1052117654+1053596058+1054886017
3640+1055681106+1056193107+1056355305+1055649881+1053994281+1052181460
3632+1051038960+1050665238+1050813408+1051437507+1052332733+1053049665
3623+1053376065+1053459524+1053655210+1054181627+1054817879+1055108724
3615+1054864619+1054358436+1054145166+1054506800+1055401897+1056797682
3606+1058254817+1058854674+1058235423+1056905965+1055537202+1054402525
3598+1053484219+1052693914+1051918930+1051213959+1050753998+1050529739
3589+1050571824+1051306404+1052988380+1054860740+1055933551+1055882415
3581+1055076078+1054444933+1054665766+1055326454+1055655247+1055676128
3572+1055765728+1055751894+1055382180+1055099674+1055429436+1055757841
3564+1055278487+1054390953+1053942241+1054249312+1054970316+1055520911
3555+1055474366+1054829645+1054203930+1054361409+1055212547+1055878407
3547+1055750278+1055021645+1054359147+1054375114+1055282882+1056599928
3538+1057384803+1057184851+1056470053+1055857009+1055475659+1055295295
3530+1055337056+1055429307+1055307836+1055060757+1055091335+1055596807
3521+1056263960+1056552801+1056254909+1055742067+1055595384+1055919781
3513+1056188323+1055927474+1055390325+1055257606+1055727134+1056339014
3504+1056677698+1056798975+1056922450+1056960786+1056654102+1056060000
3496+1055603982+1055568944+1055770383+1055889979+1055900775+1056005438
3488+1056328219+1056783201+1057174831+1057348989+1057272964+1057009206
3479+1056622813+1056197244+1056007442+1056419564+1057370904+1058222106
3471+1058410422+1057908570+1056942038+1055796435+1054944587+1054776441
3462+1055141759+1055577348+1055925082+1056410643+1057185950+1057975350
3454+1058307246+1058204781+1058324830+1059068007+1059897100+1059967371
3445+1059196848+1058269234+1057811600+1057834614+1057755551+1057065255
3437+1056057931+1055563772+1055896508+1056492486+1056700066+1056525455
3428+1056423637+1056604454+1056736527+1056285164+1055119327+1053758773
3420+1052911967+1052862707+1053431144+1054249829+1054866752+1054927132
3411+1054521927+1054158613+1054305943+1055063730+1056159879+1057108697
3403+1057493733+1057240189+1056606587+1055919329+1055347529+1054876126
3394+1054475058+1054227720+1054206516+1054309498+1054382937+1054397159
3386+1054340852+1054127906+1053886968+1054121829+1055110341+1056298546
3377+1056859161+1056772923+1056731484+1057059372+1057320221+1056999768
3369+1056196210+1055541663+1055452774+1055611934+1055563384+1055615942
3360+1056409221+1057704093+1058463949+1058163407+1057303413+1056598118
3352+1056313027+1056446586+1056907452+1057341942+1057315890+1056854054
3343+1056394546+1056172549+1056049462+1055827336+1055336539+1054501369
3335+1053691800+1053653206+1054726340+1056354724+1057561676+1057838622
3326+1057507502+1057239865+1057317571+1057461991+1057290742+1056801109
3318+1056392542+1056417625+1056783848+1057157829+1057409821+1057538856
3309+1057398250+1056922580+1056442384+1056376122+1056719977+1057043663
3301+1056996600+1056694765+1056482918+1056416849+1056297835+1056128525
3292+1056112816+1056253616+1056336623+1056289624+1056258723+1056297317
3284+1056232154+1056019854+1056017591+1056473544+1056928462+1056787727
3275+1056341083+1056376574+1056908810+1057218079+1057014572+1056642595
3267+1056277212+1055817704+1055536233+1055979773+1057086588+1058028037
3258+1058108328+1057437943+1056612728+1056013389+1055577348+1055168846
3250+1055006389+1055493307+1056577625+1057560060+1057823495+1057649919
3241+1057856723+1058557816+1058848985+1058067278+1056819533+1056194529
3233+1056463912+1057086976+1057505498+1057478153+1057058919+1056623718
3224+1056628244+1057121174+1057716117+1058106777+1058384886+1058752467
3216+1059182109+1059540057+1059789593+1059840405+1059456469+1058584903
3207+1057588763+1056921545+1056696122+1056723533+1056870733+1057233530
3199+1057943221+1058942916+1060001440+1060795365+1060980837+1060470128
3190+1059617310+1058811619+1058076263+1057450419+1057364504+1058081758
3182+1059149204+1059915913+1060239210+1060303405+1060141659+1059716542
3173+1059114100+1058372216+1057469038+1056662054+1056369916+1056572777
3165+1056850887+1057071525+1057444472+1057920788+1058139229+1057880966
3156+1057165457+1056191168+1055414762+1055220563+1055428208+1055595126
3148+1055615425+1055575732+1055424782+1055165484+1054899722+1054505895
3139+1053817473+1053101059+1052812605+1052983725+1053284009+1053518547
3131+1053745392+1054024277+1054287066+1054385005+1054162880+1053564252
3122+1052799870+1052304677+1052274487+1052335384+1052010729+1051367301
3114+1050773198+1050242385+1049533470+1048715884+1048212933+1048315204
3105+1048804708+1049078422+1048722478+1047897716+1046955491+1045911771
3097+1044622782+1043117292+1041287339+1038494282+1033903143+1027225986
3088+1019137464+1011093354+1004684611+1000950169+1000100906+1001652813
3080+1004723916+1008358285+1011777186+1014572184+1016845030+1019009658
3071+1021229170+1023157062+1024325162+1024605470+1024351086+1024291223
3063+1025094005+1026796344+1028847259+1030680055+1031925473+1032343219
3054+1032162015+1032245603+1033310010+1035137053+1036930350+1038212422
3046+1039051406+1039611893+1039834277+1039606010+1039103318+1038759010
3037+1038840852+1039258340+1039822770+1040425664+1040925318+1041104389
3029+1040814385+1040093251+1039193306+1038399445+1037714385+1036937849
3020+1036053096+1035119534+1033903789+1032231575+1030545720+1029502840
3012+1029254726+1029646808+1030723045+1032523648+1034732300+1036912960
3003+1038891471+1040741786+1042508837+1044019435+1045017773+1045527835
2995+1045878802+1046277801+1046576921+1046493397+1045800515+1044332454
2986+1042013515+1038885264+1035163364+1031363176+1028161940+1025971906
2978+1024881382+1025009770+1026464707+1028860705+1031296461+1032990138
2969+1033745275+1033773009+1033308070+1032562307+1031878022+1031525245
2961+1031315402+1030771466+1029696974+1028289100+1026835650+1025578725
2952+1024654214+1023939739+1023181887+1022324478+1021483102+1020695900
2944+1019977676+1019500390+1019485004+1020003276+1021026374+1022546863
2935+1024433963+1026178517+1027111173+1027096887+1026815415+1027159400
2927+1028483234+1030452629+1032443939+1034099991+1035561199+1037087765
2918+1038577353+1039687788+1040292040+1040581398+1040848324+1041277319
2910+1041805870+1042200473+1042394348+1042610850+1043026010+1043497414
2901+1043778433+1043859176+1043937399+1044123775+1044357796+1044626596
2893+1045079834+1045816159+1046736469+1047721619+1048798244+1049986643
2884+1051085247+1051766752+1051922615+1051824676+1051833274+1051992304
2876+1052075957+1052001355+1051981896+1052225873+1052624742+1052813769
2867+1052492540+1051678122+1050689675+1049901955+1049441671+1049071763
2859+1048390129+1047125253+1045190056+1042524288+1039010420+1034556526
2850+1029350274+1024187788+1020457031+1019463218+1021553309+1025825611
2842+1030707078+1034976212+1038334540+1041012139+1043103651+1044599122
2833+1045765088+1046971653+1048248295+1049376055+1050288025+1051113951
2825+1051932571+1052660557+1053141398+1053254013+1052995943+1052556217
2816+1052281404+1052430285+1052928840+1053480922+1053902612+1054227332
2808+1054549984+1054899075+1055217719+1055396725+1055371578+1055189145
2799+1054935924+1054662210+1054441442+1054417652+1054665184+1055020999
2791+1055222826+1055229420+1055220757+1055296846+1055394786+1055471133
2782+1055544701+1055592734+1055557760+1055407327+1055146737+1054851108
2774+1054630663+1054505313+1054411058+1054313700+1054257393+1054401426
2765+1054968571+1055906141+1056711508+1056921093+1056655589+1056394029
2757+1056386918+1056507613+1056512267+1056297253+1055976476+1055748532
2748+1055678520+1055682075+1055699401+1055741162+1055755191+1055632233
2740+1055424006+1055408556+1055781114+1056351815+1056709181+1056664058
2731+1056372049+1056047070+1055789583+1055693001+1055839296+1056112816
2723+1056266222+1056243855+1056239588+1056397972+1056657852+1056889287
2714+1057027243+1057094863+1057186984+1057397215+1057745790+1058205169
2706+1058716782+1059144420+1059336614+1059289551+1059129551+1058909752
2697+1058580055+1058193662+1057932942+1057837329+1057735640+1057567494
2689+1057478217+1057482678+1057386355+1057176253+1057098289+1057209611
2680+1057236504+1057003582+1056676599+1056465722+1056376316+1056359184
2672+1056451435+1056623460+1056694959+1056544461+1056261180+1056011321
2663+1055891401+1055897995+1055913834+1055795983+1055567974+1055433638
2655+1055586786+1056079200+1056733811+1057128415+1056949343+1056435467
2646+1056165309+1056363710+1056703040+1056759864+1056419629+1055832314
2638+1055174276+1054512683+1053892398+1053513827+1053676414+1054400715
2629+1055229678+1055661841+1055732564+1055830310+1056007701+1055970723
2621+1055740193+1055684338+1055822359+1055778464+1055518132+1055424846
2612+1055562027+1055594479+1055546835+1055900387+1056769820+1057641062
2604+1058076975+1058109427+1057831511+1057167073+1056226788+1055467125
2595+1055271957+1055609930+1056231378+1056973457+1057711592+1058210858
2587+1058268329+1057989637+1057779471+1057983754+1058510624+1058904710
2578+1058909235+1058767077+1058735013+1058629380+1058241953+1057805782
2570+1057587082+1057462702+1057415252+1057954728+1059411927+1061109225
2561+1061822148+1061039148+1059350966+1057680174+1056572324+1056187224
2553+1056457124+1057069004+1057540795+1057491858+1056901311+1056209786
2544+1056076097+1056800656+1058035084+1059170796+1059814288+1059859929
2536+1059462223+1059007240+1058816597+1058902059+1059153341+1059561261
2527+1060111016+1060674218+1061082267+1061142712+1060682104+1059842345
2519+1059249794+1059562037+1060742937+1061981566+1062501843+1062348177
2510+1062164969+1062321284+1062581099+1062648978+1062660744+1062841948
2502+1062905690+1062294262+1061043285+1059907185+1059491184+1059723912
2493+1060238693+1060737377+1060933515+1060680165+1060274831+1060295065
2485+1061087827+1062497770+1063900602+1064483973+1063875389+1062616073
2476+1061656071+1061333678+1061258300+1061196045+1061476159+1062336476
2468+1063389764+1064004618+1063958978+1063594952+1063437861+1063638589
2459+1063823349+1063621264+1063161949+1062817383+1062705673+1062700502
2451+1062685374+1062591378+1062369511+1062063021+1061801008+1061694535
2442+1061784006+1061989712+1062048476+1061624976+1060666395+1059620477
2434+1059112678+1059382061+1060117610+1060781660+1060998808+1060772157
2425+1060410136+1060148317+1059932139+1059768130+1059991420+1060761943
2417+1061600862+1061925065+1061801138+1061728022+1061959134+1062417479
2408+1062974086+1063481627+1063801563+1063968998+1064086396+1064059244
2400+1063768916+1063411097+1063287299+1063340503+1063262539+1063015589
2391+1062958700+1063405408+1064139665+1064430252+1063725668+1062400283
2383+1061473056+1061429743+1061739529+1061746964+1061519537+1061451012
2374+1061556127+1061606034+1061548369+1061462777+1061263278+1060555009
2366+1059052234+1057466387+1057220019+1058575141+1060042297+1060372318
2357+1060005319+1059925028+1060174047+1060045400+1059209390+1058174785
2349+1057679204+1057958283+1058541008+1058754859+1058649227+1058881373
2340+1059563847+1060095372+1060125238+1060017214+1060237982+1060774161
2332+1061312151+1061562462+1061290882+1060489975+1059605544+1059198464
2323+1059346311+1059658813+1059838983+1059870789+1059770522+1059578199
2315+1059419620+1059269382+1058880920+1058193338+1057595486+1057590573
2306+1058279448+1059216307+1059797803+1059878805+1059960777+1060617458
2298+1061783877+1062726554+1062693197+1061609073+1060230354+1059506505
2289+1059698635+1060320471+1060978445+1061813808+1062911250+1063824448
2281+1064094800+1063889095+1063755017+1063944691+1064196619+1064116974
2272+1063691922+1063338564+1063387760+1063728512+1064168497+1064820653
2264+1065697519+1066165238+1065460783+1063823478+1062416961+1061866366
2255+1061658333+1061369492+1061386623+1061880200+1062392784+1062959023
2247+1064152594+1065582125+1065900898+1064851424+1063944949+1064445767
2238+1065589560+1065565058+1063878105+1061859643+1060860852+1060882250
2230+1061135730+1061229597+1061628725+1063132276+1065757188+1068345316
2221+1069634370+1069243516+1067493855+1065204007+1063712351+1064084715
2213+1066182434+1068817560+1070699940+1071387393+1071555603+1071958158
2204+1072237625+1071558318+1070016432+1068498464+1067526954+1066835300
2196+1065779944+1064027438+1061990617+1060428819+1059640195+1059254190
2187+1058806189+1058401501+1058706051+1060062337+1061824087+1063156260
2179+1064136820+1065309704+1066406887+1066248050+1064244457+1061563691
2170+1060030790+1060039582+1060342645+1059773690+1058448757+1057734671
2162+1059454917+1063881660+1068291401+1069817061+1069176543+1068793382
2153+1069624867+1071127966+1072343258+1072684915+1072319209+1071509252
2145+1069775558+1066626492+1062595645+1058767853+1056028000+1055199488
2136+1056858062+1060528116+1064806624+1068320880+1070065563+1069536754
2128+1067302695+1064801776+1063088640+1062348177+1062515483+1063296867
2119+1063756569+1063175590+1062231684+1062118811+1062696429+1062696170
2111+1061669259+1060627672+1060641894+1061614891+1062639411+1063130984
2102+1063297125+1063557069+1063853539+1063838476+1063528948+1063304430
2094+1063265190+1063099113+1062657188+1062226771+1062100258+1062216945
2085+1062323289+1062127668+1061325985+1060032923+1059139765+1059474958
2077+1060657797+1061623165+1062080153+1062377139+1062398408+1061924871
2068+1061637582+1062496929+1064405104+1066253093+1067019866+1066431841
2060+1064921243+1063414071+1063057868+1064493864+1066678467+1066990258
2051+1063926848+1059491895+1057487591+1059367127+1063271396+1067012173
2043+1070068084+1072558079+1073741823+1072402862+1068678376+1064668086
2034+1062428339+1062072266+1062717698+1063945143+1065171296+1065338795
2026+1064640870+1064931909+1066993943+1068678957+1067386089+1063598249
2017+1060283881+1059559063+1061527424+1065006641+1067629937+1067265523
2009+1064847804+1063389699+1063489708+1062851581+1060467478+1058318042
2000+1058820993+1061965340+1064864289+1064536531+1061404595+1058831530
1992+1058907037+1060235138+1060575050+1059461576+1057354742+1054454759
1983+1051366266+1049728121+1051227082+1056034464+1062128379+1066269254
1975+1066706718+1064930164+1063679446+1063603292+1063232220+1061915304
1966+1060772868+1060415631+1060041262+1059371135+1059518336+1061225395
1958+1063297643+1063607752+1061376215+1058123585+1056395128+1057614234
1949+1061021629+1064441953+1066181529+1066255355+1065772962+1065620073
1941+1066072276+1067151099+1068663507+1070083987+1070939327+1071171408
1932+1070911335+1070356020+1069929740+1069867874+1069682661+1068846586
1924+1067793169+1067275608+1067030598+1066311210+1065265357+1064649145
1915+1064459472+1063997378+1063083791+1062421164+1062685698+1063600447
1907+1064449452+1065084928+1065641729+1065908074+1065766627+1065596412
1898+1065614642+1065505519+1065103611+1064774818+1064761113+1064690907
1890+1064133653+1063575429+1064206122+1066280891+1068408670+1068938126
1881+1067859561+1066576261+1066017973+1065911306+1065752986+1065618521
1873+1065790093+1066102466+1065923459+1064896160+1063713385+1063324988
1864+1063712868+1064168756+1064169726+1063742347+1063226854+1063004018
1856+1063310313+1063979535+1064492118+1064450357+1063905579+1063272366
1847+1063014038+1063276568+1063738468+1063939907+1063810032+1063597732
1839+1063523065+1063537611+1063272172+1062496412+1061431876+1060428108
1830+1059843961+1060127307+1061317839+1062775362+1063696900+1063736787
1822+1063154192+1062440428+1062032767+1062108145+1062411337+1062506303
1813+1062175959+1061430066+1060405805+1059494934+1059207450+1059578328
1805+1060058523+1060220140+1060239081+1060471550+1060924400+1061391601
1796+1061668483+1061567440+1061093516+1060602912+1060513054+1060855616
1788+1061315512+1061461614+1061086405+1060494047+1060101578+1059908931
1779+1059659007+1059286060+1058984419+1058897664+1058845364+1058487481
1771+1057902429+1057471688+1057254088+1056997570+1056398489+1055282753
1762+1053746038+1052111189+1050589278+1049207263+1047968698+1046795879
1754+1045580522+1044224624+1042527908+1040536663+1038694104+1036882189
1745+1034413010+1031010400+1026641774+1020797072+1013361869+1005514285
1737+997807631+988636149+976052618+961185121+945091730+925038345+898342712
1727+864415126+823216345+776593905+731018353+693027532+664415903+646116058
1717+642506772+654687490+675892555+700850098+728172544+756753854+785503957
1707+814870465+843940374+868309503+887186126+906414555+929362429+949807766
1697+964583723+977142948+987444841+994064785+998441750+1002259134+1005673769
1687+1008384402+1010751632+1013316293+1015501156+1016383711+1016378863
1679+1016499817+1017610187+1020090291+1023268125+1025739049+1027050018
1670+1027918868+1028691266+1028507217+1026616627+1022691542+1016498782
1662+1008662641+1000336543+991889814+983527514+976320836+973529072+980522415
1652+992931594+1001605298+1007821912+1015016888+1022930993+1028328922
1643+1030637130+1031257932+1031142990+1030750779+1030201670+1029332173
1635+1028027022+1026282598+1023817298+1020204780+1015326351+1009915363
1626+1005340774+1002384677+1000501909+998247681+994596956+988849354+979340416
1616+964516814+945484523+922801054+893788939+855737608+809558192+761095651
1606+718445424+687986970+672769929+672323479+683005753+700337385+721704067
1596+746256793+772828692+798745526+820975822+837997991+850231461+859505602
1587+868457997+879519229+893589181+909389335+924353543+936890787+947932561
1577+959682410+971350674+979590598+984525722+988704868+993763273+998936814
1567+1002882586+1005683530+1007703608+1008878302+1009564332+1011772726
1558+1017364272+1022761490+1025809966+1027722084+1029231971+1030510229
1550+1031672898+1032662897+1033274131+1033521210+1033662916+1033944775
1541+1034883185+1037286747+1040097971+1041610443+1041861466+1041754476
1533+1042152247+1042932596+1043372258+1043223441+1042642009+1041796238
1524+1040689746+1039403924+1038413861+1038025723+1037858999+1037709536
1516+1037743734+1037846264+1037656720+1036922851+1035441021+1033133007
1507+1030607328+1028613303+1025692180+1019324875+1006558199+983500815+947602863
1497+904458865+870874617+858566998+864355651+881529028+904052109+923163916
1487+933068814+936857947+939753211+944740828+952500363+961027771+966701159
1477+966775115+960727681+950888205+942926520+942560879+948559698+955471134
1468+959882491+959736907+953903906+944932764+937608559+934634685+937187063
1458+945753970+956600317+964709267+970909138+977306180+984145148+990153341
1448+992847554+988697111+974655862+951142266+924729463+905919815+902025049
1438+914032644+935493774+954349968+966103436+975174135+985449587+996697972
1428+1006278344+1012864155+1017070970+1019864739+1021879386+1023792345
1419+1026510542+1030194171+1033709009+1036258672+1037919314+1038977644
1411+1039630446+1039805251+1039291439+1038139242+1036664588+1035044673
1402+1033070882+1030343246+1026615463+1021850231+1015489713+1005830925
1394+991470775+973508385+955086293+940442150+935175906+942858512+959615242
1384+977949479+993691645+1005764274+1014192191+1019593934+1022757094+1024264330
1374+1024495441+1023586639+1021322649+1017183714+1010610638+1001322727
1366+988895382+972193796+950632205+925887672+899976785+873054372+845703158
1356+821492672+805872882+802564849+811578981+829851675+852328210+873577363
1346+890139443+901802018+910974729+920882730+933332314+947072309+959159225
1336+968306335+975349198+981357908+986473396+989995991+990988187+988621474
1326+982283971+972095856+959597593+947640358+939449695+937381197+941604432
1316+949852243+958889325+966289037+971456759+975430717+979224828+982225854
1306+982527366+978954088+972687502+966982501+965193083+968608299+975870443
1296+984172946+990711047+993412113+991643575+987175006+983737227+984258344
1286+988302508+992817235+995033580+993946547+989605978+982001530+970727610
1276+955335441+935955803+913913112+892044320+874156468+863269070+859703679
1266+860701435+861769398+858720469+849532437+835404045+820177824+807778147
1256+799413261+793163031+786229744+777296744+766401459+753218136+737000042
1247+718621263+701714423+691045208+689558465+696571202+708208371+719316667
1237+725355179+723409057+712488496+693567008+669491892+644456449+622753024
1227+607399190+599666613+599494782+605999397+617912026+634053384+653480796
1217+675209046+697917210+719808886+738470235+750628198+752210036+740008567
1207+715246579+685509323+660868290+646777070+641458721+639923104+638848936
1197+637723050+637378161+638324329+639727161+640105149+639971977+643236309
1187+654292111+673200798+694536255+711570061+721785392+728599277+737809353
1177+752278174+769713823+784524431+791316917+787845070+775824675+758731912
1167+738623965+715574403+689884025+664069850+643138046+633058796+637252617
1157+653519713+675477200+697461192+717288637+735093612+751503707+767010042
1147+781484035+793660681+801519901+803167097+796918936+780614344+751842520
1137+710464280+662056430+618222782+591411044+587823673+604861681+634737475
1128+669611553+703842655+733977553+758761649+778711858+794234678+803766307
1118+803952295+792122155+769765540+743982848+723752266+713026420+708034084
1108+702415775+694333976+687807511+688235989+697954575+715541239+737811098
1098+761803209+785481007+807612458+827637980+845560677+861589680+875828876
1088+888294428+898872297+906955389+911069501+908709834+896897343+874626902
1078+846336307+822028398+811594109+817944671+835766066+856242369+871778830
1068+877301527+871008306+856534895+842635482+837543913+842973196+854137346
1058+864528839+869101554+863630186+844181764+810210154+768861069+734213384
1048+719318218+727624923+752235119+782651359+811122447+833938312+849880365
1038+858900445+861282673+856739760+844045877+822371543+794141781+766606001
1028+749073705+747230500+759997564+781751220+806761708+831399639+853738670
1018+872947188+889200773+903194313+915397140+925940230+934986750+942862908
1009+949906805+956335330+962189923+967391779+971938829+976024432+979872522
999+983499586+986730043+989421153+991592569+993352897+994773183+995831901
989+996452121+996587620+996223724+995218016+993225349+990035490+986027851
979+982021570+978353456+973935053+966174936+951664611+926775012+888796538
969+839453122+788295915+748857074+727901545+720582900+719194743+723783814
959+740095904+769628619+806423736+842692629+874072104+899797197+920567319
949+937095846+949741697+958693446+964131649+966035234+964078575+958472677
939+951288303+946167644+945823788+950033318+956402240+962482126+966910162
929+969393368+970292150+970265839+970242178+971289712+973881137+977288079
919+980048749+980925681+979034314+973026186+961175424+944149764+927917835
909+921135757+927500541+942023019+956174942+965125591+968929852+968980405
899+965668558+958811361+948327229+933810569+914039302+887656818+854783359
890+817962707+781316794+748703732+722361006+702654644+689194892+682998254
880+687313869+704867692+733967274+768463751+801762067+829925695+851332264
870+865306861+872059719+873241330+871572930+869471785+868032040+867100482
860+865654337+862536301+858556202+857822333+864499684+877274375+888468456
850+888868554+872894695+841520715+803712068+774143669+765183452+778933855
840+807475666+840220284+870115084+894335074+911960913+922496245+926117103
830+924490917+921163813+920719368+926308586+937423152+950697110+962921077
820+972751308+980151214+985280989+987948244+987931371+986109953+984969715
810+987132986+993193995+1001268812+1008598964+1013410613+1015487063+1015617132
800+1014761534+1013188487+1009947364+1003072776+989773736+967145863+936082446
790+905956081+891270047+899623168+924433446+951374606+969684860+975629247
781+968737011+950495024+927914538+913466792+916307494+933809082+954293531
771+966977976+967300304+954958939+930229469+892415263+842410835+788204699
761+744068440+718418014+705371936+695447385+691543310+705591864+740837013
751+785927780+826242518+854038824+867451772+865618717+848285015+820210212
741+794155615+785351584+799440413+826569759+849323370+857171147+853705765
731+849863815+850194354+846754894+827021510+787339145+738876863+701238172
721+689535774+705288865+738534817+777624502+815414983+848794625+876963748
711+900418192+919681208+934856552+946092589+952770650+951340344+935081975
701+899050140+848520394+801779910+779527376+788729048+818498951+852072338
691+879776135+900491954+915958596+927123069+933911224+934988625+927010196
681+906359670+874317373+840787946+820176531+821153859+840485335+866869952
671+891039324+911512653+930947629+947851624+957541378+960073199+956420017
662+944591817+922398435+893377463+868848075+861049881+872936780+896597900
652+921328210+941232390+955860372+966691139+974777527+980665025+984941723
642+988138305+990114941+990143385+987895557+983697728+977414464+967808944
632+953728261+935536311+915009454+894928530+879697072+874550554+881663235
622+897555316+915924592+932546210+946510077+957836037+965878208+970120837
612+971045542+969789005+967467286+964820524+962115450+959237382+955826174
602+951350558+945413928+938423042+931933813+928062385+928475477+933708880
592+942923870+954154218+965226893+974676679+981771065+986132514+987672591
582+986572887+983015318+976622995+965871096+948597775+924216945+895557477
572+868311960+849261955+843865513+852989997+871987574+893740971+911782811
562+921537730+921431192+913712966+903593312+897184697+898940306+909197593
552+923750778+936452419+943191507+944266451+942947336+941817636+941036899
543+939442972+935625847+927736824+914191480+895973866+877716429+865428268
533+862583299+868091062+877390480+884372640+882273240+866837500+842579886
523+821734191+814512322+823215181+843689739+869648141+895475569+917192636
513+933482617+945657646+955536815+963644214+969944610+975193141+979886034
503+982422509+980572064+974950522+967947352+959216114+945140603+923537961
493+898754834+880984445+878357594+889624080+906010708+918075709+920441193
483+912900035+897784036+876250954+848444175+817612904+791830728+779910665
473+786060370+806502475+832143657+856718039+878572997+897215469+912487783
463+924596097+933252152+938744400+943606344+950662201+959210683+966601668
453+972251266+976522663+978628010+977881988+975277634+972149125+968428000
443+964058340+961329606+962961287+968612695+975826807+982952676+990007304
433+997017779+1002303934+1003620656+1000894637+996291732+991418411+986265945
424+980821212+975314030+968227919+956895170+943459208+934296389+931001996
414+932358865+938050936+947014256+955813115+961095391+963329126+966181206
404+971805786+978431808+982177433+980074349+975025318+976233305+984769052
394+991624569+992614244+991570783+991274443+988723034+981899259+976505855
384+979411269+987151927+991773256+991358095+986807813+975875874+956672980
374+937014909
##END=
