##TITLE=X9422
##JCAMP-DX=5.0
##DATA TYPE=LINK
##BLOCKS=1


$$ === CHEMSPECTRA SPECTRUM ORIG ===
##TITLE=X9422
##JCAMP-DX=5.00
##DATA TYPE=INFRARED SPECTRUM
##DATA CLASS=XYDATA
##ORIGIN=ComPlat
##OWNER=
##XUNITS=1/CM
##YUNITS=TRANSMITTANCE
##XFACTOR=1
##YFACTOR=8.9319213e-010
##FIRSTX=3997.453
##LASTX=373.96442
##MAXX=3997.453
##MAXY=0.959057745955453
##MINX=373.96442
##MINY=0.2928079661310266
##NPOINTS=2559
##XYDATA= (X++(Y..Y))
2559A072154799A071700486A071160356A070658664A070390333A070613886A071393585
2552A072442214A073321611A073741823A073691640A073351974A072886917A072340648
2545A071757475A071228022A070740143A070202616A069741030A069689446A070185466
2538A070964831A071516906A071362554A070481423A069496923A068997900A068846018
2531A068711819A068742449A068975345A068680322A067043916A064363084A062235329
2524A062079043A063265407A063894091A063502840A063616618A065253959A067399932
2517A068628805A068388435A066652865A063814613A061196843A060467127A061653758
2510A062924539A062836786A061887388A061638210A062317610A062488111A061322767
2503A059991193A060520046A063283358A066572787A068770343A069561320A069073041
2496A066829705A062203631A055774454A049835559A046679127A046569153A048732008
2489A052434510A056179719A058075580A057438421A055828174A056248119A059157642
2482A061344388A060423551A057276996A054510747A052979645A052480021A054120965
2475A057570884A059509320A057683328A053044775A048158780A044789139A044135297
2468A046427614A048958631A048979652A047391360A047817712A051448407A055365186
2461A056633898A054371077A048687165A040763521A036465636A041246662A050023743
2454A056937863A060253184A060151751A057488871A053164092A047903262A042740728
2447A039665310A040512742A044335694A048501850A051821641A054394567A056121328
2440A056470871A055416904A053658177A051276239A047258229A042062261A039519900
2433A041395408A044745228A048375459A053370829A058750309A062065162A062225520
2426A059677085A056138478A053566554A051442936A047773535A043584090A043073188
2419A046856168A051458151A055483102A059300382A062507129A064464250A065401303
2412A065765194A065419053A064264321A063035248A062280240A061243823A059443189
2405A058479643A060174773A063400473A065492860A065028671A062154183A058407372
2398A056170710A056363566A057788298A059431310A060673797A060208406A057248768
2391A053471928A051913932A052598270A052186466A047862622A039768745A032561804
2384A031681207A034646918A036312019A036444549A038261332A042532591A045952614
2377A046000194A041935338A034965497A029662692A031319452A039382966A048538419
2370A054612647A056181254A053972219A050483328A048569983A049299433A052020770
2363A055600951A058800224A060412941A059457469A055385539A049110580A044712397
2356A046660309A053377836A059948485A063347020A062858941A059935072A058018924
2349A059300982A062092923A063896827A063924320A061934234A057087877A049396661
2342A042350412A041628370A047382017A054280455A059123075A061278857A060599524
2335A057139194A051113613A043008391A035937584A035001065A038268405A039855363
2328A039768878A042936721A050212395A057126849A061014865A062210371A061971003
2321A060821008A058429527A055072232A052397206A050907411A047944836A040607435
2314A029533899A021932705A025225137A035191252A044388012A050183300A052928995
2307A053875190A053861977A052845313A050757464A048239058A045774773A042362090
2300A036565601A030663942A031172240A037888432A044020318A045942738A043386829
2293A037803950A032504815A030728271A031705164A032764003A033377271A034306784
2286A035134596A035120182A035489678A037848260A040891246A041932335A040391890
2279A038253524A037460145A037621304A037466418A037240330A038142749A039795171
2272A039812521A036225133A030463011A027839569A030904044A036042354A039628941
2265A040884573A040478174A039282534A038123063A037613363A037645661A037121213
2258A034416425A028418938A020222426A014595704A015844263A021545525A026728679
2251A029509609A030767977A031650443A031923111A030679290A028079939A025694197
2244A024655511A023922258A021662974A017971617A015317012A015735890A018284324
2237A020430898A020624621A019135493A017385108A016451192A015978928A014816053
2230A012467882A009615082A007420060A006363290A005906976A005464675A005159108
2223A005304184A005719592A005945213A005667673A004695186A002885744A000348120
2216I97630586I95576703I94663473I94262947I93038545I90423579I87540349I86163397
2208I86555849I87257604I86966319I85851958I85044699I85072994I85193912I84391591
2200I82626259I80799132I79556179I78558466I77201267I75733694I75094666I75496661
2192I75953176I75581544I74590438I73556223I72392881I70740326I68837458I67324440
2184I66449314I65878554I65157847I64186627I63321044I62998127I63233691I63618402
2176I63844357I63972683I63910556I63025821I60993559I58821894I58057010I58871743
2168I60113429I61009107I61516406I61559248I61114745I60628134I60504279I60585092
2160I60586226I60562602I60682387I60950784I61207703I61125088I60408785I59309373
2152I58670146I59071206I60123839I60969135I61193956I61008107I60818788I60860696
2144I61126023I61518341I61938020I62166844I61907189I61179876I60405582I59916235
2136I59725515I59779167I59995847I60211725I60466241I61022054I61796748I62247323
2128I62095841I61764716I61856139I62471743I63230555I63748597I63919097I63868982
2120I63856435I64110285I64555389I64775204I64477112I63924636I63670654I63913759
2112I64397300I64909536I65478294I66063869I66601263I67368216I68620979I69855724
2104I70251913I69877879I69632972I70035968I70757610I71293269I71518423I71525430
2096I71298140I70794512I70271866I70278005I71129975I72530683I73881209I74850560
2088I75448681I75752846I75902993I76258142I77160361I78494136I79761447I80620824
2080I81170563I81724240I82386423I82876838I82865293I82420323I81925371I81696947
2072I81938583I82779409I84077350I85436484I86518879I87132348I87186935I86864485
2064I86624917I86830452I87540215I88662850I90050612I91489024I92780959I93821580
2056I94570048I95048718I95365562I95626685I95827282I95932986I96030215I96221469
2048I96461905I96779951I97459084I98593130I99735852A000473976A001027653
2041A001839850A002900158A003834408A004366063A004500929A004444140A004447677
2034A004732289A005478822A006613135A007590028A007861761A007632736A007635806
2027A008122150A008657007A008922602A009062540A009179187A009121931A008906652
2020A008851399A009153429A009674340A010223813A010816928A011553318A012333417
2013A012804145A012683894A012122610A011590554A011446613A011768462A012463478
2006A013336735A014155338A014789961A015259155A015670759A016152031A016711647
1999A017198592A017509897A017724575A017961874A018304144A018816980A019407894
1992A019818964A020000075A020244381A020753081A021348665A021764340A021958197
1985A022037341A022081051A022093530A022044815A022010114A022236737A022861216
1978A023576785A023917787A023877881A023900570A024208072A024522781A024561886
1971A024478070A024614070A025002184A025317294A025296674A025059774A024951468
1964A025163943A025587225A025951516A026045542A025903402A025831265A026098727
1957A026547301A026687639A026293585A025728097A025557596A025982480A026712129
1950A027255530A027290430A026887168A026425448A026245538A026376533A026537491
1943A026378335A025823924A025179959A024755275A024496622A024220217A024046380
1936A024280943A024941859A025700670A026292584A026754972A027195471A027530466
1929A027618619A027532868A027465269A027430168A027283090A027005351A026758642
1922A026660479A026680432A026778595A026979792A027217425A027247789A026880628
1915A026214441A025516356A024961745A024630953A024627750A025006255A025635139
1908A026281373A026786803A027066010A027015761A026590076A025927493A025312823
1901A025024273A025148862A025433808A025438346A025039555A024682938A024926110
1894A025738974A026428718A026336561A025551190A024766553A024443236A024405999
1887A024327389A024169634A024036437A024001469A024129128A024320315A024216080
1880A023540483A022417648A021229415A020356425A020044986A020256326A020642572
1873A020828088A020705567A020402537A020010418A019436522A018534036A017317775
1866A015977660A014715154A013653913A012873547A012388871A012024580A011421922
1859A010302757A008678429A006656378A004189824A001262417I98074621I94735077
1852I91082492I87104721I83139296I79387280I75620316I71484323I66768694I61490647
1844I56014005I50863083I46184090I41603728I36694109I31358672I25785269I20232085
1836I14918403I10115622I06273517I03787077I02513360I01742404I00844522H99855618
1828H99307480H99583284I00601751I02043566I03663890I05367428I07158052I09050243
1820I10946638I12571232I13534645I13541985I12631224I11126948I09280202I07097994
1812I04516326I01489222H97989053H94195997H90539608H87352813H84699209H82572989
1804H80974753H79859792H79266410H79373115H80284476H81910739H84083004H86651659
1796H89469825H92355924H95102353H97546285H99604038I01250654I02565144I03754312
1788I04971973I06188634I07330889I08361701I09176300I09701816I10155795I10989280
1780I12499896I14580805I16839488I18931742I20784627I22530407I24317561I26227036
1772I28286724I30501965I32825379I35082127I37067876I38852227I40837376I43360119
1764I46355459I49478057I52392584I54882962I56851227I58341823I59521381I60554128
1756I61496720I62295037I62844576I63090084I63138731I63243634I63633951I64468770
1748I65914990I68027597I70569892I73166440I75560724I77569295I79036002I80050464
1740I80990119I82160401I83542024I84945669I86272971I87584058I88976625I90422311
1732I91746744I92790435I93567197I94252403I95035105I95959412I96845482I97419445
1724I97613435I97699053I98008757I98579450I99198992I99720504A000154930
1717A000520088A000768532A000857219A000831794A000841537A001037530A001410029
1710A001786198A002007949A002055062A002024899A002058065A002253123A002612008
1703A003088409A003653097A004290189A004975194A005640781A006151883A006409736
1696A006490682A006546270A006595184A006587710A006591848A006722243A006994910
1689A007402243A007977341A008637122A009140816A009342948A009349154A009347419
1682A009399337A009425696A009295635A008962308A008582001A008394818A008436859
1675A008518806A008524345A008533420A008611297A008716133A008859741A009115458
1668A009410281A009532267A009398136A009122198A008801684A008448337A008147708
1661A008058287A008207300A008447402A008655006A008826708A008979992A009084828
1654A009099910A009010288A008849597A008724141A008770987A009060004A009528730
1647A009993653A010260115A010271326A010128586A009949410A009781312A009650583
1640A009593327A009629363A009756954A009948142A010120311A010178235A010100358
1633A009935997A009735066A009547482A009465201A009597465A009962690A010422274
1626A010767747A010897674A010868112A010777022A010671919A010586569A010583165
1619A010694942A010850494A010890600A010726506A010502286A010525576A010950659
1612A011575873A012030786A012133287A011991281A011778605A011544442A011295932
1605A011122561A011089195A011089062A010998707A010917494A011042750A011380148
1598A011806900A012286104A012755231A012960899A012716926A012215167A011861420
1591A011897122A012284702A012819694A013278411A013532594A013576036A013496024
1584A013450046A013544338A013687279A013708166A013614074A013573367A013676268
1577A013829819A013834156A013572766A013208275A013081751A013328260A013733657
1570A013973426A013854710A013438301A013071074A013088691A013377708A013475404
1563A013153755A012638449A012245864A012054877A011968125A011940564A012064152
1556A012398814A012777252A012923396A012728538A012270688A011695991A011254024
1549A011220791A011593023A012107128A012598210A012982787A012997602A012424239
1542A011462161A010546263A010056515A010292614A011219390A012191077A012508255
1535A012225911A011884376A011661624A011362997A011044552A011053627A011455355
1528A011843135A011850276A011620450A011591355A011928152A012386202A012664675
1521A012640785A012278162A011621318A010959001A010684131A010861172A011172344
1514A011363998A011458091A011494527A011432466A011359394A011457490A011730024
1507A012017240A012258209A012472220A012529342A012224310A011636866A011172544
1500A011082589A011139578A010992367A010669650A010498015A010686667A011202039
1493A011827387A012158178A011835928A011047488A010512563A010709489A011314350
1486A011620784A011327229A010704751A010153944A009854784A009829492A010103495
1479A010626875A011099139A011074915A010386105A009416687A008817766A008871151
1472A009250391A009509912A009610744A009759424A009975035A010108633A010071997
1465A009817948A009365570A008981927A008958504A009153095A009186661A009106383
1458A009322595A009844841A010152876A009963624A009591592A009377983A009248255
1451A009005750A008656274A008320211A008136497A008295654A008902583A009750548
1444A010372292A010401454A009869598A009087764A008294185A007615920A007280791
1437A007486659A008021918A008353977A008187014A007736705A007434475A007507346
1430A007865298A008286178A008597483A008718869A008676294A008578598A008469157
1423A008269361A007936101A007550856A007195574A006885736A006690078A006815200
1416A007473980A008643395A010059184A011568065A013311710A015313341A017146474
1409A018379017A019135159A019925201A021060983A022394358A023538014A024145544
1402A023894431A022542437A020328330A017865380A015475300A013250584A011605035
1395A011120826A012031921A013909363A015723611A016707243A017144205A017617937
1388A017958538A017654706A016890022A016352428A016177723A015851937A015097797
1381A014189238A013418815A012846587A012494041A012368785A012303053A011979536
1374A011213050A010216072A009482685A009255729A009189731A008769252A007977808
1367A007273183A006978361A006969619A006958408A006906223A007031947A007407048
1360A007736171A007725227A007503609A007423931A007554660A007658428A007579818
1353A007357866A007007456A006530788A006180044A006364024A007157136A008125753
1346A008758908A008935013A008954500A009235976A009912707A010633148A010881391
1339A010553203A010044103A009745076A009706105A009871200A010284672A010836481
1332A011162200A011131170A011126832A011548847A012366115A013315180A014069721
1325A014164147A013343208A012017440A010905081A010324110A010172362A010356810
1318A010906349A011792019A012747223A013286419A013136138A012689833A012589735
1311A012834575A012938878A013005676A013706431A014971806A015767387A015514205
1304A014683790A013744201A012700310A011828454A011692521A012316266A013207875
1297A014020873A014555931A014453231A013470733A011976266A010836014A010716163
1290A011572270A012976581A014721160A016598870A017860175A017724508A016409884
1283A014958927A014047899A013540201A013242642A013503832A014730970A016671608
1276A018480183A019316404A018884580A017674592A016524664A015769656A015250947
1269A015143908A016088836A018495198A022043147A025576949A027486890A026839321
1262A024324386A021779822A020492024A020172177A019865476A019272828A018672438
1255A017976155A016751086A015085852A013609135A012815290A012906179A013743467
1248A014573082A014479990A013493422A012653798A012652730A012937209A012570716
1241A011425392A009954482A008474896A007357066A007183562A007939304A008733683
1234A008931077A008807289A008693577A008309867A007341317A006165829A005691297
1227A006426486A007698467A008175402A007406314A006332193A006039306A006623879
1220A007490063A008082778A008086715A007475982A006667722A006281410A006560350
1213A007242420A007981145A008617236A009051662A009170846A009058269A009091168
1206A009587121A010371491A010914290A010933509A010658973A010487138A010596779
1199A010874985A010995103A010566749A009405076A007908540A007098545A007734970
1192A009296302A010477261A010752131A010801847A011472572A012930469A014508752
1185A014925828A013358890A010903146A009955016A011426260A013854843A015637860
1178A016644381A017230757A017116912A016199011A015564722A016513386A018735901
1171A020418152A020254124A018743108A017424680A017096692A017107436A016439447
1164A014997965A013522450A012508455A011481647A009739004A008085247A008662480
1157A012156376A016413955A018941970A019581130A019472624A019082908A018597899
1150A018475512A018739971A019096054A019747093A020852912A021645089A021252371
1143A019782995A017887001A016325335A016382391A018963324A022893381A025671241
1136A026002700A024334196A021567814A018777074A017364555A017889937A019353640
1129A020420087A020697493A020576174A020530262A020909701A021935575A023430642
1122A024645167A024714502A023502779A021785160A020509308A020104377A020343278
1115A020560158A020150623A019105330A017913159A016810411A015508600A013949870
1108A012836911A012755097A013261394A013609803A013786643A014325038A015366727
1101A016399407A016906906A016755357A015864816A014047833A011595359A009729394
1094A009575376A010569485A011187759A011122828A011408509A012352168A012985990
1087A012631309A011794888A011635865A012724868A014391704A015543367A015803890
1080A015458818A014791362A013951872A013118854A012557103A012587333A013029099
1073A012932538A011906998A011194098A012097986A014021607A015638661A016535808
1066A016876075A016817952A016586057A016485225A016681418A016959424A016629567
1059A014917086A011627724A007827661A006043843A007937569A011875901A015179744
1052A016793728A017194321A017345603A017948328A019006099A019972314A020457123
1045A020363632A019494245A017752602A015413106A012779787A010425344A009876805
1038A012009966A015111276A017139334A017722973A017706891A018013525A018368540
1031A017413269A014567943A011462028A010445630A011453686A012903776A014417329
1024A016500507A018750649A020076083A020238642A019992668A019685633A018758389
1017A016875942A014747453A013704562A014327174A015669958A016260738A015289251
1010A012843317A009960421A008281106A008281573A008545966A007632135A005200749
1003A002139411A001083908A003873046A008143104A010753331A011137576A010355008
996A009230037A008018448A007071852A006585709A005843580A003468783I98642779
989I92442160I87949016I87023975I88129861I89055035I88282344I84680608
982I77699223I68167467I58390471I48767893I36451404I19688818H99325898
975H74007248H38322823G88318744G28643438F69089185F13420546E60170147
968E09112066D62011002D20082516C84924007C59194787C42548048C32141300
961C27821928C31153965C39998179C52172027C66985000C83418930D01551494
954D22277537D44075632D64331880D84072756E08357992E40223102E73884874
947F02798453F26530146F46287138F62558041F75806578F87278105F98013508
940G07009271G12547573G14636157G15081527G15343785G15204381G14474465
933G12582074G07742724F98319008F84427306F68534174F51986265F31755609
926F06255246E84174507E70831277E61056283E51109387E40509850E30252048
919E22249093E17489722E15460664E16900477E23424147E32920734E41968582
912E50912360E62695092E78244487E94476352F08398417F18831790F26053879
905F34794525F54514080F78648167F92869326G00428078G09588135G24579650
898G40291071G51231075G57361692G59743764G59010177G57114049G59620376
891G70448537G83464513G92977850G99160585H03693167H07729262H11328995
884H14475283H18538138H24254949H29391390H31946899H33150947H36373176
877H41969136H46513529H47933056H46252473H42511868H37799710H32503645
870H26845558H21718659H18543343H18287425H20694187H24804488H30086072
863H36472407H43476482H50211692H56257560H61715717H66653764H70946177
856H74500065H77444288H79838371H81053764H80116778H77354266H76023760
849H79406748H84435750H86640648H86014967H85963650H88956721H93096451
842H95974409H96769990H94431962H87221885H76584845H73854098H82430315
835H91701148H98131726I01890948I03619913I04594003I05034902I03261762
828H97904103H89761444H81214922H76123592H80637889H92213985I00823368
821I03688113I03568396I04616491I07275568I08160903I05749136I01673536
814H98110172H94979432H91857568H90717249H92485518H94895684H97601005
807I02224944I07648601I10359328I08061539I00583666H90311718H86218967
800H96964514I11326477I19353623I21406037I19666396I16566087I15421230
793I17916812I21054492I20786696I15948013I09470923I07538559I12099903
786I18406359I22452731I23660250I23176174I21906195I19420822I14672828
779I07431186H99106884H93166987H92732427H95299480H95583158H90978172
772H81818181H71029458H61587658H52629933H41144726H25389262H08928572
765H01763607H04631355H09607706H13143042H14932065H15928309H17912323
758H21700975H26174032H29992580H32535877H33311037H31881434H28811888
751H26593844H27104679H28485501H28433517H26829409H24754372H22253718
744H18041717H11691951H04621679G98110488G91644742G85218568G81396616
737G80910673G80406444G76982083G69982146G60108388G48241674G34578664
730G18943985G02535146F88318192F78005470F71280736F68660431F71922900
723F82136258F99133274G20420100G40742781G56411827G67400746G75277343
716G81303725G85272487G85948818G82850443G76896866G69666236G62380685
709G55724352G50597386G48341305G49112729G51147193G53080690G55178416
702G57918372G61223816G65776285G73269906G83785227G94639414H03370651
695H09551784H14068483H17921933H21453733H24600888H27517685H30518296
688H33702622H36811740H39157509H39900772H39055009H38371471H40266064
681H45001512H50448191H54791454H57753228H59768272H61139084H62027490
674H62663647H63218258H63574275H63385689H62499019H61374048H60832317
667H61167712H61861327H62418874H62964876H63783747H64748093H65515180
660H65950540H66084138H65872397H65205542H64005630H62197056H59697603
653H56491589H52643079H48216868H43207017H37537452H31118285H23840409
646H15495485H05859827G95012781G83558872G72584967G63471890G57545673
639G55544242G57175243G61161088G65896069G70344635G74470818G78812013
632G83764207G89329402G95193358H00770298H05384360H08630480H10530812
625H11398597H11667928H11658786H11168971H09298936H04924910G97475998
618G87378688G76034954G65527240G58058176G55192230G57275608G63356109
611G71579914G79889804G86737058G91428062G94029015G95063497G95211108
604G95154586G95604228G97190251G99966977H03031851H05066182H05564404
597H05378021H05745915H06850600H07621223H06859075H04192457G99936880
590G94459838G87978343G80797895G73384419G66105675G59130495G52758841
583G47696606G44775272G44400838G46328997G49799870G53727192G56947553
576G58599574G58360206G56312996G52631383G47354470G40363609G31571646
569G21159359G09567248F97298139F84874012F72972530F62426846F53981157
562F48008828F44431050F42888202F42890271F43786617F44821233F45372240
555F45022430F43427398F40379873F36046353F31040106F26353506F23234512
548F22769388F25198039F29545239F33999411F36749577F36635665F33392282
541F27676004F20837559F14326835F09165836F05939670F04936352F06026422
534F08644325F12121004F15919398F19584596F22782735F25503005F28082937
527F30969037F34465201F38673198F43567202F49009610F54721283F60411601
520F65986140F71521106F77078227F82679057F88396002F94311074G00401719
513G06554291G12677501G18759871G24824557G30866954G36835546G42626496
506G48084720G53026571G57252585G60578650G62952179G64522054G65489737
499G65938844G65888128G65439154G64814607G64317920G64243113G64727789
492G65689600G66944431G68336331G69734770G71014292G72124782G73088595
485G73836863G74172793G74080836G73954312G74310394G75374906G77076776
478G79248441G81655537G83989761G86011546G87656627G88959306G89937132
471G90580097G90881192G90770550G90073598G88742093G87131578G85828700
464G85257072G85654062G87237082G90045237G93749274G97881997H02106810
457H06110940H09500801H12047367H13898784H15362754H16528165H17185610
450H17042069H15880262H13498391H09597162H03839444G96032048G86190722
443G74427976G60901367G45894571G29800240G12944897F95487028F77524331
436F59309787F41369111F24365355F08882825E95414206E84406802E76149564
429E70760274E68384075E69142286E72756233E78479117E85466509E93019522
422F00603366F07990950F15330954F22811029F30261142F37203956F43270911
415F48539215F53448167F58349110F63208213F67856709F72394029F77117865
408F82112368F87119482F91819629F96080077F99924117G03420882G06658727
401G09725070G12636127G15292067G17547614G19397697G21122723G23205033
394G26064908G29858498G34430785G39358355G44051361G47928300G50575498
387G51768268G51431472G49723529G47177630G44563264G42465872G41049749
380G40190639G39634560G38992997G37761521G35418688G31497840G25702217
373G18154610G09641187G01605367F95773910F93561872F95623162G01797222
366G11344459G23197226G36129653G48974927G60959690G71918513G82107981
359G91772333H00894954H09296467H16820785H23329374H28576457H32309388
352H34604907H35938750H36828290H37544259H38065170H37973080H36449718
345H32698770H26308631H17108668H05085734G90853031G76098149G63300855
338G54842887G52087916G54820665G61237096G68633489G74617963G78081362
331G79248441G79031361G78359902G77808428G77594084G77843596G78669272
324G79936049G81330952G82893953G85231447G88974587G94071457G99646329
317H04486412H07628563H08583234H07369242H04663253H01715092G99736550
310G99349370H00649713H03534144H07778177H12917154H18227499H22954873
303H26648365H29294962H31200166H32786189H34348588H35854868H37036160
296H37660907H37666779H37172628H36466868H35818632H35211102H34364071
289H33040639H31280177H29351551H27525826H25933797H24643397H23771608
282H23378355H23234547H22860780H21957227H20652346H19153542H17452405
275H15717636H14592065H14614019H15640560H17144503H18693423H19933641
268H20527557H20287655H19113436H16817516H13300730H08997840H05024007
261H02607568H02168204H03052071H04310106H05533974H06784401H08086212
254H09378748H10776453H12497475H14535676H16630332H18535068H20119356
247H21227978H21651594H21256272H19983289H17727275H14448590H10448064
240H06265759H02189892G98165542G94314562G91161467G89180122G88432856
233G88707725G89694627G91051092G92560440G94134185G95528020G96285830
226G95988605G94265180G90699347G85151301G78188401G71029641G65017807
219G60988052G58935570G58394573G59065898G60767836G63161385G66024795
212G69485125G74005362G80704604G90547331H00824218H07515519H11275876
205H14105454H16755321H19336788H21870208H24139169H25748882H26397185
198H25870334H24168397H21879617H20082187H19589436H20308275H21410223
191H22060995H21947951H21256005H20403235H19877786H20074979H21072892
184H22672596H24729548H27189162H29782841H32129278H34211722H36230903
177H37952727H38867024H38969458H38681042H38062301H36771034H34773006
170H32524265H30431545H28465882H26354209H23976542H21347829H18277816
163H14489631H10198018H06153248H02882705H00121061G97206133G93802459
156G89914310G85483761G80646213G76217199G73051092G71063941G69551924
149G68204668G67214430G66731222G66732089G66973860G66733424G65140527
142G62114290G58548791G55553251G53826022G53510979G54455106G56642720
135G60217228G64967891G69973805G73956313G76058510G76284999G75148817
128G72983158G69879712G66256890G63040199G61030360G60341951G60746414
121G62362801G65619064G70464486G75880802G80581082G84239874G87495602
114G90710958G93432496G95120620G95728416G95660883G95900519G97619206
107H00426895H01970810H00453521G96696033G93386318G92380998G93132936
100G94068521G94501078G94888525G96020036G98047626G99982792H00344681
93G98647615G95990741G93907029G92613092G90768348G86819873G80115626
86G71202010G61494482G52420309G44333572G36418203G28223760G21197797
79G18505221G22941242G34543096G50293955G65932838G78172251G86027161
72G90296218G92274493G93475672G95438465G98829927H03178862H07566502
65H11693019H15830547H19145267H19429546H16274716H13564656H15132195
58H19416066H23242021H25879944H27328232H26778025H24334026H21895099
51H21297780H23105754H26958936H31493454H35113006H37567082H39537349
44H40878465H40962948H40692816H42114945H45855083H50179861H52753320
37H52483656H49818974H45371542H39040061H33370963H35524944H46079703
30H57324207H63929423H66015137H67528355H71378201H76195529H78336564
23H75510323H68655328H61170248H56000641H53328151H51816201H52812645
16H59067051H69455514H80045308H86809480H87551942H83148687H76376106
9H69655043H64627575H62900280H65503702H72041452H80494949H86737009
2H86090374H82290645
##END=


$$ === CHEMSPECTRA PEAK TABLE EDIT ===
##TITLE=X9422
##JCAMP-DX=5.00
##DATA TYPE=INFRAREDPEAKTABLE
##DATA CLASS=PEAKTABLE
##$CSTHRESHOLD=0.93
##MAXX=3997.453
##MAXY=0.959057745955453
##MINX=373.96442
##MINY=0.2928079661310266
##$CSSOLVENTNAME=- - -
##$CSSOLVENTVALUE=0
##$CSSOLVENTX=0
##NPOINTS=29
##PEAKTABLE= (XY..XY)
398.0454621657541, 0.7608355269396981
419.29344054730245, 0.7443603855221211
484.45390758404983, 0.6417632087611107
546.7813108365908, 0.6791314467420456
568.0292892181387, 0.6730300763113952
679.935308694292, 0.6773920640383104
704.0163508600467, 0.7042220220126233
740.8461800547302, 0.7164903267490345
811.6727746598904, 0.713972566404458
849.9191357466766, 0.6717590076393011
895.2481562939793, 0.6194840057384673
978.8235379280686, 0.5076761826073297
1029.818686043784, 0.7013854367372433
1131.808982275215, 0.5403243887573097
1148.8073649804533, 0.5562527161665164
1165.8057476856916, 0.5742226824962502
1195.552917419859, 0.6648929700670049
1242.298469859265, 0.6745317564731499
1277.7117671618448, 0.6748461708212155
1374.035935824863, 0.6684125641799297
1399.5335098827209, 0.597242234611608
1456.194785566849, 0.7161289438928129
1600.6810385613758, 0.7308878880879652
1637.5108677560593, 0.6762483100792344
1671.5076331665364, 0.46040540840937433
1733.8350364190774, 0.2928079661310266
2923.721825785779, 0.785449145651585
2960.551654980462, 0.8035007095483548
3412.425328561381, 0.8581957797977384
##END=


$$ === CHEMSPECTRA PEAK TABLE AUTO ===
##TITLE=X9422
##JCAMP-DX=5.00
##DATA TYPE=INFRAREDPEAKTABLE
##DATA CLASS=PEAKTABLE
##$CSTHRESHOLD=0.93
##MAXX=3997.453
##MAXY=0.959057745955453
##MINX=373.96442
##MINY=0.2928079661310266
##NPOINTS=74
##PEAKTABLE= (XY..XY)
3501.666837763878, 0.8808333850944656
3494.584178303362, 0.8798341728450189
3480.41885938233, 0.8709468816761785
3459.1708810007817, 0.8601423482411404
3446.422093971853, 0.8557289814233313
3435.0898388350274, 0.8579148628341242
3430.840243158718, 0.8579669564787222
3420.924519913995, 0.856276629673151
3412.425328561376, 0.8581957797977384
3398.260009640344, 0.8572192769581969
3385.511222611415, 0.8590406752428851
3375.595499366693, 0.8609089821918565
3367.0963080140737, 0.860743044064753
3350.097925308835, 0.8660685395789103
3338.7656701720093, 0.8666391946716145
3309.018500437842, 0.8768439871054271
3296.269713408913, 0.8812456111263032
2961.9681868725565, 0.8032543635861323
2925.1383576778735, 0.7853538375853533
1770.6648656137604, 0.8816020465913167
1733.8350364190774, 0.2928079661310266
1671.5076331665364, 0.46040540840937433
1637.5108677560593, 0.6762483100792344
1600.6810385613758, 0.7308878880879652
1576.5999963956215, 0.7824575281250088
1569.5173369351055, 0.7913357596460745
1558.1850817982795, 0.7805196031018488
1541.1866990930412, 0.782546697281731
1534.1040396325252, 0.8070601802239235
1521.3552526035965, 0.7955816368620503
1507.1899336825645, 0.7915638067811297
1497.2742104378417, 0.8176470382709199
1488.7750190852225, 0.8106062985703406
1471.7766363799842, 0.7973815779921994
1456.194785566849, 0.7161289438928129
1436.363339077404, 0.7383071161672476
1399.5335098827209, 0.597242234611608
1374.035935824863, 0.6684125641799297
1340.0391704143858, 0.7488267999137233
1318.791192032838, 0.7688886507940652
1277.7117671618448, 0.6748461708212155
1242.298469859265, 0.6745317564731499
1228.1331509382326, 0.7102258183486082
1218.2174276935102, 0.7193573100321747
1195.552917419859, 0.6648929700670049
1165.8057476856916, 0.5742226824962502
1148.8073649804533, 0.5562527161665164
1131.808982275215, 0.5403243887573097
1072.3146428068803, 0.6826159339383007
1055.3162601016415, 0.6912899004579646
1029.818686043784, 0.7013854367372433
978.8235379280686, 0.5076761826073297
895.2481562939793, 0.6194840057384673
849.9191357466766, 0.6717590076393011
835.7538168256447, 0.6945409161633589
811.6727746598904, 0.713972566404458
760.6776265441749, 0.7275872216184485
740.8461800547302, 0.7164903267490345
704.0163508600467, 0.7042220220126233
679.935308694292, 0.6773920640383104
647.3550751759185, 0.7320508340663386
637.4393519311961, 0.7323083860170242
580.7780762470679, 0.6848382933156828
568.0292892181387, 0.6730300763113952
546.7813108365908, 0.6791314467420456
528.3663962392493, 0.7106780388444508
517.0341411024233, 0.7077484713751457
484.45390758404983, 0.6417632087611107
457.5398016340887, 0.7266695479853572
444.79101460515994, 0.7335767134824713
432.0422275762312, 0.750900206998738
419.29344054730245, 0.7443603855221211
398.0454621657541, 0.7608355269396981
382.46361135261895, 0.7707357390707964
##END=

##END=

