##TITLE=CHS- 179
##JCAMP-DX=4.24
##DATA TYPE=INFRARED SPECTRUM
##DATE=26/9/2019
##SAMPLING PROCEDURE=Diamant-ATR
##ORIGIN=Marie
##XUNITS=1/CM
##YUNITS=TRANSMITTANCE
##RESOLUTION=4
##FIRSTX=3997.453
##LASTX=373.96442
##DELTAX=-1.4165319
##MAXY=0.76062894
##MINY=0.45295048
##XFACTOR=1
##YFACTOR=7.083909e-010
##NPOINTS=2559
##FIRSTY=0.69505131
##XYDATA=(X++(Y..Y))
3997+981169169+980722633+980423259+980626207+981284862+982004772+982411088
3988+982435573+982285886+982175409+982145455+982142174+982101365+981886890
3978+981373883+980712199+980279463+980254557+980437143+980583380+980721791
3968+981058692+981678473+982403347+982929396+983060572+982803858+982311045
3958+981787436+981409222+981234546+981226889+981370265+981673004+982079741
3948+982510963+982923254+983167683+982916522+982041710+980996259+980402645
3938+980459272+981002738+981785753+982499436+982779457+982469482+981794840
3928+981151078+980841019+980869879+980842954+980422923+979907392+979953501
3918+980779175+981836490+982464770+982662080+982830110+983143366+983505425
3908+983877159+984255204+984367280+983900634+983151949+982640204+982207215
3898+981548307+980969418+980839420+980951833+980717584+979976303+979528926
3888+980059182+981042873+981225964+980326329+979564770+979662878+980024684
3878+980141303+980451194+981310273+982282437+982597292+981870819+980390108
3869+979235527+979382437+980559736+981556217+981397611+980450100+979806843
3859+980151905+981664085+984121420+986336766+986028137+983475639+981528703
3849+981109176+981725676+982660145+983276982+983371641+983341434+983513586
3839+983415141+982457534+981171356+980443033+980295113+980297385+980285437
3829+980299993+980316401+980469874+981128276+982270573+983056701+982718287
3819+981918696+981454238+981128613+980870384+981057261+981598119+982119119
3809+982522575+982738649+982498426+981890088+981278552+980684769+980359565
3799+980990958+982300275+983010676+982440790+981384569+980793816+980678122
3789+980672485+980851789+981600643+982823967+983794028+984033914+983732100
3779+983149004+982395774+981860807+982073851+983050307+984112838+984399001
3769+983731764+982853501+982363212+982170109+982148232+982365904+982612017
3759+982463340+982020338+981829759+982014196+982402169+982918374+983168356
3750+982555390+981598876+981226973+981248345+980693688+979668179+979280121
3740+979865994+981000803+981994002+982255007+981850373+981429921+981370349
3730+981606196+982019581+982565318+983159774+983637358+983807575+983558433
3720+983049297+982723167+982902387+983465205+983914349+983624989+982343439
3710+980723642+979686774+979618284+980485776+981848690+982921739+983237099
3700+983173405+983182492+983140926+982821191+982293207+981843978+981735353
3690+981840108+981632701+981139467+980938286+981138625+981535602+982110789
3680+982888251+983631299+983859826+983050980+981680745+981471318+983000748
3670+984752898+984630809+982937726+981545194+981101435+981218054+981474516
3660+981791390+982286223+982903649+983304664+983420274+983696509+984387137
3650+985071455+984922273+983863528+982794518+982303977+982394933+982782065
3640+983131755+983302561+983381569+983448630+983441141+983392760+983660496
3631+984488695+985227873+984923704+984144727+983778294+983633655+983294904
3621+982859559+982678488+982779794+982990566+983238109+983325195+983091367
3611+982837009+983005123+983558938+984027771+984113763+983935048+983798235
3601+983975520+984475064+984986893+985232585+985227536+985129428+985036032
3591+985004563+984979741+984641074+983871353+983304496+983470506+984124870
3581+984748101+985034685+984855802+984172241+983187456+982281259+981753190
3571+981823953+982612774+983715693+984068580+983188382+981940741+981119021
3561+980667773+980244460+979850933+979855224+980409292+981061132+981110859
3551+980377992+979404229+978876918+979090804+979744074+980189600+980140210
3541+979897463+979850849+980000536+979929521+979257403+978171565+977314842
3531+977140082+977569958+978191843+978575105+978468666+977932268+977343198
3521+977135538+977427086+977905596+978071858+977680939+976984000+976425810
3512+976114909+975766482+975200550+974645388+974373024+974276010+974015762
3502+973526567+973155169+973156347+973230475+972709643+971293720+969515150
3492+968257327+967869185+967863548+967472293+966482628+965360693+964509608
3482+963729790+962655142+961436362+960539840+960098353+959913411+959939663
3472+960379804+961284740+962331537+963079465+963405511+963688056+964438929
3462+965703062+967029628+968085680+968955360+969764207+970437755+970929642
3452+971311558+971590232+971738994+971889774+972206649+972593613+972841239
3442+972994123+973241161+973497202+973480289+973229549+973117137+973316972
3432+973711593+974332468+975345525+976564979+977489266+977912748+978112246
3422+978342203+978446706+978159617+977586197+977079332+976724678+976279657
3412+975628154+975068785+975071478+975792145+976774321+977219090+976743357
3403+975803083+975224362+975461218+976348737+977339159+977953303+978189824
3393+978449987+979029213+979827794+980555361+981021165+981202657+981173123
3383+981028317+980869122+980797097+980886455+981160586+981537706+981760427
3373+981533078+980863905+980143154+979790436+979942310+980469369+981090497
3363+981511285+981669218+981820335+982215881+982765490+983203022+983455361
3353+983606478+983667901+983674969+983844765+984301061+984777130+984888280
3343+984595133+984208085+984027182+984072114+984080864+983725958+982871002
3333+981617219+980119258+978422052+976537969+974671809+973239142+972526216
3323+972379558+972380231+972315443+972325624+972520242+972610777+972165840
3313+971201249+970201150+969515234+969044213+968541555+967921521+967255546
3303+966708462+966474718+966588813+966840311+967052009+967412132+968282065
3293+969620242+970886562+971642905+971931340+971992005+972004963+972188053
3284+972759454+973704020+974726668+975443381+975657603+975546453+975483432
3274+975647927+976012762+976594596+977377948+978103243+978470602+978518057
3264+978582677+978891559+979321519+979626361+979799607+980039914+980400962
3254+980704290+980789441+980643624+980325993+979957792+979742307+979844623
3244+980248331+980786916+981252131+981419151+981127182+980506475+979966459
3234+979749459+979695525+979620892+979623080+979846978+980305462+981019398
3224+981922061+982628003+982734694+982365063+982065101+982205700+982716520
3214+983282451+983607235+983590239+983351699+983054009+982726785+982337633
3204+981941666+981636824+981460380+981471655+981810827+982476802+983142693
3194+983393854+983112318+982533681+981991141+981657270+981498917+981442795
3184+981473085+981511117+981381119+981066012+980842113+980999540+981501609
3174+982003930+982162704+981943012+981671406+981725172+982151429+982683032
3165+983072856+983285228+983403193+983472105+983436850+983142693+982410667
3155+981269801+980174202+979762922+980207690+980982460+981496477+981727107
3145+981905570+981879318+981330971+980496546+980044373+980192377+980485019
3135+980502352+980253800+979823671+979204563+978577965+978248217+978200846
3125+978098194+977760537+977422543+977455442+977891208+978282631+978167442
3115+977642739+977210760+977104658+977109959+977005456+976852320+976827919
3105+976975250+977125778+977028174+976603599+976035817+975544770+975156124
3095+974760493+974305291+973845293+973464471+973193874+973026097+973027191
3085+973345664+973973607+974565707+974706390+974382616+974033768+974077606
3075+974515138+975044216+975424365+975605857+975564039+975247585+974768991
3065+974436971+974471217+974805929+975219482+975529204+975644814+975521127
3055+975074675+974222160+973113267+972163232+971636173+971355059+971063258
3046+970884038+971113154+971719894+972348005+972727481+972886423+973034174
3036+973376712+973982358+974782538+975719110+976773985+977787630+978490627
3026+978860511+979182939+979619377+979998516+980124643+979981688+979618199
3016+979157360+978881714+978996314+979359298+979667338+979764100+979569398
3006+978883818+977500625+975450112+972974687+970309692+967607255+964994343
2996+962520685+960075551+957584476+955260252+953379787+951817038+950117223
2986+948086567+946050778+944508223+943752554+943819866+944566196+945742654
2976+947082766+948361371+949402615+950129760+950662120+951262634+952027811
2966+952654660+952715242+952160922+951359985+950658754+950104434+949514691
2956+948653845+947530228+946649104+946622347+947343351+947871419+947323998
2946+945664067+943552887+941684539+940399707+939854306+940360666+942189384
2936+944967632+947726192+949745152+950971254+951582369+951673914+951450688
2927+951253715+951234362+951179755+950728255+949696940+948211096+946572536
2917+945139953+944369138+944687612+946077956+947929224+949499040+950442344
2907+950841424+950911177+950807684+950665990+950670871+950959306+951458093
2897+951957469+952373293+952782723+953178438+953371877+953234139+952896650
2887+952630260+952621761+952918610+953475034+954173067+954824907+955189910
2877+955026676+954265790+953187525+952290330+951869626+951816870+951904124
2867+952116664+952579018+953294636+954089431+954737821+955096345+955191004
2857+955197314+955303163+955588317+956004310+956430231+956799862+957172522
2847+957576230+957851286+957830167+957552670+957115222+956502928+955805821
2837+955428870+955830306+957096458+958857107+960562222+961865648+962816356
2827+963673331+964571199+965476218+966355575+967147677+967657235+967792870
2817+967838474+968171588+968774121+969307658+969609135+969891344+970473683
2808+971375926+972176610+972409428+972137653+971872778+971903321+972049894
2798+972101388+972117459+972233237+972432314+972592939+972649146+972678931
2788+972821803+973105358+973413313+973651937+973872134+974162924+974442272
2778+974446059+974052111+973550968+973398673+973703768+974140964+974343154
2768+974206173+973860354+973523790+973336745+973242928+973116632+973001864
2758+973040148+973188909+973252520+973190761+973165687+973289121+973460516
2748+973438471+973052685+972407072+971821956+971497004+971367091+971350010
2738+971504325+971841056+972216241+972522345+972777208+972957017+972933794
2728+972671527+972334038+972116197+972069920+972113589+972132016+972049221
2718+971873198+971701635+971683461+971904330+972238622+972428612+972414813
2708+972405558+972484987+972453518+972219522+972003701+971977617+972029027
2698+972017752+971995960+972076230+972264538+972493906+972725630+972952894
2689+973125720+973167874+973098542+973050750+973131862+973350881+973652189
2679+973937595+974105288+974160484+974234360+974404661+974562005+974560069
2669+974458091+974468188+974660029+974874336+974954859+974908076+974828815
2659+974808201+974902102+975052462+975089316+974913545+974614172+974314546
2649+974019801+973721942+973524379+973515124+973609950+973701243+973896787
2639+974420311+975253306+976024794+976351682+976267877+976207380+976538643
2629+977205880+977827765+978062098+977926126+977759948+977745896+977646778
2619+977317703+977098516+977231879+977399236+977358512+977451487+977990325
2609+978720332+979264555+979588834+979793970+979873651+979840584+979778572
2599+979690813+979522195+979368133+979429640+979704865+979978238+980163264
2589+980375215+980654899+980898151+980985825+980758729+980072224+979111924
2580+978429289+978462188+979147263+980001545+980438152+980134909+979320845
2570+978620793+978505604+978946587+979567715+979965281+979961410+979781601
2560+979884337+980391959+980878714+980954357+980787421+980771603+980967567
2550+981169842+981287471+981397527+981585161+981852982+982050124+981911123
2540+981409980+980980020+981035637+981381793+981496645+981253057+980902442
2530+980525575+980027966+979597921+979624931+980085013+980429318+980280136
2520+979951061+980030574+980674841+981529881+982144530+982280838+982023199
2510+981695722+981566061+981702033+982113650+982698429+983073698+982966250
2500+982710714+982820013+983213456+983465289+983654017+984270518+985265231
2490+985849338+985494179+984637456+984062858+983946912+983908375+983736307
2480+983636095+983830208+984242162+984618356+984811039+984884915+985011631
2470+985273141+985550721+985628804+985395650+984917561+984384360+984061175
2461+984175102+984702497+985377223+985990189+986514808+986910691+987030255
2451+986823521+986464071+986173785+986002726+985879965+985831920+985950054
2441+986137268+986148963+985925233+985622241+985349541+985176631+985283658
2431+985766543+986379678+986731723+986655576+986302857+985998772+986023677
2421+986396169+986825877+986928529+986563862+986010215+985717152+985830995
2411+986108912+986290068+986297556+986126161+985824264+985531117+985348447
2401+985309742+985483325+985863052+986215350+986296126+986100582+985703774
2391+985076167+984290291+983742786+983860667+984567199+985297710+985668014
2381+985828302+985980092+985974203+985709832+985501078+985675502+986255149
2371+987221844+988500281+989636940+990118226+989832568+988764062+986934587
2361+985062620+984213554+984402535+984682724+984675824+984785208+985105280
2351+985337424+985476257+985708149+985970837+986007354+985739365+985387656
2342+985163589+985097959+985110749+985141292+985296532+985693088+986106220
2332+986110006+985563006+984674394+983720994+983003272+982817909+983166505
2322+983662936+983945818+984016160+984033409+984031978+983941022+983780902
2312+983800759+984261767+984952143+985228630+984888364+984652349+985279956
2302+986446149+987003498+986287123+984802457+983664619+983587041+984373001
2292+985262118+985685515+985605834+985287360+985051429+985175453+985667761
2282+986141306+986153928+985663554+985044698+984765939+985074316+985846056
2272+986785153+987824966+989043494+990071612+990154406+989184346+988136371
2262+987934181+988270155+988116766+987220077+986470802+986669122+987432869
2252+987788701+987473930+987010145+986782881+986785994+987087892+987855425
2242+988908785+989586119+989108283+987328619+985371670+984907380+986343413
2232+988463932+990158109+991421737+992303701+992178416+990793541+989137059
2223+988489679+988952622+989544637+989783261+990438634+992128184+993899097
2213+994329141+993491266+992492682+991585727+990331439+989232727+989495078
2203+991307894+993747896+996104598+998076524+998993408+998112116+995876492
2193+994079747+994147397+995537068+996757616+997793053+999872259+1002815339
2183+1004668038+1004191884+1001959626+999202161+997035281+996173930+996364509
2173+996517225+995708884+994008480+992507911+992216363+992949651+994164477
2163+996366865+1000312148+1005351851+1009863317+1012734878+1013521090
2155+1011924853+1007747595+1001415319+994822964+990756603+990599428+993205019
2145+996275657+998160076+998606444+998435469+998250275+997644461+996202875
2135+994585182+993746381+993705741+993777682+993549996+993270817+993539647
2125+994801172+996938098+999032785+999662664+998113041+995396216+993369514
2115+992784651+992906234+992972117+993126936+993785002+994871934+995947086
2105+996647139+996887277+996862455+996872300+997018621+997215174+997494606
2095+997944171+998361846+998503287+998563868+998846497+999181126+999260471
2085+999238594+999384494+999497664+999215876+998576237+997870295+997296790
2075+997104613+997666842+998923571+1000061071+1000298349+999839276+999555216
2065+999898679+1000631715+1001447797+1002213395+1002706293+1002811974
2057+1002836964+1002982023+1002739360+1001668751+1000560448+1000880435
2048+1002943065+1005277807+1006162885+1005287062+1003845308+1003569831
2040+1005397623+1008440747+1010552684+1010500180+1009404665+1009252539
2031+1010173208+1010461391+1009204158+1007515786+1006966767+1007689874
2023+1008406418+1007917307+1006338571+1004928622+1004783479+1005859052
2014+1007330087+1008451854+1008843025+1008626278+1008528001+1009020226
2006+1009320356+1008428799+1007061510+1006997142+1008535069+1009876948
1997+1009360407+1007430468+1005972053+1006331167+1008128837+1009678544
1989+1009725074+1008595146+1007418267+1006462342+1004872668+1002498296
1980+1001142618+1002892076+1007657059+1013387222+1018013204+1020049246
1972+1018918897+1015860544+1013190501+1012339331+1013039636+1013783610
1963+1013026426+1010884367+1009213245+1009075338+1009381947+1009047319
1955+1008633682+1008979586+1009678460+1009484936+1007514019+1004099329
1946+1000796379+999250206+999930653+1001943471+1003974128+1005465441+1006720991
1936+1008025596+1009079377+1009502269+1009568404+1009957976+1010910619
1928+1011987707+1012633404+1012648718+1012077401+1011062325+1010031094
1919+1009652292+1010280404+1011539741+1012738917+1013531187+1013970403
1911+1014350467+1014974119+1015778506+1016371363+1016506157+1016325506
1902+1016209224+1016476119+1017122826+1017826243+1018180729+1018030958
1894+1017693133+1017605794+1017708951+1017602597+1017356990+1017546223
1885+1018404376+1019581675+1020568479+1021104709+1021308919+1021420153
1877+1021419396+1021103279+1020501756+1019974781+1019973098+1020732722
1868+1021864502+1022592404+1022796446+1022933175+1023173650+1023363892
1860+1023504492+1023835081+1024452423+1025086341+1025407170+1025524462
1851+1025882229+1026601466+1027324404+1027717090+1027676029+1027233364
1843+1026784136+1026910936+1027706488+1028762204+1029515686+1029628434
1834+1029279839+1028967760+1029006044+1029294900+1029577277+1029881951
1826+1030352972+1030736065+1030556929+1029874462+1029288084+1029248707
1817+1029709799+1030327645+1030809688+1031071030+1031163164+1031076920
1809+1030702914+1030051579+1029361792+1029013533+1029353798+1030428783
1800+1031966626+1033783312+1035780648+1037587574+1038930295+1040186939
1792+1041888436+1043708908+1045031603+1045907342+1046736803+1047845780
1783+1049312271+1050940650+1052414462+1053485828+1054203382+1054970999
1775+1056193145+1057852656+1059477165+1060671460+1061529193+1062351754
1766+1063356901+1064587883+1065991100+1067473747+1068840784+1070013288
1758+1071159034+1072267338+1073048334+1073437401+1073641527+1073741823
1749+1073662646+1073369836+1072837224+1072084500+1071164840+1069890358
1741+1067858776+1065023648+1061927600+1058985529+1055818129+1051455087
1732+1046017061+1040856364+1036230550+1031508394+1025983619+1018485908
1724+1007557015+992927186+974755697+950247558+913773910+866179192+820734189
1714+785952026+760466085+742641846+732054229+728204867+730717651+738124658
1704+747051671+755961434+766525997+779023023+790243128+799752395+809238440
1694+817610964+823836801+829154169+834656142+840017516+844882037+850349933
1684+857714449+865195080+870453886+874101225+877086881+879743966+882244045
1674+884464271+886035349+887203477+888917932+891705941+894942084+898166531
1664+901667213+905680061+909823158+913470414+916406258+918733343+920780070
1655+923378761+927223411+930560019+932260590+933641511+935785505+938353821
1645+940201303+941361101+942391491+943468410+944656564+946256166+948610512
1635+951266167+953395773+955191845+957287374+959946395+962839074+965565408
1625+968405079+971958265+976040865+979934737+983822552+988781900+994800078
1615+999003084+997944760+988516772+967573262+936031785+902442908+877759587
1605+867111978+868562903+876757890+886430054+894402404+899733403+902713505
1595+904136664+905044797+906443639+909015827+912896236+917545189+922099231
1585+926010184+929244728+932005054+934426124+936566753+938696948+941352098
1575+944376963+946689912+947853160+947913069+946773801+944878864+943322257
1565+942708954+942864867+943217586+943003279+940985833+937051825+934349556
1555+934040759+935359752+937688015+940504294+943339085+945765961+947670154
1545+949387385+951267850+953394091+956006076+959100190+961469261+962717407
1536+963495458+964196772+964834644+965395022+966048629+967046035+968490650
1526+970061140+971289597+972177704+973131020+974379503+975677461+976543943
1516+976631787+976209399+975965307+976329468+977317451+978841495+980799201
1506+982523500+983544550+984302155+985172340+986287291+987726773+989432225
1496+990921940+991742987+992002056+991844040+990906794+988723254+985780847
1486+983082280+981016032+979319752+977361625+974408952+969995258+964261224
1476+958197610+953450970+951271552+951213664+951696380+951885192+951467517
1466+949653775+945584806+940034957+934989195+931563483+929804265+928562345
1456+925458977+920397145+915629385+912875538+913183241+916789520+922667182
1446+929012752+934820072+940304544+945688888+950672890+955257138+960062257
1436+965065022+968964111+971313577+973037372+975024527+977544463+980381189
1426+983404792+986649602+989875900+992760082+995514350+998527183+1001384608
1417+1003332722+1004366224+1004665177+1003981280+1001521421+996051421+986275006
1407+971166415+951142144+929717600+911287715+897744817+889629259+887451861
1397+890561372+896928061+904022906+909868931+914236096+918068798+921981434
1387+925608495+928341812+930328547+932132696+934022248+935880584+937501895
1377+938791522+939666672+939833776+938671538+935194667+928082069+916615685
1367+902407569+889289667+881322618+880983362+887235114+896426834+906136104
1357+915918577+925721833+935128112+943596893+950970833+957543331+963652969
1347+969402401+974671388+979182181+982697588+985250170+987000890+987894887
1337+987756980+986810731+985804406+985479118+985878787+986370506+986548717
1327+986778337+987596187+988992505+990590929+992269204+994356908+997225691
1317+1000614466+1003346268+1003859949+1001119059+995153722+986860964+977660998
1307+969701101+965688927+967377550+973959977+982318870+989061080+992385318
1298+992251450+989342279+984260253+977561712+970269389+964131983+960982169
1288+961355839+963655830+964837505+961803384+952240351+935056929+910962931
1278+882589527+853355951+825689247+800216096+776622063+755159572+737284091
1268+724908732+719033257+718811799+721778691+725148954+727131819+727385588
1258+726698998+726320700+727303718+730163247+734882037+741064036+748182356
1248+755919785+764211028+772663402+780029264+784828493+786834832+787728661
1238+790007197+795131966+802446502+809565327+814023448+815268144+815348499
1228+817340787+822927322+831520884+841365705+851011028+859838502+867759694
1218+874830979+881148446+886853956+892030304+896597135+900396686+903409098
1208+905934334+908667736+912457105+917668035+923695720+929136523+932286337
1198+931521581+925771476+915237457+901889261+889190465+880884160+879225322
1188+883745960+891541025+898902596+903120915+903282802+899820741+893561248
1179+885247454+875773694+866595100+859670809+856681620+858006166+862590330
1169+869015413+876499830+884734699+893158802+900882515+907289676+912455675
1159+916955698+921315290+925555150+929158147+931475556+932279354+932031559
1149+931568952+931340846+930941513+929640611+927587657+926356760+927986990
1139+933297711+941147215+949266307+955586718+958719620+957614935+951548292
1129+941031101+928693605+918608393+913941182+914881877+918823962+922255312
1119+922097800+915667080+900709606+876783048+847079293+818423849+798283043
1109+790486295+793071103+799810200+803868063+801079213+791228838+777153749
1099+762934779+752555916+749000458+753315035+764233578+778969510+794615930
1089+809282277+822441156+834286595+844784350+853531048+860354286+865598872
1079+869837217+873650062+877669893+882428061+887913711+893361665+897596477
1069+899686873+899621916+898716728+899070625+901873611+906087134+909355251
1060+910421400+910138266+909816175+909165850+906486804+900552515+891759875
1050+881991285+874200091+871494036+875226189+883805784+894045647+903690465
1040+912316085+920174255+926932705+931681280+933662209+932598164+928288383
1030+919939334+905929623+884680008+856760376+826872015+803193505+793117717
1020+798336809+813988698+832789476+849817742+863736497+874974271+883929134
1010+890540842+894659286+896668403+897949195+900342499+904475079+908591504
1000+909678857+906105561+898997843+891225412+885684987+884276805+887111511
990+891910908+894927612+893582199+888560418+883126262+880267407+880407670
980+881352067+880007159+874775026+867242396+861372391+860398123+864749638
970+873057205+883236655+890720987+887480217+867382659+834387228+801827310
960+779824718+765907645+752217249+738915919+734399152+743626211+762255173
950+782442004+799711418+813463238+824374798+833112409+840363755+846919846
941+853428733+860024958+866322231+871906074+876726505+880945751+884578870
931+887414250+889259292+890221022+890764909+891550617+893183371+895965069
921+899735002+903899639+907695067+910519508+912112548+912559084+912273005
911+911881161+911855582+912221510+912823959+913866044+915932124+919379376
901+923873258+928640008+933076589+936993936+940399287+943305008+945752499
891+947773731+949217252+949787055+949472452+948877071+948774840+949050317
881+948124767+943568538+933529687+918282011+901078395+887144999+880809779
871+883035306+891607917+903373338+916015592+928139790+938561565+945837481
861+947925690+941950761+925023884+896419430+859508502+821559948+791032874
851+773777680+770909990+779861235+796654580+816999259+836691258+852794815
841+864956709+875067836+885264198+896256112+907435829+918005524+927514707
832+935676037+942429186+948192416+953488328+958328702+962390688+965626915
822+968102676+969171855+967361479+961591770+952784742+944299470+940391125
812+943435343+952122217+962450512+970501702+973784543+970046247+956408607
802+931330581+897327057+860590217+827236177+799657905+776331440+755452214
792+739518368+735650327+748336923+770394206+784295292+776138673+747871540
782+714793398+693577271+693599190+714931641+749355533+783578327+805933890
772+813709434+814635826+819767831+833462940+849582148+856757599+847324479
762+822959211+793568460+770347929+758411701+755052713+754354091+753029881
752+752276147+755100252+762584921+772534751+780989564+784616458+782078011
742+773944784+761775486+746990332+729872877+709602073+686209221+662921672
732+645668791+639407531+644927552+659183923+677904599+697497101+715557565
722+730898891+743598276+754784303+765762839+777060858+788401199+799363496
713+809721240+818857595+824771690+824539125+817167878+806122618+797853756
703+797230524+804666812+816760636+827625834+829557372+815602015+785365901
693+749016192+722913583+718516128+734699198+760897139+786549679+806917918
683+821974510+832943875+840899985+846971845+851963419+855605879+857191346
673+857205986+857552815+860287646+866075951+872281174+876085688+878213948
663+879756335+880974695+882424106+884903486+888115060+890650898+891577205
653+891243502+890785776+891593444+894700684+899643961+904271542+906489833
643+905845313+902924951+897772415+889820764+879463356+868950204+860930903
633+856031632+852839158+850660834+851161725+856596722+866913069+879041895
623+889158996+895519374+898950724+901154627+903298621+905974049+909436952
613+913375503+916868865+919022114+919681779+919466799+919203017+919470501
603+920495758+922102344+923776075+925008066+925558263+925497009+925364991
594+926187805+928747455+932678771+936711644+939855736+941960016+943210266
584+943525289+942810007+941621938+940775817+940163187+938855049+936585096
574+934330625+933255809+933680215+934928614+935838934+935916680+935987443
564+936783752+936921407+933676261+926444098+918280496+913159597+912661988
554+915747603+920497272+925224140+928739210+930805037+932372834+934414681
544+936508612+937591757+937792181+937999588+937885325+936154715+932550287
534+927848158+922426371+916419131+910559980+905910018+903622900+904848833
524+909352811+915001862+919950946+924273936+928706647+932475654+933805585
514+932319321+929268961+926026339+923358904+921228120+918467878+913656029
504+907074696+901018234+897629965+896482115+894894965+890772818+884767514
494+879755325+878133678+879866980+883112547+886308302+889566406+894148046
484+900397864+906423025+909629466+909094919+905994832+902717628+901315252
475+901949927+903209263+904201200+905653051+908634163+913360105+919245677
465+925384680+930788377+934271389+934949902+933421482+931968537+932389494
455+933966210+934981286+935019654+935490591+938070856+942572646+947096649
445+950580083+953805960+956971173+958602496+958358067+958602833+961820044
435+966696935+968340122+963708250+955739434+951331881+954402940+961443177
425+965187783+963351577+961298118+964290589+970670404+974440253+975180440
415+975842713+975437491+971378786+964665605+959559431+957984650+957676946
405+956425771+955345318+957325322+964171698+974419638+981520373+978637958
395+967484241+954028513+942844673+937552043+938720003+942472434+944997502
385+946716669+948232552+945564612+937255278+929267783+927359131+927322529
375+916226365+894474092
##END=
