##TITLE=X9340
##JCAMP-DX=5.0
##DATA TYPE=LINK
##BLOCKS=1


$$ === CHEMSPECTRA SPECTRUM ORIG ===
##TITLE=X9340
##JCAMP-DX=5.00
##DATA TYPE=INFRARED SPECTRUM
##DATA CLASS=XYDATA
##ORIGIN=ComPlat
##OWNER=
##XUNITS=1/CM
##YUNITS=TRANSMITTANCE
##XFACTOR=1
##YFACTOR=9.1101854e-010
##FIRSTX=3997.453
##LASTX=373.96442
##MAXX=3997.453
##MAXY=0.9781987079263984
##MINX=373.96442
##MINY=0.5716730363231729
##NPOINTS=2559
##XYDATA= (X++(Y..Y))
2559A066753239A066275430A065456488A064841349A064754005A065140348A065806323
2552A066602692A067361966A067888059A068072562A067879750A067293857A066447959
2545A065692088A065318438A065274210A065269172A065125103A064911028A064863202
2538A065210943A065838971A066174739A065849897A065368555A065441963A065837924
2531A065809856A065319681A064823880A064216004A062965509A061243356A060226107
2524A060772744A062026445A062412853A061821202A061638204A062547697A063691350
2517A064274102A064185711A063207914A061156535A058985884A058481251A060024528
2510A061939689A062532714A061769777A061014102A061056891A061051134A060030809
2503A058692643A058997269A061595874A064877857A067188455A068275514A068292722
2496A066579270A062252100A055786469A049597984A046225843A046106833A048509158
2489A052630170A056797765A058952713A058315330A056309488A055830697A057650009
2482A059105157A058040212A055289229A053359739A052864462A053084948A054844263
2475A058468035A061355039A060848966A056902120A051852185A048335255A048142967
2468A050995753A053543718A053054525A050742880A050546012A053806209A057615594
2461A059137085A057608267A052906007A045168357A039184394A041972670A050296803
2454A057928594A062355081A063210858A060954041A056515973A051228148A046499718
2447A043801272A044389521A047702451A051659242A055021766A057790217A060025248
2440A061253628A061158825A060059008A057950774A053862410A047981298A044156145
2433A045148794A048503990A052371277A057310577A062688952A066370625A066987073
2426A064483271A060361932A057260853A055774692A053831333A050908932A049779411
2419A051940118A055675310A060066205A065013617A069425841A072215098A073489866
2412A073741823A072904889A070961006A068871025A067606988A066681990A065359264
2405A064699701A066445800A069934662A072649726A072839659A070376944A066684541
2398A064020117A063387052A063972421A065072239A066189525A066034530A063646598
2391A060278906A058650247A059067602A058787643A055294332A048398915A041716330
2384A040204981A042550909A044391811A044859151A046168464A049514369A052828477
2377A053810331A051053852A044746029A038984190A039837939A047376759A055949577
2370A061397566A062788793A060949396A057844587A055875121A056332518A058985099
2363A062721404A066061944A067739934A067012720A063534915A057924799A053486863
2356A054489980A060207460A066416031A070180731A070574532A068526817A066766390
2349A067376621A069400652A070930975A071161472A069627943A065430252A058439901
2342A051556065A050046351A054783221A061176687A065948494A068257588A067912987
2335A064891989A059213699A051045674A043146485A041147905A044415953A047079330
2328A047860521A050686417A057151721A063805322A067806931A068826993A067850505
2321A065752150A062621498A058620282A055061479A052766060A049717453A042891846
2314A031906953A023025583A024513183A033499038A042398073A048028471A050576763
2307A051351346A051212511A050055249A047713246A044769125A041937406A038734784
2300A033858556A028497192A027741975A032241740A036815305A038151574A035621928
2293A030065854A024080715A020824051A020272965A020210286A019970499A020196023
2286A020541540A020124120A019773827A021059652A023182149A023784726A022052104
2279A019522851A018074377A017641581A017064324A016285031A016286012A016944398
2272A016318202A012602049A006841452A003580275A005196241A008705319A010999822
2265A011503867A010980980A010190367A009509671A009097092A008836695A008025670
2258A005335861I99497734I91087696I84512149I84443975I89138775I93911041
2251I96816823I98447444I99608305A000017677I98888026I96198936I93177480
2244I91175368I89925724I88001403I85093789I82937270I83294564I85610003I87813695
2236I88423796I87435269I85952511I84992444I84422973I83335390I81270926I78659694
2228I76224066I74251330I72651066I71587298I71511927I72444384I73695729I74488239
2220I74510942I73846013I72607492I70816314I68662935I66762103I65735040I65309964
2212I64395565I62397640I60144355I59077971I59477922I60216979I60161366I59250958
2204I58300378I57867714I57566164I56636324I54906385I52974148I51494203I50480814
2196I49523364I48559699I47966216I47761039I47377837I46487318I45385407I44379804
2188I43382313I42305002I41307970I40511600I39862047I39315017I38857425I38361951
2180I37710108I37049694I36633844I36385682I35950531I35164498I34040604I32397290
2172I30154604I27952483I26668817I26251921I25926359I25397845I24892426I24333227
2164I23414967I22292316I21430585I20907894I20430870I19876905I19394713I19110042
2156I18951122I18595137I17579589I15790177I13838377I12574209I12225617I12336907
2148I12364583I12020571I11313377I10520802I09967687I09722273I09581737I09287515
2140I08654122I07648191I06449057I05324181I04418549I03718552I03149931I02627109
2132I02069022I01477110I00965475I00596536I00215558H99626132H98888973H98236476
2124H97743357H97307159H96832491H96263151H95614972H95055379H94749250H94599227
2116H94292639H93607428H92647427H91793220H91323066H91095579H90784869H90380730
2108H90227371H90566737H91165847H91441815H90985924H89943028H88838107H88131502
2100H87947720H88060122H88073731H87711596H86935573H85879265H84796262H83992826
2092H83622251H83597978H83756636H83992826H84187207H84137876H83709791H83061089
2084H82557109H82369466H82326808H82225725H82066542H81927119H81821848H81703949
2076H81488892H81121524H80660529H80205423H79783227H79388313H79084539H78970828
2068H79015906H78971940H78570353H77835091H77076341H76553845H76277682H76181832
2060H76332051H76773025H77202222H77139543H76562875H76002498H75828857H75831212
2052H75630680H75112830H74383915H73625820H73044441H72784633H72854443H73128448
2044H73432419H73675020H73837212H73847288H73625558H73169143H72462997H71563515
2036H70836039H70665472H70905718H71064115H70925542H70591082H70166400H69783852
2028H69612696H69568599H69311473H68709223H68045080H67626090H67391274H67058908
2020H66533207H65970017H65535128H65301163H65302341H65471010H65559793H65325437
2012H64793978H64205926H63679374H63098192H62419328H61839977H61472935H61131867
2004H60711830H60492194H60737412H61215220H61394162H60986817H60143994H59230773
1996H58550077H58241461H58269201H58382324H58220132H57676635H57093817H56866394
1988H56916315H56826681H56458788H56094952H55929554H55780840H55453512H55102238
1980H55035372H55288768H55555446H55542950H55306891H55106752H54956598H54589949
1972H53943733H53340632H53026389H52811529H52363358H51683840H51090423H50769572
1964H50545617H50205073H49836853H49621077H49500104H49346156H49240361H49230351
1956H48975908H48022514H46455356H44991834H44282873H44264358H44341692H44069649
1948H43465502H42803060H42355674H42256226H42377461H42374124H41964948H41162559
1940H40224737H39428040H38897432H38656990H38756896H39178569H39675417H39960676
1932H40021784H40010007H39930122H39704335H39405926H39158418H38934921H38681656
1924H38516781H38574291H38728828H38715089H38513575H38361001H38335877H38202342
1916H37779295H37208712H36697928H36233466H35769724H35533338H35886510H36858811
1908H37979434H38662944H38677861H38129915H37166773H36003491H35133714H35078363
1900H35822130H36781477H37366520H37369333H36934640H36464879H36414043H36824855
1892H37171680H36950081H36279068H35680875H35433825H35401635H35383643H35413673
1884H35704624H36337690H37019891H37279110H36944716H36287181H35693240H35393130
1876H35442199H35708616H35908624H35882650H35821738H36015792H36417183H36666065
1868H36496742H35933093H35168390H34445952H33997781H33961338H34376076H35195149
1860H36184592H36939351H37178681H36938370H36427586H35877416H35487082H35266987
1852H35010254H34597937H34180779H33915278H33727112H33426805H32916349H32281713
1844H31742861H31430319H31220628H30925947H30536071H30123231H29688996H29264706
1836H28975521H28892822H28986448H29234152H29590529H29889855H30000295H30057281
1828H30341493H30905534H31483511H31787743H31772761H31595063H31434834H31375230
1820H31354752H31194261H30735622H30037522H29418654H29186129H29303308H29463340
1812H29447311H29189727H28593758H27625971H26515751H25572761H24961155H24812637
1804H25219000H25939083H26465700H26514246H26176123H25658600H25196036H25094363
1796H25550385H26489384H27729018H29157996H30669737H32120633H33479997H34863372
1788H36319894H37740170H39042613H40234224H41189449H41653322H41656070H41678511
1780H42159068H43000516H43779025H44282612H44633232H45040773H45657678H46519932
1772H47438126H48111560H48469311H48670301H48763010H48709884H48746588H49261428
1764H50257480H51302077H52042704H52480603H52770572H53028679H53338539H53741434
1756H54196540H54605978H54869647H54923493H54787275H54575424H54438487H54541533
1748H55069917H56105682H57476495H58865628H60061034H60974975H61558446H61906188
1740H62328254H63097865H64183484H65312220H66237088H66929430H67557850H68255426
1732H68942338H69466992H69825397H70119489H70419469H70763546H71153946H71512875
1724H71769215H71977598H72259193H72680408H73233327H73839306H74356043H74700579
1716H74965948H75312119H75745896H76119677H76349389H76506739H76672006H76829684
1708H76965967H77158517H77498669H77991591H78561717H79108485H79573470H80000115
1700H80476747H80974314H81352413H81587359H81843242H82220818H82616713H82944695
1692H83286810H83706520H84143633H84608161H85238413H86028371H86708478H87036526
1684H87078465H87102411H87285408H87591407H87864824H87986844H87996724H88077329
1676H88367691H88804674H89237208H89639515H90074666H90513742H90861614H91109057
1668H91336610H91605643H91908305H92169684H92299097H92297396H92272992H92300209
1660H92352812H92449643H92754203H93387661H94186452H94775944H94917526H94706068
1652H94415444H94255346H94316650H94616761H95056165H95391802H95408551H95130293
1644H94790468H94614537H94678327H94906666H95146846H95302495H95434787H95658938
1636H95950543H96170507H96251308H96207734H96006876H95627795H95239293H95118909
1628H95343714H95701400H95935692H95977564H95942038H95999548H96236195H96558878
1620H96770205H96819602H96890328H97116572H97332283H97308075H97160146H97259464
1612H97721439H98248645H98541690H98609799H98569823H98387087H98029205H97702858
1604H97673220H97898810H98095416H98166011H98319502H98692694H99093758H99275119
1596H99280484H99318039H99407150H99402505H99317974H99347023H99548798H99790679
1588I00027523I00361590I00812967I01287700I01766294I02279499I02729305I02949072
1580I02925388I02816715I02746970I02693517I02647980I02818285I03461950I04471937
1572I05374625I05830123I05892801I05736890I05451893I05171410I05087403I05264054
1564I05614085I06015149I06353338I06598425I06887347I07325639I07741293I07911860
1556I07991549I08411717I09335210I10404147I11050559I11003452I10519101
1549I10131253I10138843I10403558I10673180I10917809I11231529I11580971
1542I11838555I11967445I12073697I12332655I12872030I13580597I14053696
1535I13930563I13313789I12725213I12631391I13074590I13771512I14481649
1528I15167449I15804963I16299587I16697772I17189124I17726863I17970380
1521I17781756I17455213I17294591I17285890I17340063I17584953I18211346
1514I19129016I19940107I20333843I20452657I20704025I21193676I21609592
1507I21754184I21877251I22276548I22843141I23214566I23233605I23140635
1500I23363411I24126348I25253056I26363015I27149374I27450270I27337606
1493I27184508I27337671I27743511I28180625I28673678I29376423I30264193
1486I31154254I31817219I32042351I31825201I31437485I31198155I31311539
1479I31871850I32740974I33470020I33655570I33377769I33109979I33223756
1472I33704312I34311993I34868836I35345860I35794816I36277924I36762079
1465I37032487I36884231I36486504I36339818I36725964I37412025I38074009
1458I38713225I39345309I39681928I39598771I39561151I40078870I41027945
1451I41868739I42224266I42082291I41794088I41910154I42679765I43749944
1444I44556782I44872661I44854472I44746911I44678933I44702225I44888363
1437I45260116I45669489I45948205I46177721I46593113I47197391I47698819
1430I47921137I48084834I48502582I49117328I49599520I49857693I50152373
1423I50658512I51198934I51541572I51755385I52116277I52824518I53997220
1416I55775836I58149571I60788740I63352734I65849797I68438261I71124996
1409I73837050I76467845I78797024I80646104I81931667I82438133I81978120
1402I80824980I79492179I78113252I76329926I73844181I71054859I68917771
1395I68195529I69101292I71324742I74107850I76577957I78174753I78691425
1388I78256274I77370598I76630429I76333066I76392539I76501277I76326327
1381I75723227I74863786I74108635I73728573I73737078I73885793I73788503
1374I73202152I72267602I71356016I70634101I69983829I69389299I69074795
1367I69126351I69352464I69620254I69950657I70271508I70469031I70608127
1360I70756972I70807089I70810033I71146652I71956957I72755290I72993180
1353I72694509I72253601I71952508I71928039I72277350I72946335I73699916
1346I74327551I74754328I74989470I75142895I75418667I75896672I76339805
1339I76408634I76110420I75883783I76120103I76701875I77101434I76900248
1332I76265350I75951892I76610278I78017468I79306826I79982550I80240526
1325I80296662I80000149I79328285I78832289I79139138I80058771I80682089
1318I80565106I80335067I80847748I82177474I83661475I84597661I84725504
1311I84229311I83520023I83105809I83402779I84322478I85269917I85810143
1304I85986401I85991832I86050650I86335844I86630720I86710148I87043037
1297I88042425I88941907I88719981I87750035I87388685I88297130I89934491
1290I91307921I91780954I91387938I90688661I90472885I91270040I92738666
1283I93831744I93967700I93623099I93483021I93575011I93622510I93888469
1276I95074453I97159395I98848639I98805785I97222924I95501949I94634264
1269I94518983I94644863I94978799I96052381I97985272I99764150A000273364
1262I99811519I99550926I99508791I98590859I96800728I95681675I96181663
1255I97265386I97522773I97095343I96835731I96682895I96188533I95533288
1248I95054171I94752424I94680062I94898848I95037814I94679474I93958475
1241I93280265I92772360I92302468I91816939I91517220I91651541I92064447
1234I92166774I91596910I90700110I90087131I89924154I89901254I89743969
1227I89492470I89293116I89170442I89142963I89331063I89702031I89938874
1220I89905638I89949016I90350603I90784118I90749769I90347920I90259922
1213I91012063I92385101I93561599I93919873I93606677I93264170I93401108
1206I94114386I95130523I96018294I96547397I96836516I97131916I97590097
1199I98130715I98262941I97385051I95608005I94085991I94105750I95785114
1192I97883665I99065396I99283070I99561001A000408600A001186062A001298464
1185A001156816A001522680A002552950A003894060A005186296A006044101A006103574
1178A005596912A005370209A005891200A006669119A007053565A007236759A007858113
1171A008866791A009719232A010653390A012517583A014914152A015810820A013872695
1164A010270122A007426822A006655642A007239572A007509063A007005542A007042966
1157A008566026A010489235A011117328A010355634A009350620A008734630A008243278
1150A007489501A006684429A006832685A008766820A011752880A013827943A013786855
1143A012320192A011155864A011526178A013599801A016544446A018939248A019854367
1136A019626160A019205206A018956979A018594255A018170423A018292508A018957567
1129A019037322A017586034A015119852A013100402A012488011A013171978A014402256
1122A015274062A015213019A014390610A013374407A012495404A011776957A011080100
1115A010221314A009256209A008474560A007943691A007398885A006770988A006461456
1108A006810833A007529934A008132315A008611432A009191503A009696529A009638757
1101A008927442A008101565A007717446A007614531A006979044A005428962A003850158
1094A003400745A003753000A003690256A003179996A003380332A004533144A005418560
1087A004998261A003617895A002644285A002928170A003929782A004639724A004739695
1080A004495786A004036493A003209830A002076057A001202222A001150273A001592687
1073A001557160A000836554A000439350A001132150A002258400A002890550A003032002
1066A003076949A003041227A002810599A002521349A002230986A001631746A000359792
1059I98255549I95379732I92500774I91489414I93478572I96940936I99562048
1052A000422340A000016500I99311923I98964313I99111849I99499828I99753355
1045I99613866I98882399I97341019I94947787I91999282I89274404I88240798
1038I89748418I92308683I93910387I94113797I93803807I93865046I93962859
1031I92811223I89853493I86683716I85669149I86545143I87413024I87959661
1024I89051104I90552574I91513557I91600312I91214493I90595166I89398649
1017I87341447I85014493I83673448I83854025I84737281I85079003I83993318
1010I81285974I77895317I75501170I74699042I74308709I72903481I69893867
1003I65973322I63641461I64806705I67568156I68943811I67997418I65593261
996I62755653I59784183I57018021I54903506I52863773I49501904I43913445
989I36573979I29911349I26399915I25378806I24752021I23297004I20194288
982I14800538I07900541I01804634H97311805H93189943H88988457H84992541
975H80373046H73876403H66199991H60642478H59188769H59940257H60379856
968H59671223H57905758H55100667H51542257H47618310H42470236H34596890
961H25281810H19084754H16372503H14053596H10593260H05517744G98505671
954G90036881G81336939G72493255G61759076G48048586G35137867G28629251
947G27119668G26340505G24388706G20947802G16168208G10781393G06365701
940G03848748G02136474F99718054F97095306F96757510G00018622G06497797
933G13907923G19363436G22178079G23331612G23772127G23354118G21894521
926G21971986G27038474G34785154G41755680G46965583G50487746G53187631
919G56009013G58446146G59905939G62246699G68088947G75733169G81469231
912G84471844G86582695G90066977G94556404G97715713G97967474G94747907
905G88641663G84661646G87235912G90045059G89023884G86073285G85858360
898G89005172G91443744G90994461G87569521G81516796G73504157G66448185
891G64948285G67590660G69427244G68594758G65708867G62358055G59453843
884G56838554G54983062G54796858G55292791G54504534G52272774G51207829
877G53052395G55602454G56663212G56078758G54959247G54435640G54559754
870G54642256G54421638G54350520G54807458G55519689G55992722G56150334
863G56312853G56705215G57281229G58046260G59173360G60680326G62287198
856G63710025G64885018G65743150G65849533G64579018G62088629G60687196
849G63074539G67109907G69060922G68512780G67980928G69724476G72564701
842G74509565G74820733G72756269G66814703G57466386G53492322G58908841
835G65414579G69720092G71981228G72677234G72569346G71838991G69393419
828G64189273G56764884G49006297G44011516G46906503G56051082G63260546
821G65927391G65995107G66748492G68880934G69918727G68407378G65216337
814G61922838G58547491G54427658G50734862G48850975G47676179G46567136
807G46528207G47038860G45592610G40461874G31652539G20555505G12638586
800G15330554G22983085G27722180G28533532G26540252G23578269G22333467
793G24240515G27077272G27706150G25087721G21186870G20501724G24727614
786G30574443G34972011G37264813G38189615G38492801G38020881G36105851
779G32606063G28664123G27155195G30545655G36576201G41071844G42458163
772G41629342G40866732G41231222G40914689G37750212G31292890G24887844
765G24888367G30047760G34590118G36495203G35801029G33341521G30797808
758G29557455G29281159G28754739G27343034G24937764G21309282G16583666
751G12647091G11474258G11784379G11593792G10975447G11175717G12228232
744G12800516G12351822G11627290G10962493G09667247G08158645G08991523
737G12872093G17321086G20454617G22105194G22957765G23486083G23429882
730G22513193G21363717G20802686G20297267G18600238G15524020G12132905
723G09416795G07763078G07385175G07680706G07180456G04939471G01533505
716F98844939F97947550F97768478F96858267F94877221F92246557F89221045
709F85715434F82101870F79651521F79230241F80104010F81290256F82685866
702F84197412F85190584F85622464F86838936F90077477F94560165F98595337
695G01402390G03280389G04906627G06565382G08039897G09136704G09984827
688G10830855G11670995G12003950G11042182G08553559G05679444G04364831
681G05263790G07121899G08475375G08797927G08349494G07644983G07036910
674G06566822G06105173G05564359G04923246G04173852G03451872G03092419
667G03244339G03600259G03850645G04104173G04549595G05038919G05330525
660G05448358G05539039G05572144G05353359G04737173G03759179G02623443
653G01569947G00696571F99881816F98922992F97780844F96667810F95847429
646F95361573F95026917F94695728F94397908F94190179F94007116F93758496
639F93459170F93122093F92608758F91755205F90647144F89635587F88990352
632F88618599F88202487F87528399F86606084F85603294F84769958F84268072
625F83994328F83728827F83410528F83069003F82609906F81899245F80940290
618F79798861F78467958F76932205F75272861F73620321F71999972F70260808
611F68226832F65934423F63631153F61530115F59660295F57956199F56397547
604F55019536F53812027F52643054F51262819F49326524F46495657F42774793
597F38778223F35365583F32911177F31156115F29754485F28656107F27932361
590F27556879F27509772F27923855F28965705F30626554F32714571F35022945
583F37436916F39915856F42444128F44994187F47482025F49753825F51623187
576F52915751F53538937F53560332F53174774F52545045F51720346F50722593
569F49669556F48837332F48618612F49286942F50713892F52448476F54123064
562F55647106F57026425F58228177F59244772F60119261F60912817F61733264
555F62692677F63770511F64854953F65931151F67044643F68075501F68757571
548F68978581F68925586F68896340F69056831F69406732F69894551F70510540
541F71293432F72295110F73545343F75022736F76644329F78300728F79932397
534F81580095F83343859F85265235F87238168F89052245F90559800F91798387
527F92923066F94054026F95226336F96411208F97540402F98585327F99616643
520G00680606G01681238G02542510G03371528G04282787G05208766G06054795
513G06859670G07637982G08230811G08491600G08529940G08658438G09121853
506G09916652G10823004G11579922G12083639G12457486G12898198G13452883
499G13997950G14396527G14603471G14671318G14725753G14891282G15213768
492G15653172G16080144G16311427G16299192G16232130G16273218G16296836
485G16046515G15405795G14398490G13093430G11591829G09987247G08354270
478G06867063G05793743G05220543G04878494G04375300G03522794G02357485
471G00934919F99218523F97138815F94706785F92084627F89500874F87022130
464F84495429F81842782F79323866F77352700F76138517F75632182F75708797
457F76219253F76912904F77508807F77909348F78236938F78613663F79022577
450F79436661F79953726F80721635F81797310F83113362F84526245F85908639
443F87236074F88567959F89937202F91307362F92652528F94019808F95467629
436F96970538F98424967F99745271G00946565G02119529G03260957G04133026
429G04441904G04204668G03748515G03312971G02877363G02410087G02056458
422G02029240G02445025G03275809G04397937G05658115G06883747G07915259
415G08739828G09512513G10330147G11112646G11798969G12471225G13160950
408G13727543G14051141G14189126G14199201G13924083G13104095G11670799
401G09833495G07916764G06207696G04952426G04389497G04660886G05657787
394G07054248G08559186G10058693G11524833G12935949G14297603G15637731
387G17007040G18498238G20124999G21690456G22964243G23977632G24932595
380G25794195G26184791G25796420G24747766G23364783G21743517G19773921
373G17519198G15363202G13798138G13096571G13110376G13435021G13819336
366G14293742G14911891G15577866G16131242G16488143G16742717G17114339
359G17686754G18297248G18801227G19296243G19937749G20643045G21165999
352G21502356G22022168G23043212G24456487G25942582G27323275G28584696
345G29829171G31204237G32595202G33539566G33753511G33537276G33427687
338G33696982G34337245G35249158G36228590G36935130G37129250G36957571
331G36831691G36973535G37198471G37163795G36744150G36105785G35402255
324G34521813G33307499G31902860G30633523G29672278G28979806G28372976
317G27594140G26541953G25346221G24064714G22593668G21000601G19582942
310G18529577G17822580G17415758G17262530G17260828G17354061G17597905
303G17990006G18326690G18404351G18308043G18301304G18528596G19077392
296G20128467G21690980G23395795G24895956G26255713G27668530G29030838
289G30044424G30585827G30784854G30832746G30872918G31044924G31477000
282G32185567G33076282G34063501G35132633G36300559G37548306G38773480
275G39859231G40816027G41781066G42859161G44027480G45168647G46150239
268G46918149G47522361G48038510G48502056G48908354G49253347G49646036
261G50308020G51289481G52301039G53001559G53299445G53310110G53311222
254G53710454G54637545G55607099G56023930G55981142G56163419G57009971
247G58304563G59558067G60489412G61071772G61337534G61353890G61284996
240G61215906G60956164G60324145G59600267G59310101G59522933G59763048
233G59651823G59250367G58801935G58544089G58684298G59174341G59584172
226G59494931G58962425G58459820G58424163G58886400G59519989G60057205
219G60575513G61296970G62202994G62954874G63172875G62803674G62275814
212G62232174G63065706G64712814G66342325G66479916G65116692G63471546
205G62121473G61080735G60219593G59511811G59124617G59100737G58961706
198G58008836G56153540G54085412G52452697G51253693G50194833G49207679
191G48387494G47724856G46995613G45758859G43590563G40456639G36746048
184G33013146G29818572G27528779G26040787G24948690G23955256G22822136
177G21238360G19183841G17084570G15297187G13744946G12197089G10608340
170G09037649G07429272G05659685G03785677G02110304G00919216G00206265
163F99703529F99189997F98760604F98652781F98785139F98769502F98433079
156F98025604F97964299F98573354F99862122G01465069G03019927G04516424
149G06034447G07396297G08483553G09639637G11277783G13198832G14719079
142G15603971G16409697G17567875G18577927G18576488G17571539G16546176
135G16391181G17227134G18606977G19861724G20294585G19630180G18411548
128G17417917G16664075G15672080G14612434G14188079G14429960G14716135
121G14998646G15905783G17556229G19161138G20017962G20279340G20353795
114G20139655G19410282G18425680G17569183G16886001G16497761G16819659
107G17792156G18652906G18836885G18442429G17910644G17662416G17945320
100G18775515G19948414G21085720G21885950G22463862G22996105G22969738
93G21686662G19831693G19521245G21812411G25142287G27156242G26995816
86G25578484G24262629G23554781G22911247G21488485G19055671G16276751
79G14158964G13171026G12993917G13077859G13070073G12760410G11972872
72G10724603G09492035G08968886G09269912G09860451G10170637G09799801
65G08646007G07014273G05063651G02511956F99797154F98675353F99591977
58G00381412F99890583F99597865G00647370G01646234G00869754F98846313
51F97610146F98594944G01791023G06000556G09893426G12862344G14607462
44G14755653G13581380G12197023G11591175G12122175G13633459G15279456
37G15653826G14064881G11150267G08005417G06971615G11172381G18567852
30G23791428G24493977G22831558G23570811G28963253G36335759G41395573
23G41966549G38298747G31981044G25544594G21787287G22056648G24918463
16G28307877G31579261G34483015G36562985G36751740G33173767G24864159
9G14904432G10449485G15379101G26130618G37131671G44663098G47387452
2G47375806G48721300
##END=


$$ === CHEMSPECTRA PEAK TABLE EDIT ===
##TITLE=X9340
##JCAMP-DX=5.00
##DATA TYPE=INFRAREDPEAKTABLE
##DATA CLASS=PEAKTABLE
##$CSTHRESHOLD=0.93
##MAXX=3997.453
##MAXY=0.9781987079263984
##MINX=373.96442
##MINY=0.5716730363231729
##$CSSOLVENTNAME=- - -
##$CSSOLVENTVALUE=0
##$CSSOLVENTX=0
##NPOINTS=26
##PEAKTABLE= (XY..XY)
383.88014324472215, 0.647232652568452
399.4619940578573, 0.657561600393301
419.29344054730245, 0.6440642485187421
444.79101460515994, 0.6355357766981069
451.8736740656759, 0.6373466255594171
457.5398016340887, 0.6365062000240447
592.1103313838935, 0.6358584166471035
806.0066470914776, 0.6534379132347696
896.6646881860825, 0.6496441969914264
934.9110492728691, 0.6417118911482744
970.3243465754495, 0.6395616532621097
1022.7360265832681, 0.6155134440226543
1175.721470930414, 0.5909035809210665
1206.8851725566847, 0.5716730363231729
1372.6194039327597, 0.6187913424796682
1419.3649563721656, 0.6451456548562783
1430.6972115089911, 0.6477118137017874
1457.6113174589523, 0.6603862653046277
1473.1931682720874, 0.6624518641023154
1507.1899336825645, 0.6492269641653845
1541.1866990930412, 0.6778082850495066
1619.0959531587373, 0.6873676189880604
1685.6729520875683, 0.6576592925554193
1698.421739116497, 0.6347590094942355
2112.049051610649, 0.9016751056121853
2923.721825785779, 0.7529698016801208
##END=


$$ === CHEMSPECTRA PEAK TABLE AUTO ===
##TITLE=X9340
##JCAMP-DX=5.00
##DATA TYPE=INFRAREDPEAKTABLE
##DATA CLASS=PEAKTABLE
##$CSTHRESHOLD=0.93
##MAXX=3997.453
##MAXY=0.9781987079263984
##MINX=373.96442
##MINY=0.5716730363231729
##NPOINTS=147
##PEAKTABLE= (XY..XY)
3565.410772908522, 0.8968467128162966
3545.5793264190775, 0.8954740766269859
3522.914816145426, 0.8850653773281266
3501.666837763878, 0.8737378128865824
3418.0914561297886, 0.8310544497499393
3358.597116661454, 0.8110136397964584
3347.2648615246285, 0.8089368354707288
3334.5160744956997, 0.8049741398645122
3303.352372869429, 0.8007587204271511
3292.0201177326035, 0.7982178933631653
3282.104394487881, 0.7978963265940088
3272.1886712431588, 0.7951229820900958
3255.1902885379204, 0.793192387129851
3229.6927144800625, 0.7883054021765621
3209.8612679906173, 0.7839243422592768
3198.5290128537918, 0.781873882767687
3190.0298215011726, 0.7806211712369447
3177.281034472244, 0.7789530762477969
3136.2016096012508, 0.7691404827991973
3127.7024182486316, 0.76731103731643
3116.370163111806, 0.7640320665905946
3097.955248514464, 0.7639043335921197
3079.5403339171226, 0.7611863617060866
3065.3750149960906, 0.7607718710458501
3055.4592917513683, 0.7619887002893573
3044.1270366145427, 0.7610499867857412
3031.3782495856135, 0.7610586296186302
3024.2955901250975, 0.7614490994530225
3011.546803096169, 0.7597542405612066
2971.883910117279, 0.7551367285149199
2943.553272275215, 0.7554039366298317
2929.387953354183, 0.75141960433329
2918.0556982173575, 0.75167626194249
2875.559741454261, 0.7731904394052493
2851.4786992885065, 0.778409302946549
2726.8238927834245, 0.8128772384532718
2711.2420419702894, 0.8146831997001148
2699.909786833464, 0.815010429360516
2680.0783403440187, 0.8154699216035729
2672.9956808835027, 0.8162198073833845
2658.8303619624703, 0.8173295263551069
2644.6650430414384, 0.8177969462814988
2627.6666603362, 0.819295347669238
2605.002150062549, 0.8223290448735492
2590.836831141517, 0.8245514044534517
2566.7557889757622, 0.8291464453164307
2542.6747468100075, 0.8314241173869892
2522.843300320563, 0.8356644522704006
2498.7622581548085, 0.8409982335123729
2487.430003017983, 0.8446822767887784
2470.431620312744, 0.8483387836187938
2460.515897068022, 0.8500804907280107
2443.517514362783, 0.8530229339382257
2432.1852592259575, 0.8559576280247396
2423.6860678733383, 0.8579918750303915
2412.3538127365127, 0.8606200223104179
2348.6098775918686, 0.8820440772641077
2334.444558670836, 0.8894575243410436
2324.528835426114, 0.8870847829307434
2310.363516505082, 0.8828451048916993
2284.8659424472244, 0.8854444630748431
2266.451027849883, 0.8890482191983369
2257.9518364972632, 0.8891102677600777
2245.2030494683345, 0.8917343628296381
2238.1203900078185, 0.8931034214491422
2226.7881348709925, 0.8956276187806989
2204.1236245973414, 0.8995293982212199
2194.207901352619, 0.9023391616022879
2185.70871, 0.9050814513062094
2170.1268591868647, 0.9060252318949449
2153.1284764816264, 0.9070844658632545
2137.546625668491, 0.9061719778503495
2124.797838639562, 0.9032905701492588
2106.38292404222, 0.901127578003534
2100.7167964738073, 0.9018223890685285
2092.217605121188, 0.9021451483609539
2083.718413768569, 0.9048820739877118
2065.3034991712275, 0.9056307681552732
1868.4055661688817, 0.9032652383677356
1844.3245240031274, 0.9003056889623949
1837.2418645426114, 0.9053736932995818
1828.7426731899918, 0.8979628690450225
1810.3277585926503, 0.8961447484337259
1791.9128439953088, 0.877895236883687
1748.0003553401093, 0.7827368979187773
1698.421739116497, 0.6347590094942355
1685.6729520875683, 0.6576592925554193
1653.0927185691944, 0.7148413071329168
1646.0100591086784, 0.7159315357739944
1634.6778039718529, 0.6968820697762039
1621.9290169429241, 0.6876339315717473
1616.262889374511, 0.6843642596121496
1607.7636980218917, 0.6873048552767657
1602.097570453479, 0.6872273093786408
1576.5999963956215, 0.6930001386966139
1569.5173369351055, 0.6996448637744052
1558.1850817982795, 0.6864454750896499
1541.1866990930412, 0.6778082850495066
1515.6891250351837, 0.6801010372099578
1507.1899336825645, 0.6492269641653845
1497.2742104378417, 0.6580591804994782
1488.7750190852225, 0.656390428665963
1473.1931682720874, 0.6624518641023154
1464.6939769194682, 0.6749433285212113
1457.6113174589523, 0.6603862653046277
1434.9468071853007, 0.6481662397707434
1430.6972115089911, 0.6477118137017874
1419.3649563721656, 0.6451456548562783
1393.8673823143076, 0.6444410093461446
1372.6194039327597, 0.6187913424796682
1338.6226385222826, 0.6416894199649668
1318.791192032838, 0.6405302290424483
1206.8851725566847, 0.5716730363231729
1175.721470930414, 0.5909035809210665
1145.9743011962469, 0.6093769670781436
1063.8154514542607, 0.6525007493736902
1022.7360265832681, 0.6155134440226543
970.3243465754495, 0.6395616532621097
934.9110492728691, 0.6417118911482744
896.6646881860825, 0.6496441969914264
852.7521995308834, 0.668166220606317
841.4199443940574, 0.6712673313605512
806.0066470914776, 0.6534379123237511
796.0909238467552, 0.6543858052501762
726.6808611336978, 0.6887128362523727
706.8494146442531, 0.6917455796202726
698.3502232916339, 0.69104772848641
688.4345000469116, 0.690938473676982
672.852649233776, 0.6944076422985059
599.1929908444095, 0.6364856365135597
592.1103313838935, 0.6358584166471035
563.7796935418291, 0.6526456477834958
548.197842728694, 0.6506385810159847
526.9498643471461, 0.652742744139489
517.0341411024233, 0.6538037664371926
501.45229028928816, 0.6554971941188823
481.62084379984344, 0.6495506772942212
471.7051205551211, 0.6458837994291464
457.5398016340887, 0.6365062000240447
451.8736740656759, 0.6373466255594171
444.79101460515994, 0.6355357766981069
430.625695684128, 0.6482727533253845
419.29344054730245, 0.6440642485187421
412.2107810867865, 0.6585129506350853
399.4619940578573, 0.657561600393301
383.88014324472215, 0.647232652568452
375.380951892103, 0.6808732156134433
##END=

##END=

