##TITLE=CHS- 286
##JCAMP-DX=4.24
##DATA TYPE=INFRARED SPECTRUM
##DATE=29/8/2019
##SAMPLING PROCEDURE=Diamant-ATR
##ORIGIN=Fabienne
##XUNITS=1/CM
##YUNITS=TRANSMITTANCE
##RESOLUTION=4
##FIRSTX=3997.453
##LASTX=373.96442
##DELTAX=-1.4165319
##MAXY=0.95479506
##MINY=0.78534508
##XFACTOR=1
##YFACTOR=8.892222e-010
##NPOINTS=2559
##FIRSTY=0.9535048
##XYDATA=(X++(Y..Y))
3997+1072290823+1071857942+1071269083+1070834192+1070789080+1071172627
3989+1071797816+1072296654+1072352758+1071988115+1071536064+1071296565
3980+1071275317+1071233557+1070947339+1070481747+1070191976+1070361965
3972+1070910941+1071540287+1072009497+1072217760+1072161656+1071878521
3963+1071452276+1071078181+1070990372+1071219615+1071569043+1071885358
3955+1072209515+1072616053+1073004023+1073134933+1072882497+1072413823
3946+1071991801+1071654707+1071275652+1070854971+1070575858+1070579678
3938+1070836940+1071211303+1071538276+1071673945+1071551816+1071292141
3929+1071166996+1071311178+1071572662+1071705918+1071616634+1071351932
3921+1070941440+1070478061+1070258671+1070504471+1070994260+1071379482
3912+1071648808+1072011441+1072584750+1073252235+1073653745+1073326505
3904+1072195372+1070966308+1070400641+1070418605+1070487378+1070358345
3895+1070187016+1070265039+1070726608+1071320696+1071688490+1071925911
3887+1072300676+1072693942+1072691059+1072225669+1071702835+1071580237
3878+1071868466+1072085979+1071849161+1071245555+1070734853+1070603541
3870+1070621706+1070367126+1069808095+1069365965+1069487423+1070148876
3861+1070849005+1071279674+1071388397+1071015307+1070080170+1069161188
3853+1069410070+1070628677+1071468967+1071599809+1071183217+1070428257
3844+1069791740+1069754873+1070277440+1070948679+1071563278+1071991332
3836+1071936904+1071453483+1071049157+1071077444+1071391145+1071693115
3827+1071920146+1072072103+1071994684+1071545582+1070809592+1070152362
3819+1069883236+1069957170+1070231658+1070542410+1070784589+1071036287
3810+1071361651+1071635268+1071612076+1071219816+1070770647+1070671510
3802+1071021474+1071317613+1070909869+1069959382+1069191284+1069161523
3793+1069778401+1070561647+1071154797+1071447986+1071525138+1071532042
3785+1071518904+1071419700+1071195685+1071002370+1071187910+1071879258
3776+1072594268+1072735165+1072224865+1071468766+1070974218+1071019664
3768+1071448120+1071808742+1071792253+1071504694+1071298107+1071354010
3759+1071506504+1071425196+1071031595+1070607764+1070512984+1070988093
3751+1071956074+1072842815+1073198343+1073008313+1072164873+1070776345
3742+1069762045+1069747232+1070462644+1071370567+1071917331+1071804385
3734+1071346972+1070981658+1070760526+1070710655+1070894988+1071155735
3725+1071194881+1071020535+1070980988+1071206678+1071407902+1071271831
3717+1070874008+1070669901+1071063703+1071875437+1072155623+1071281484
3708+1070040019+1069347934+1069349207+1069858032+1070647580+1071372644
3700+1071706454+1071672336+1071497119+1071312049+1071143066+1071051034
3691+1071174034+1071524401+1071672604+1071170415+1070371416+1069952478
3683+1070142977+1070603541+1070784254+1070451048+1069893089+1069812385
3674+1070694166+1071965861+1072876196+1073102088+1072537225+1071551347
3666+1070761330+1070481278+1070610914+1070779964+1070729826+1070522837
3657+1070353988+1070357876+1070559838+1070854770+1071009542+1070758917
3649+1070266313+1070312295+1070962688+1071613349+1072064931+1072357249
3640+1072295783+1071635134+1070662729+1070121461+1070424236+1071175375
3632+1071656450+1071659600+1071627091+1071898093+1072157165+1072260525
3623+1072435205+1072830281+1073375571+1073741823+1073461235+1072544800
3615+1071584191+1071052777+1070827355+1070496293+1070020916+1069751187
3606+1069893022+1070238696+1070443473+1070338370+1070071993+1069981167
3598+1070177029+1070397759+1070367930+1070152697+1069992428+1069901334
3589+1069735770+1069591454+1069799113+1070292522+1070593956+1070530344
3581+1070372690+1070425509+1070627404+1070686122+1070549180+1070479804
3572+1070693496+1071114646+1071406025+1071137369+1070311692+1069700780
3564+1069759431+1070077690+1070255990+1070300632+1070336024+1070418136
3555+1070580952+1070756571+1070790622+1070713269+1070713471+1070763475
3547+1070648183+1070336091+1070017229+1069828941+1069795762+1069894564
3538+1069984652+1069837655+1069379170+1068822351+1068474464+1068491624
3530+1068794198+1069068083+1068966331+1068522927+1068201920+1068309436
3521+1068569781+1068559459+1068309973+1068208623+1068497322+1069020022
3513+1069335868+1069059302+1068253533+1067477660+1067263767+1067673991
3504+1068429755+1069128410+1069378901+1069106223+1068676359+1068515018
3496+1068635136+1068630913+1068187240+1067459160+1066876936+1066784435
3488+1067287496+1068160026+1068834684+1068811090+1068173499+1067437576
3479+1066890342+1066499825+1066364357+1066674036+1067252037+1067624523
3471+1067595030+1067435297+1067479939+1067744842+1067966443+1067912015
3462+1067611653+1067344806+1067396084+1067759454+1068121953+1068193407
3454+1067968320+1067604414+1067254182+1067123071+1067404530+1067944793
3445+1068232419+1067944927+1067306465+1066839399+1066854950+1067157256
3437+1067250696+1066870769+1066223527+1065660809+1065329211+1065243279
3428+1065447989+1065897023+1066345857+1066568866+1066598761+1066651581
3420+1066860782+1067114424+1067137549+1066778402+1066234051+1065897560
3411+1065939923+1066153346+1066229426+1066077736+1065861497+1065800232
3403+1065953798+1066202882+1066410809+1066523352+1066513164+1066389158
3394+1066259790+1066238542+1066302220+1066347466+1066331244+1066270515
3386+1066182706+1066072441+1065957350+1065901917+1065956345+1066001523
3377+1065809817+1065378546+1064968791+1064693029+1064399705+1064091300
3369+1064069247+1064496497+1065132009+1065618312+1065828116+1065868066
3360+1065870882+1065837031+1065671735+1065362123+1065044870+1064883595
3352+1064930986+1065097488+1065248775+1065392220+1065674483+1066062923
3343+1066220108+1065956412+1065578764+1065463003+1065500406+1065331625
3335+1064950156+1064695174+1064752619+1064981459+1065157078+1065180002
3326+1065110358+1065070073+1065089914+1065111297+1065142801+1065231683
3318+1065304544+1065253669+1065086831+1064818174+1064432081+1064086809
3309+1063992765+1064014617+1063838328+1063556064+1063615252+1064182796
3301+1064945129+1065498462+1065654978+1065443632+1065025029+1064606560
3292+1064399571+1064589333+1065149638+1065701362+1065832607+1065560063
3284+1065217405+1065001769+1064909268+1064941241+1065087970+1065238185
3275+1065253400+1065077715+1064809996+1064717830+1064963495+1065288591
3267+1065295227+1065067191+1065121150+1065681052+1066359263+1066611162
3258+1066264482+1065566967+1064883059+1064430271+1064238364+1064216579
3250+1064209608+1064113084+1064005300+1064045518+1064222142+1064387171
3241+1064502060+1064597243+1064586987+1064418809+1064284145+1064375105
3233+1064573648+1064630356+1064495893+1064281129+1064067370+1063947453
3224+1064118380+1064701274+1065468835+1065950111+1065903592+1065546054
3216+1065241737+1065131741+1065116525+1065052042+1064930047+1064882590
3207+1064932930+1064858995+1064514729+1064144656+1064118983+1064489190
3199+1064966847+1065228867+1065182550+1065006730+1064944392+1065079122
3190+1065342483+1065586741+1065587210+1065209496+1064649124+1064305528
3182+1064375172+1064734520+1065167334+1065542769+1065801774+1065928595
3173+1065989123+1066087255+1066203954+1066182840+1065944749+1065600348
3165+1065329949+1065252060+1065365475+1065532380+1065568375+1065408843
3156+1065191465+1065179131+1065475337+1065768996+1065615966+1065050433
3148+1064578877+1064541072+1064870055+1065408642+1065992809+1066323201
3139+1066205228+1065868871+1065745669+1065950446+1066196447+1066219773
3131+1066054142+1065820341+1065519242+1065189119+1064985883+1064944124
3122+1064909603+1064817370+1064815560+1065036893+1065397917+1065663490
3114+1065679779+1065535932+1065463607+1065601957+1065896688+1066183577
3105+1066294043+1066159714+1065872088+1065582183+1065338260+1065120212
3097+1065023152+1065253333+1065858548+1066560621+1066960523+1066877607
3088+1066439833+1065917736+1065541161+1065406095+1065440414+1065469371
3080+1065391751+1065268884+1065201586+1065188582+1065167669+1065112168
3071+1065046814+1065074899+1065356090+1065895616+1066405514+1066568129
3063+1066352627+1065954870+1065588283+1065417624+1065478420+1065620524
3054+1065686750+1065672271+1065619854+1065520515+1065386991+1065265265
3046+1065169680+1065121418+1065176919+1065357163+1065637416+1065991402
3037+1066304901+1066332853+1065938247+1065345902+1064971606+1064987492
3029+1065200648+1065379350+1065524872+1065741782+1065991804+1066129484
3020+1066131763+1066155424+1066343243+1066649905+1066884511+1066879953
3012+1066621887+1066251076+1065947966+1065813035+1065878322+1066174059
3003+1066669478+1067164562+1067400173+1067296746+1066976141+1066581803
2995+1066201474+1065923031+1065816051+1065835624+1065837970+1065723549
2986+1065516359+1065274247+1064974823+1064564733+1064072464+1063566253
2978+1063022036+1062340206+1061495291+1060581805+1059702169+1058852496
2969+1057906366+1056736222+1055407417+1054185392+1053265873+1052537926
2961+1051708429+1050646002+1049542016+1048710977+1048281918+1048156169
2952+1048203023+1048349752+1048517729+1048666737+1048868900+1049152035
2944+1049336703+1049183003+1048584089+1047507653+1045924067+1043923554
2935+1041741121+1039545216+1037289988+1034855187+1032280025+1029789790
2927+1027607156+1025824893+1024498502+1023785033+1023847170+1024620497
2918+1025812359+1027214628+1028885554+1030885330+1032946237+1034634725
2910+1035816600+1036757635+1037760204+1038873708+1039967103+1040929588
2901+1041754661+1042519810+1043321959+1044187250+1045048721+1045837464
2893+1046527003+1047089787+1047536610+1047993755+1048562036+1049144327
2884+1049592959+1049923619+1050198375+1050364610+1050358845+1050206888
2876+1049942722+1049591149+1049243129+1049021729+1048995721+1049138428
2867+1049282543+1049181461+1048717412+1047959168+1046952711+1045631414
2859+1044023429+1042389168+1041020280+1039995054+1039268046+1038944827
2850+1039264158+1040300980+1041866468+1043710666+1045623638+1047334782
2842+1048583218+1049384093+1050036296+1050795345+1051685639+1052661798
2833+1053745071+1054898458+1055929247+1056651496+1057074188+1057352497
2825+1057616394+1057882906+1058105311+1058264575+1058409293+1058603881
2816+1058856049+1059119879+1059336386+1059449399+1059429960+1059340743
2808+1059319360+1059428418+1059581515+1059676363+1059720133+1059757000
2799+1059761960+1059710481+1059691176+1059840318+1060140680+1060382190
2791+1060424620+1060413560+1060565115+1060834241+1061015959+1061064288
2782+1061080174+1061081515+1060992700+1060805887+1060644344+1060661504
2774+1060875062+1061104372+1061154309+1061033186+1060894769+1060840541
2765+1060875062+1060976143+1061117242+1061279387+1061476858+1061720982
2757+1061937489+1061996810+1061878972+1061753625+1061805104+1062002039
2748+1062127720+1062020271+1061744777+1061533029+1061554814+1061754229
2740+1061933266+1061965574+1061894456+1061865767+1061968591+1062095412
2731+1062016852+1061655024+1061190774+1060894702+1060962536+1061412308
2723+1061998419+1062355153+1062351534+1062164654+1061991649+1061886546
2714+1061845255+1061834531+1061762540+1061569024+1061324700+1061196069
2706+1061329995+1061742498+1062267143+1062653236+1062753848+1062611409
2697+1062365208+1062119274+1061918854+1061806780+1061837614+1061974892
2689+1062035889+1061877832+1061623788+1061540067+1061664207+1061741493
2680+1061582363+1061300368+1061111611+1061043911+1060964145+1060810445
2672+1060656611+1060575035+1060559886+1060599702+1060683356+1060754073
2663+1060800055+1060922854+1061140903+1061260552+1061142981+1060930161
2655+1060825124+1060824521+1060800390+1060698974+1060613913+1060727864
2646+1061098138+1061486309+1061582363+1061391194+1061183333+1061114359
2638+1061099546+1061028628+1060913671+1060819159+1060767546+1060764127
2629+1060851601+1061045586+1061243727+1061310154+1061252173+1061230388
2621+1061376648+1061640814+1061804501+1061661258+1061240577+1060807429
2612+1060583615+1060556133+1060615186+1060728735+1060906633+1061146668
2604+1061476925+1061887015+1062222032+1062323716+1062226724+1062050300
2595+1061815829+1061497637+1061123207+1060759770+1060543196+1060652857
2587+1061070790+1061490867+1061656499+1061671178+1061822130+1062166263
2578+1062382971+1062065248+1061193187+1060275277+1059945153+1060399886
2570+1061276170+1062059618+1062551417+1062874972+1063088261+1063017478
2561+1062571661+1062002374+1061646779+1061573582+1061662665+1061850819
2553+1062075437+1062137104+1061917112+1061664944+1061795452+1062357700
2544+1062894075+1062925915+1062495648+1062099568+1062083950+1062269891
2536+1062270762+1062043128+1061944393+1062264596+1062871754+1063397672
2527+1063631741+1063589378+1063341568+1063014260+1062793865+1062678104
2519+1062407303+1061860203+1061283007+1060999604+1061128302+1061570767
2510+1062031264+1062156007+1061858930+1061374436+1060945913+1060679401
2502+1060663448+1060918430+1061200359+1061135072+1060659761+1060191757
2493+1060253023+1060992432+1062099232+1063046301+1063404912+1063143628
2485+1062681791+1062481036+1062568845+1062598003+1062313394+1061836743
2476+1061521902+1061601869+1061942181+1062156007+1061993258+1061572175
2468+1061180786+1060922050+1060676184+1060400891+1060288213+1060524293
2459+1060989750+1061354729+1061467608+1061521835+1061741694+1062014707
2451+1062060556+1061889629+1061774002+1061783722+1061685992+1061298558
2442+1060701454+1060151405+1059916800+1060070030+1060387016+1060605400
2434+1060722770+1060904957+1061244465+1061726947+1062247503+1062558322
2425+1062416754+1061899282+1061422564+1061357544+1061704894+1062167134
2417+1062427479+1062315606+1061865700+1061362237+1061204984+1061540269
2408+1062077314+1062408844+1062441756+1062385384+1062396042+1062382368
2400+1062143539+1061654019+1061157661+1060934249+1061020718+1061256999
2391+1061497503+1061644433+1061634446+1061554613+1061631832+1061933534
2383+1062218144+1062231014+1062039844+1061904510+1061862214+1061641551
2374+1061028226+1060154153+1059425000+1059287588+1059893004+1060817148
2366+1061491538+1062083145+1063135250+1064050076+1063157235+1060005212
2357+1056554101+1055139699+1056013973+1057682888+1058946271+1059737963
2349+1060362818+1060869163+1061130782+1061280661+1061838083+1062971629
2340+1063997726+1064023934+1062876379+1061354595+1060585157+1060988544
2332+1061770048+1061695979+1060599970+1059508586+1059131542+1059150244
2323+1059062769+1058962827+1059144211+1059539018+1060007961+1060537498
2315+1060883642+1060693276+1060181569+1060042615+1060466983+1060902410
2306+1060923793+1060717340+1060579861+1060447544+1060118493+1059655248
2298+1059351669+1059374727+1059614695+1059907818+1060232645+1060558077
2289+1060689858+1060505123+1060198393+1060089603+1060301418+1060764328
2281+1061341524+1061833659+1062056065+1062058076+1062154264+1062608527
2272+1063225539+1063381987+1062773823+1062093937+1062383105+1063632010
2264+1064778157+1065181142+1065178863+1065028112+1064368000+1063138668
2255+1062147427+1062153594+1062884155+1063496072+1063744419+1064148677
2247+1065053450+1066082496+1066675377+1066637974+1065958892+1064667758
2238+1063152878+1062139383+1062080933+1062791854+1063640790+1063933176
2230+1063361677+1062354282+1061742565+1061963698+1062842931+1064003088
2221+1064972410+1065117463+1064226164+1063094629+1062873765+1063836585
2213+1065117396+1065506975+1064503535+1062896622+1062126715+1062746274
2204+1063921512+1064732845+1065265466+1065993279+1066872579+1067568016
2196+1067958266+1068060621+1067899614+1067571167+1067014616+1065878724
2187+1064206591+1063104550+1063922049+1066604191+1069363082+1070280992
2179+1069057559+1066987134+1065493837+1065009210+1065171691+1065655045
2170+1066430516+1067352314+1067754896+1066869295+1064996943+1063844026
2162+1064860805+1067457015+1069562765+1069903144+1068889917+1067490664
2153+1066468053+1066419724+1067440123+1068754650+1069374410+1069115674
2145+1068387325+1067302912+1065842059+1064448235+1063651314+1063579391
2136+1064190370+1065205742+1065830395+1065512472+1064724466+1064262428
2128+1064269935+1064405202+1064429265+1064309617+1064065694+1063679735
2119+1063137462+1062571862+1062166195+1061811271+1061191444+1060341636
2111+1059726501+1059651226+1059903059+1060069963+1060076264+1060326622
2102+1061188830+1062319895+1062832542+1062356360+1061642020+1061733717
2094+1062648946+1063345121+1063002798+1061879441+1060810847+1060331917
2085+1060430719+1060727730+1060735371+1060295788+1059785555+1059625487
2077+1059802983+1060125397+1060536761+1060969105+1061359555+1061916844
2068+1062748486+1063237537+1062602695+1061145662+1060046905+1059926519
2060+1060522685+1061597378+1063023242+1064041027+1063670954+1062080531
2051+1060467251+1059466492+1058599457+1057500767+1056842398+1057477307
2043+1059225719+1060866817+1061284281+1060648835+1060213408+1060812121
2034+1061907727+1062389674+1062056199+1061906052+1062869073+1064468947
2026+1065343154+1065191465+1065130802+1065683130+1065857274+1064921937
2017+1063552713+1062476009+1061587927+1061047731+1061561986+1062991872
2009+1064028828+1063860649+1063195778+1063104148+1063616459+1063948794
2000+1063616660+1062917536+1062350461+1061912017+1061358081+1060911995
1992+1061099747+1061865700+1062434718+1062042860+1060535890+1058658444
1983+1057784908+1058922006+1061832788+1065036022+1066587500+1065734878
1975+1064179779+1064394544+1066568531+1068540020+1068445574+1066305438
1966+1063545273+1061836139+1061920999+1063117285+1064244061+1064895460
1958+1065226052+1065002373+1063925668+1062552624+1061969596+1062461798
1949+1063006552+1062423926+1060837458+1059537275+1059444439+1060145707
1941+1060623364+1060578387+1060459877+1060617264+1060931635+1061134871
1932+1061199420+1061341189+1061746922+1062291475+1062554032+1062272907
1924+1061742833+1061536314+1061798334+1062073024+1061768238+1060803005
1915+1059823427+1059500074+1059809686+1060161191+1060067081+1059568042
1907+1058982936+1058506956+1058214436+1058271881+1058871935+1059881475
1898+1060812322+1061294871+1061375240+1061303786+1061228176+1061108930
1890+1060773913+1060146646+1059445578+1058986355+1058928910+1059260709
1881+1059840184+1060484276+1061042101+1061339714+1061223685+1060846306
1873+1060633687+1060788995+1061108528+1061357008+1061526594+1061626737
1864+1061606293+1061475584+1061232399+1060826532+1060346127+1060035376
1856+1059961978+1059884692+1059623007+1059343156+1059273512+1059356294
1847+1059431636+1059599814+1060084241+1060715396+1061046324+1060980232
1839+1060768886+1060615857+1060415839+1059985640+1059460794+1059164856
1830+1059183155+1059316679+1059465687+1059672676+1059876582+1060005481
1822+1060154622+1060418453+1060684965+1060712112+1060393048+1059870281
1813+1059348787+1058929312+1058663270+1058621778+1058784125+1058969665
1805+1058996611+1058867108+1058738143+1058714012+1058749806+1058797933
1796+1058862148+1058881855+1058763815+1058581292+1058511648+1058524250
1788+1058485908+1058386771+1058319607+1058362707+1058470156+1058440395
1779+1058121466+1057700316+1057533210+1057698707+1057892156+1057783098
1771+1057487964+1057293577+1057168566+1057012654+1056950048+1057141821
1762+1057431659+1057413226+1057047309+1056726905+1056658735+1056679179
1754+1056669594+1056745137+1056920488+1056903730+1056541499+1056064245
1745+1055652144+1055294874+1054991228+1054801599+1054700652+1054541590
1737+1054223934+1053787635+1053411127+1053247708+1053186643+1053055130
1728+1052759394+1052252914+1051568336+1050833485+1050205413+1049771795
1720+1049537458+1049432087+1049335027+1049276912+1049362912+1049492213
1711+1049520902+1049465937+1049432757+1049435103+1049344412+1049006312
1703+1048324482+1047290341+1046213637+1045564384+1045257855+1044976262
1694+1044665175+1044370511+1044091062+1043836415+1043594637+1043269944
1686+1042757163+1042079958+1041430370+1040911892+1040509041+1040204255
1677+1039925075+1039609564+1039345734+1039260874+1039373082+1039698714
1669+1040152173+1040437520+1040422908+1040231671+1040004640+1039773855
1660+1039552857+1039439509+1039496150+1039700189+1040092382+1040711941
1652+1041113720+1041098571+1041070485+1041437073+1042130633+1042547225
1643+1042546823+1042429990+1042376902+1042406395+1042583757+1043077433
1635+1043754906+1044173442+1044287460+1044326003+1044475078+1044768602
1626+1045088805+1045318651+1045425832+1045432535+1045412091+1045483612
1618+1045747108+1046143725+1046468418+1046669174+1046792308+1046817243
1609+1046755978+1046727959+1046815567+1046973490+1047150517+1047360187
1601+1047602568+1047839184+1048075599+1048377704+1048771773+1049187226
1592+1049537123+1049807120+1050035291+1050246570+1050430500+1050567778
1584+1050653174+1050693258+1050706597+1050735420+1050852186+1051131166
1575+1051499228+1051756825+1051882573+1052020655+1052277313+1052534977
1567+1052630964+1052611391+1052577876+1052535915+1052454474+1052430946
1558+1052717567+1053215131+1053620931+1053837640+1053842332+1053711154
1550+1053590098+1053559666+1053597873+1053665439+1053738636+1053753651
1541+1053677572+1053709143+1053947904+1054132706+1054166623+1054193301
1533+1054333863+1054489641+1054591929+1054720694+1054831093+1054705947
1524+1054326021+1053975588+1053884092+1053938587+1053911708+1053775034
1516+1053595527+1053387600+1053110497+1052703289+1052081719+1051179830
1507+1050206486+1049687941+1049479276+1049122877+1048523561+1047707537
1499+1046637334+1045259531+1043769787+1042478050+1041335321+1040037350
1490+1038444984+1036870179+1035677713+1034785744+1033968781+1033072522
1482+1031999705+1030770440+1029479106+1028160557+1026807353+1025393622
1473+1023764723+1021801814+1019745197+1017838392+1016043795+1014204289
1465+1012275967+1010498530+1009115632+1008071974+1007104461+1005874995
1456+1004363333+1003043711+1002103011+1001384650+1000686196+999889342+999023850
1446+998181013+997374775+996554193+995696208+994829174+993992370+993240963
1436+992669464+992258100+991866980+991527204+991397434+991442478+991423107
1426+991289248+991173084+991054441+990790812+990441384+990283059+990420269
1417+990567803+990506604+990279238+989996036+989746885+989617450+989694468
1407+990008168+990440446+990759643+990907846+991147211+991799682+992875917
1397+994049949+995071286+995931886+996717143+997533838+998479699+999540719
1387+1000526061+1001231553+1001617914+1001690508+1001402815+1000783457
1378+1000085807+999746836+1000131388+1001162378+1002266564+1003015022
1370+1003479876+1003836945+1004102184+1004323919+1004685077+1005217564
1361+1005614248+1005660365+1005559083+1005594407+1005823985+1006149014
1353+1006518484+1006963765+1007505502+1008126938+1008785710+1009384825
1344+1009817705+1010115788+1010483716+1011089869+1011826061+1012423031
1336+1012802622+1013082875+1013360782+1013669455+1014052197+1014544064
1327+1015107385+1015658506+1016118802+1016422381+1016586337+1016781193
1319+1017178481+1017701382+1018111741+1018330460+1018472966+1018628140
1310+1018791895+1018988360+1019308161+1019809010+1020436746+1021038677
1302+1021475847+1021769439+1022070203+1022436120+1022732929+1022848422
1293+1022890115+1023056483+1023386137+1023749239+1024034721+1024227030
1285+1024335820+1024401040+1024520756+1024711389+1024818906+1024742156
1276+1024603002+1024529403+1024481610+1024455334+1024606554+1024971533
1268+1025307689+1025394091+1025309834+1025296227+1025491687+1025926243
1259+1026612363+1027472426+1028275245+1028832399+1029209913+1029621344
1251+1030167304+1030779489+1031339928+1031773948+1032086576+1032350541
1242+1032638435+1032992689+1033444941+1033951085+1034338720+1034463396
1234+1034414196+1034452805+1034736008+1035158498+1035479237+1035591110
1225+1035617453+1035700168+1035771421+1035658074+1035353087+1035032012
1217+1034792849+1034502073+1033966167+1033177424+1032282840+1031328131
1208+1030167035+1028685134+1027007103+1025389399+1023945235+1022542899
1200+1020951739+1019073287+1017027060+1015013409+1013120948+1011326888
1191+1009609309+1007944952+1006253514+1004469441+1002612775+1000723331
1183+998810493+996905498+995060964+993276623+991488662+989615372+987609497
1173+985534647+983548546+981716814+979913705+977996577+975997472+974060034
1163+972244725+970465545+968643399+966861606+965253219+963742494+962097777
1153+960280658+958527821+957037474+955766919+954558232+953290894+951897875
1143+950375488+948782316+947181638+945616485+944120843+942668167+941155029
1133+939551670+938000459+936622321+935304509+933834673+932181242+930495502
1123+928893081+927372838+925923514+924573528+923311887+922058291+920768699
1113+919497071+918283759+917060125+915757395+914422357+913141680+911968050
1103+910992494+910328963+909956544+909756794+909775294+910266759+911379526
1094+912891926+914361627+915559924+916701782+918147286+919950529+921863836
1084+923673917+925311194+926746375+928010764+929213149+930402397+931553907
1074+932711182+933939039+935172527+936310765+937381369+938491120+939702688
1064+940998581+942259283+943283905+943936845+944276688+944527179+944923997
1054+945553879+946349191+947237876+948184140+949058749+949641508+949816859
1044+949697277+949571060+949737160+950262609+950903283+951376984+951644434
1034+951836945+952059954+952340944+952614427+952742588+952695533+952651762
1024+952757536+952884893+952773087+952293889+951493348+950572355+949951790
1014+950110987+951149350+952626425+953975942+954965038+955686483+956301886
1004+956913402+957545898+958141527+958609330+958885226+958925176+958749088
994+958547595+958602627+959012315+959624166+960268995+960895123+961451406
984+961831064+962006951+962092616+962211929+962397871+962653322+963020379
975+963504806+963969458+964222430+964237377+964209828+964373985+964814171
965+965447405+966102624+966614197+966910269+967061891+967236639+967566695
955+968026991+968438824+968629457+968621078+968626843+968826794+969163486
945+969416994+969499843+969604946+969968115+970516220+970924769+971047098
935+971061242+971126127+971178477+971188398+971321050+971701781+972250557
925+972818972+973280943+973507907+973487195+973430823+973553756+973780183
915+973872082+973819999+973877109+974180018+974547879+974737708+974738177
905+974742132+974920834+975237149+975452986+975410020+975267179+975304113
895+975574110+975949880+976375387+976841113+977223050+977321986+977012911
885+976312580+975305252+973913841+971798774+968761842+965295649+962459404
875+961118132+961399122+962787651+964552754+966159331+967437796+968409196
866+969049736+969375368+969653744+970229197+971093818+971856286+972189962
856+972110464+971795758+971387611+971035033+970878250+970892460+970912971
846+970819866+970583719+970184622+969584703+968790598+967987041+967544106
836+967681719+968164268+968551300+968666659+968669474+968868285+969554942
826+970737889+971944967+972542808+972370474+971912926+971763851+972021850
816+972306929+972214830+971620876+970785078+970293345+970551813+971259919
806+971760031+971767538+971392907+970844869+970467690+970570649+971020689
796+971437214+971700307+971901799+972086668+972312157+972696508+973319821
786+974168690+975048527+975593414+975576657+975155105+974741663+974748299
776+975285746+975935134+976096073+975690541+975175080+974882359+974747495
766+974602978+974387476+974156960+974087248+974314949+974664109+974738446
756+974414891+974066737+974188732+974939402+976092252+977237528+977974658
747+978137877+977951131+977849848+978083783+978567741+979117924+979662610
737+980093547+980103869+979497582+978613790+978147395+978469273+979236098
727+979724747+979590620+979224770+979184283+979415135+979398847+978978367
717+978506944+978228904+977969698+977390692+976386313+975236077+974266688
707+973364262+972125613+970551478+969207190+968604723+968732818+969215032
697+969721645+970180601+970674612+971199190+971550897+971447335+970810348
687+969931651+969185606+968569599+967790576+966785593+965856757+965326616
677+965362880+966056708+967270623+968420323+968877871+968685897+968927205
667+970368754+971799913+972665540+973600409+974930219+976109077+976474860
657+976046404+975171393+974021291+972579205+970474192+966894852+961442692
647+954983605+948888358+943693593+939151500+935140754+931806276+928915201
637+925844083+922477363+919472471+917261416+915318951+912770869+909384442
628+905789551+902792837+900387998+897574879+893543154+888832078+884960017
618+883182044+883872990+886759909+891122496+895741539+899471831+902299965
608+905366725+909638285+914755295+919320849+922301744+923950885+925159103
598+926291174+927255737+928327950+930051495+932353040+934278278+934887113
588+934270905+933383091+932918908+932825401+933113228+934218890+936034065
578+937614835+938266569+938109450+937688501+937663432+938363762+939312975
568+939970608+940697013+941826604+942596646+942278454+941455592+941199671
558+941813332+942939572+944117424+944886326+944887868+944176478+943361928
548+943141466+943471790+943594791+943098232+942363381+941866889+941774857
538+942157397+942912894+943559935+943584669+942831586+941382328+939481087
528+937889323+937929072+940283236+943620262+945791501+946320703+946482849
518+947284060+948155183+947892894+946207423+943928131+942218328+941628664
509+941867827+942661061+944223064+946423863+948130784+947926275+945622384
499+942872810+941952218+943565029+945802226+946274721+945118049+944320660
489+944604130+945014086+944963411+944899196+945154380+945405609+945492346
479+945866038+946888582+948064491+948277647+946839382+944436555+942603215
469+941971523+941900806+941740671+941812997+942731242+944090344+944693079
459+944152950+943572336+943845349+944273470+944021571+943129736+941838200
449+940323186+939231266+939451728+941241967+944033503+946397989+946611413
439+944793222+943327475+943988458+945770185+946861636+946986781+946356564
429+944867826+943201056+942790497+944348477+947053610+949185502+949295231
419+947137599+944820302+944637042+945919461+946973778+947360876+948326512
409+950879219+953798178+955160699+954982332+954753625+955609130+957929310
399+960776078+960319402+953121308+942680500+934790120+931784089+933275709
390+937580248+942644639+947107704+951024071+954998486+958134221+959478174
380+960470957+963044577+965364153+960868110+948212293
##END=
