##TITLE=X8881
##JCAMP-DX=5.0
##DATA TYPE=LINK
##BLOCKS=1


$$ === CHEMSPECTRA SPECTRUM ORIG ===
##TITLE=X8881
##JCAMP-DX=5.00
##DATA TYPE=INFRARED SPECTRUM
##DATA CLASS=XYDATA
##ORIGIN=ComPlat
##OWNER=
##XUNITS=1/CM
##YUNITS=TRANSMITTANCE
##XFACTOR=1
##YFACTOR=8.7595031e-010
##FIRSTX=3997.453
##LASTX=373.96442
##MAXX=3997.453
##MAXY=0.9405444827168151
##MINX=373.96442
##MINY=0.37224271726550134
##NPOINTS=2559
##XYDATA= (X++(Y..Y))
2559A072676159A072677180A072251622A071839129A071767001A072030814A072409080
2552A072704058A072864850A072934461A072896900A072604643A071984339A071284217
2545A070922758A071016865A071199840A071043811A070624378A070483591A071017001
2538A072061503A073095049A073684801A073741823A073523737A073332732A073191810
2531A072994749A072820212A072738761A072529861A072003324A071413912A071233863
2524A071582731A072087224A072323343A072225629A072046124A071993593A072058985
2517A072216851A072474812A072666973A072446709A071661802A070720662A070304087
2510A070616620A071271560A071761557A071830215A071501555A070927045A070376623
2503A070237810A070744342A071702494A072661053A073256045A073330963A072900438
2496A072044083A070838041A069452018A068241350A067492303A067177183A067251081
2489A067781225A068577631A069191880A069328652A069148263A069282925A070089743
2482A070982230A071080352A070127712A068884653A068190179A068183034A068968416
2475A070470050A071811435A071995226A070813136A069102332A067977264A067913641
2468A068458279A068602264A067888192A066975972A067092058A068434055A069875263
2461A070446438A070076406A069249719A068514145A068344439A068833007A069501079
2454A069973044A070177317A070111653A069594370A068349882A066534627A064916229
2447A064361997A065115875A066450931A067504415A068137852A068751420A069580353
2440A070259993A070278093A069681673A068942628A068197528A067262989A066376830
2433A065966854A065939432A066314364A067351924A068745500A069903570A070580080
2426A070736381A070499854A070264824A070141049A069678611A068807830A068389417
2419A068854167A069553815A070123902A070618866A070912007A070948547A071106277
2412A071697050A072413435A072711067A072463857A071887306A071114307A070304223
2405A069894928A070178542A070775847A071121179A071055243A070775439A070558237
2398A070467464A070317628A070156359A070340423A070821506A071002916A070633768
2391A070331917A070779114A071506182A071439225A070132067A068078584A066591173
2384A066447121A066569671A066062050A065501422A065994957A067150849A067511287
2377A066750741A065527755A064762854A064952769A065813411A067048985A068530544
2370A069694329A069880230A069013056A067798304A067141935A067371930A068299665
2363A069508088A070410306A070608251A070168267A069345867A068320691A067430653
2356A067279047A068034354A069285375A070488558A071058235A070602263A069489580
2349A068665887A068528026A068882408A069524147A069991076A069371316A067133362
2342A064240399A062783813A063413236A064990058A066690656A068121589A068838246
2335A068583347A067426979A065502170A063446782A062708963A063182288A063177321
2328A062279594A062034426A063378600A065084846A065956715A065954062A065667521
2321A065448550A065146904A064606485A063990059A063374109A062439570A061017823
2314A059629827A059320287A060174465A061008229A061213931A060910243A060451275
2307A060164394A060014762A059665347A058981964A058210598A057553753A056724548
2300A055244350A053594854A053451823A054822807A056013130A056292730A055808109
2293A054738431A053347372A052297564A051816344A051368468A050694543A050082676
2286A049587644A048910385A048178213A047843429A047772661A047431548A046696723
2279A045894328A045275997A044809748A044508237A044495308A044673384A044640722
2272A043937946A042261164A039906511A038072816A037447680A037309071A036970135
2265A036374938A035543081A034401409A033192579A032430875A032226194A031995723
2258A031019676A029139778A027042609A025941154A026157879A026605620A026534036
2251A026255661A026346570A026804041A027079082A026741915A025800843A024551729
2244A023343033A022327043A021448029A020755800A020521655A020796287A021133113
2237A021066428A020585481A020080240A019917749A020004711A019849771A019187959
2230A018290777A017573031A017134340A016780707A016344534A015806428A015169180
2223A014359369A013251653A011841406A010440617A009517101A009172994A008979608
2216A008485801A007682385A006886523A006379106A006209060A006101888A005596377
2209A004607673A003625501A002997371A002554666A002174835A002066030A002146392
2202A001786158A000629585I99169597I98141767I97707023I97509350I97234650
2195I96909255I96766768I96793169I96552968I95766020I94801404I94182596I93874758
2187I93534665I93117681I92815831I92711857I92727848I92681713I92378025I91884829
2179I91546166I91476827I91323997I90820799I90276025I90078080I90011532I89636328
2171I89065833I88727305I88602373I88451788I88429741I88787049I89372855I89879319
2163I90186545I90298616I90316921I90431237I90632721I90654563I90421371I90253298
2155I90404768I90659190I90617274I90267928I89983769I89955870I90009218I90020241
2147I90116050I90413750I90903747I91608020I92570390I93600534I94240775I94160754
2139I93599241I93176133I93176405I93341960I93467640I93749076I94328144I94919667
2131I95180554I95136189I94984787I94770919I94545756I94580391I95078214I95832500
2123I96457364I96795823I96920619I97000028I97295823I98020509I99045005I99940146
2115A000361279A000300448A000037452I99947563A000247169A000817935A001389248
2108A001942867A002714710A003701304A004499616A004819226A004809700A004725460
2101A004678644A004826644A005380672A006268668A007066231A007364136A007161836
2094A006896389A007035339A007603452A008240564A008726274A009189869A009761725
2087A010285405A010503900A010392441A010213209A010289012A010743148A011442114
2080A012201980A013024380A014008661A015058810A015867670A016208646A016109844
2073A015767166A015387471A015048672A014731238A014520773A014583647A014885362
2066A015197624A015426801A015677550A016042955A016539757A017142642A017763082
2059A018301460A018723071A019031454A019250833A019429521A019585550A019713136
2052A019869164A020126037A020483073A020927887A021458576A021982391A022344667
2045A022482051A022440339A022338541A022382432A022758589A023402641A023989807
2038A024271993A024357867A024537643A024881546A025171489A025204695A024988854
2031A024672442A024472183A024613378A025131138A025756205A026214017A026578946
2024A027098407A027717214A028102965A028141207A028065472A028050638A028051251
2017A028094255A028361879A028852421A029251100A029300296A029118479A029005727
2010A029054856A029144405A029257429A029544309A030049004A030617458A031129025
2003A031628345A032175772A032737693A033230344A033544783A033558461A033297233
1996A033074315A033243069A033760624A034212176A034358474A034424410A034732521
1989A035248307A035652022A035755180A035662433A035527839A035355683A035152159
1982A035071320A035256949A035693326A036283282A036853845A037107043A036880791
1975A036434140A036147803A036023892A035795327A035405765A035062338A034944619
1968A035108814A035539951A036099763A036565127A036887868A037267087A037795462
1961A038183118A038105954A037747694A037651205A037998917A038407805A038476463
1954A038181417A037744768A037460609A037552811A037895285A038062609A037880586
1947A037628886A037558458A037600239A037628886A037664406A037769604A037961017
1940A038177266A038246264A038028586A037674000A037530560A037692032A037853437
1933A037708295A037245583A036554376A035684820A034883242A034606909A035017428
1926A035700199A036086154A035985446A035578329A035083092A034615755A034271103
1919A034153928A034265659A034428901A034411754A034149914A033822681A033638142
1912A033575268A033453262A033246879A033117184A033095274A032948567A032412979
1905A031432373A030182237A028987695A028212655A028068874A028442990A028977080
1898A029362491A029495997A029425501A029308735A029303836A029313430A029037029
1891A028432511A027836294A027548597A027613104A027974019A028508450A029019813
1884A029437409A029841737A030191356A030271513A029929856A029211294A028392976
1877A027951904A028206735A028923937A029582687A030039478A030608476A031458571
1870A032287435A032722315A032705372A032318056A031562748A030535871A029565880
1863A028998651A028987491A029450746A030064655A030371064A030094867A029342009
1856A028405088A027452585A026427885A025172918A023654546A022100042A020812550
1849A019825683A018887061A017774650A016424896A014808334A012951435A011021864
1842A009142510A007213891A005056774A002545072I99565215I96078622I92220635
1835I88176816I84102648I80195192I76514941I72719080I68363135I63477316I58503382
1827I53720859I49071909I44490189I40095389I36061845I32502714I29462910I26869961
1819I24538988I22363363I20441617I18939508I17893714I17200804I16688829I16142830
1811I15329140I14077779I12361055I10246263I07768107I04975715I02131474H99645424
1803H97703877H96114329H94573775H92929927H91155021H89270498H87410741H85852290
1795H84811327H84191839H83646181H82902306H81967630H81055954H80418298H80155505
1787H80104199H79952117H79458173H78500906H77049151H75245532H73414082H71798269
1779H70289560H68523911H66295210H63797389H61395784H59235742H57157082H54915657
1771H52406812H49726969H47064817H44549985H42224387H40118577H38305840H36945674
1763H36285631H36495416H37486502H39025151H41036445H43689071H47154910H51386535
1755H56165452H61296370H66678716H72253835H77996211H83923603H90049145H96324454
1747I02588332I08572747I14104181I19271571I24193180I28756188I32867576I36739240
1739I40591375I44295374I47555987I50267744I52570819I54706977I56818095I58802103
1731I60473033I61859056I63168051I64510660I65859666I67200370I68552846I69918183
1723I71319652I72827205I74465405I76144160I77718329I79076655I80178793I81087747
1715I81978534I83010038I84157697I85280383I86345434I87418446I88459477I89349311
1707I90117138I90917696I91783305I92596179I93305487I94035277I94965529I96149321
1699I97429669I98572768I99490841A000252204A000894896A001384484A001741996
1692A002057388A002379448A002707156A003080115A003585490A004234714A004870329
1685A005269689A005354066A005238048A005084945A004986211A004949126A004932455
1678A004948445A005106924A005453889A005817797A005981786A005964368A005976412
1671A006138633A006392851A006674288A007036564A007548130A008129513A008580248
1664A008774587A008784930A008791938A008921633A009221511A009734507A010465522
1657A011272340A011939256A012384615A012664078A012792753A012748659A012658975
1650A012776626A013198033A013725047A014064391A014104197A013962730A013843242
1643A013906797A014215112A014711777A015282272A015852223A016375903A016764443
1636A016959258A017049215A017181564A017382094A017585687A017799283A018117260
1629A018596982A019179589A019718443A020092967A020330582A020587795A020946056
1622A021279752A021423668A021428295A021526281A021842353A022236610A022472252
1615A022498382A022538393A022863787A023453607A023952314A024042066A023774579
1608A023438297A023207078A023058262A022952247A022933534A023045537A023256819
1601A023538528A023939113A024462521A024925844A025108002A025014916A024823027
1594A024658219A024624946A024896244A025495250A026121203A026435438A026399578
1587A026164887A025824047A025480280A025350993A025547169A025845345A025883519
1580A025550095A025066290A024743822A024727014A024916454A025121747A025288732
1573A025492528A025707825A025760697A025545536A025138827A024707757A024429041
1566A024406519A024559826A024707757A024802069A024945781A025215991A025613446
1559A026082825A026466671A026599156A026532403A026493685A026568127A026604939
1552A026462248A026199795A026021175A026121951A026570644A027240622A027839152
1545A028060369A027828673A027384742A027014983A026701020A026280089A025895903
1538A025892773A026228783A026454899A026366643A026223952A026264847A026435301
1531A026636377A026869637A027089697A027144406A026890595A026360111A025852014
1524A025703402A025865759A025959662A025817106A025625490A025514711A025418563
1517A025348067A025427545A025652708A025876306A025982117A025977830A026016889
1510A026285737A026696869A026874809A026661621A026420195A026575134A027028048
1503A027255320A026957348A026492324A026515323A027159648A027835410A027976468
1496A027648692A027232525A026941561A026858545A027020154A027287846A027464220
1489A027599563A027901073A028347045A028639438A028541316A028107933A027561048
1482A027040772A026554313A026169787A026125830A026589017A027267024A027499604
1475A026941289A026021175A025492665A025659172A026221366A026698638A026813567
1468A026639234A026499060A026570031A026602490A026244842A025591195A025136718
1461A025184622A025567038A026001442A026422713A026822277A027057375A027034104
1454A026855960A026652299A026444284A026202449A025889235A025498721A025144815
1447A025014984A025189929A025523966A025668699A025336568A024678362A024199796
1440A024177341A024421081A024640188A024712317A024581124A024218985A023778117
1433A023584731A023859636A024453471A024982594A025262874A025429178A025568195
1426A025528048A025255253A025040909A025193400A025621067A025968576A026101129
1419A026218304A026495522A026824455A026902231A026418290A025352695A024325681
1412A024240284A025176524A026215922A026773829A027317174A028386376A029806761
1405A031143791A032153453A032712448A032855957A032697274A032103576A030882632
1398A029390866A028369841A028059756A027985859A027561526A026729055A026115827
1391A026259199A026847454A027257293A027246542A026883110A026309009A025604668
1384A024715923A023669788A022805200A022450001A022547171A022908970A023487834
1377A024237358A025045060A025794923A026226878A026030974A025329287A024604940
1370A024032336A023407676A022809827A022716604A023311460A024137398A024621544
1363A024704832A024764984A025010425A025182715A024965242A024503961A024249402
1356A024311800A024315066A024018863A023718441A023773558A024085820A024331941
1349A024416046A024512126A024882295A025602354A026285329A026392977A025991712
1342A025714698A025859567A026060438A025993753A025950272A026408900A027242119
1335A027802680A027901890A028092010A028729258A029469051A029944758A030237014
1328A030475106A030556693A030337314A029750964A028836158A027740486A026613309
1321A025584594A024925436A025041590A026214425A028317105A030745384A032736605
1314A033885624A034224900A033888482A033048186A032175908A032005658A033022873
1307A034932915A036686997A037231159A036262730A034267156A032117865A030683802
1300A030417335A031074929A031908421A032350445A032642089A033531310A035135488
1293A036645081A037496605A037933118A038004158A037230955A035819891A034970000
1286A035482725A036935568A038372897A039073088A038709111A037440807A035937678
1279A034999600A035028248A035815740A036742114A037214011A037023483A036347722
1272A035564039A035131949A035357248A036005792A036411276A036332547A036495585
1265A037767357A039788316A040842070A039539201A036929648A035801791A036817645
1258A037459724A035647395A032416041A030278930A030164001A030891546A031027705
1251A030393724A029979529A030666587A031946730A032222315A030683326A028279068
1244A026429041A025508519A025034717A024623041A024230689A023894748A023664617
1237A023688773A024101538A024727287A025104056A025046421A024947278A025169584
1230A025375898A024898966A023655567A022321803A021635086A021736134A022223001
1223A022693129A023047647A023373450A023833370A024503076A025007975A024710071
1216A023629642A022659038A022529139A023172579A024222796A025412573A026398761
1209A026853646A026820984A026547781A026099088A025602762A025570237A026336907
1202A027426455A028124944A028405769A028635219A028661484A027871678A026111948
1195A024259813A023672645A024749674A026288527A026865486A026577789A026623380
1188A027518385A028686865A029522398A029875351A029720684A029306626A029546555
1181A031256407A033969729A036389297A037871469A038570026A038423115A037177403
1174A035309821A033991095A034113101A035561862A037150116A037650865A037335541
1167A037538249A038258513A037730070A035026478A031599017A029524780A029209456
1160A029388825A029090036A028775529A029367731A031051725A033283284A035142360
1153A035424478A033467892A030268043A027854735A027428632A028672440A030640729
1146A032558053A033868409A034344115A034096090A033005929A030828331A028375965
1139A027304925A028103374A029598746A030870860A032026956A032834795A032366572
1132A030446663A028023760A026039616A024852627A024295128A023884813A023335140
1125A022751920A022237563A021693129A021010291A020190680A019395362A018879304
1118A018733822A018820376A018961503A018973003A018620730A017771248A016551869
1111A015261655A014168433A013373659A012843923A012537649A012343175A011980287
1104A011316093A010691298A010507370A010651831A010760840A010708445A010452319
1097A009878152A009211644A009117605A009884820A010816230A010961235A010182792
1090A009290713A009065482A009523634A010337120A011308268A012241378A012854674
1083A013178842A013597801A014154687A014345828A013932586A013418025A013403055
1076A013997774A014975522A016009137A016748385A016984708A016773222A016408361
1069A016271317A016528938A016912715A016929659A016437552A015832830A015580040
1062A015738247A015990152A016064730A016050100A016218649A016629101A017060510
1055A017394070A017734435A018057040A018149786A017894002A017457013A017162715
1048A017182789A017383251A017492601A017389307A017180813A017001106A016834531
1041A016603992A016348548A016185239A016108755A016022542A015937552A015902237
1034A015836368A015583239A015137539A014662852A014290847A013995869A013640126
1027A013110458A012450823A011927756A011812418A011980423A012055886A011903396
1020A011713072A011611275A011433540A010977226A010289828A009672109A009392305
1013A009399042A009397137A009135161A008617673A008119647A007889584A007780710
1006A007463686A006900336A006323853A006037993A006290443A006923608A007400880
999A007439870A007138156A006651629A006016014A005306638A004741042A004360327
992A003816573A002759075A001254653I99811608I99056029I99030103I99139793
985I98907077I98172660I96938651I95316782I93650207I92407420I91556713
978I90595908I89270514I87677973I85764936I83252077I80132046I76916274
971I73962479I70963297I67516443I63640152I59645053I55765768I52241614
964I49482429I47802449I47622808I49538567I52799520I55879677I58675674
957I61479769I64102046I66393552I68479221I70311828I71588841I72175531
950I72510180I73705538I76253373I79233162I81834889I83826246I85159125
943I85898510I86351626I86959138I87779565I88430422I88653067I88612852
936I88684777I89136192I90196208I91637347I92790177I93343591I93368566
929I92972540I92150004I90948861I90025957I90283987I91207162I91874487
922I91996492I91641090I91144016I90838559I90493295I89678108I88701652
915I88486492I88976693I89129864I88433280I87291677I86569372I86400075
908I86070938I85072027I83367074I81286305I80075704I80559373I81190769
901I81232549I81347001I82383814I83840060I84790522I85180151I85156676
894I84681376I83913549I83694646I84682465I85928382I86514187I86470298
887I86135445I85806172I85529838I85266705I85247721I85632043I85981049
880I85812704I85311684I85317672I86093325I86803994I86844276I86122924
873I84593393I81919334I77301209I69327274I56222626I37338927I15181344
866H95341875H83859164H84318473H95903251I13553079I31388739I46245359
859I57765087I66623275I73437302I78615715I82492619I85322911I87154497
852I87951244I88018133I88335430I89677155I91173820I91860469I92000915
845I92523506I93773438I95077465I95956275I96352778I96110739I94981385
838I93335223I92992137I94298478I95799566I97237167I98504178I99215596
831I99314807I99139181I98853797I98259418I97050178I95141835I93405787
824I93962605I96570932I98598694I99257374I99142107I99116998I99375299
817I99395509I98911091I98171707I97575559I97222742I97083929I97220224
810I97385983I97312834I97410752I98143060I99038813I99162588I98094339
803I96020783I93478460I91620812I91496969I91607203I90148166I86257451
796I79279773I69288012I58612324I51627842I50091982I51911388I54830207
789I57780805I60332246I62226366I63255693I63324284I62475073I60775496
782I58150565I54337897I49057484I42234678I34035853I25210735I17750478
775I12949242I09595406I05962378I01264980H95894882H90789618H86060170
768H80916936H74246349H65578961H57459001H52557874H49928588H48580603
761H48792089H51299845H56309981H62807664H69460424H75898567H82214500
754H88217218H94027844I00671077I08737213I16546953I22482919I27005780
747I31066543I34870910I37924324I39871587I40859883I41211339I41071845
740I40422281I39448683I38683033I38273943I37756387I36785443I35322869
733I33380641I30881799I27704610I23744282I19166438I14673587I11004632
726I08483539I07412364I08071250I10245242I13377793I16738842I19356696
719I20467474I19652014I16676853I11873779I06181077I00151276H93717896
712H86777167H79231513H70621827H59880883H45526985H27100552H06582462
705G86143306G65666928G44590524G23694917G03418185F82559255F60367922
698F38561251F19255191F02470020E87300594E73741197E62863311E55748317
691E52969501E55134035E63000695E76825436E95638913F17048537F38536414
684F59251700F79694734F99845786G18910284G36626796G53357190G69404678
677G84780623G99220939H12451742H24546593H35821356H46412327H56160961
670H64868700H72477228H78813576H83253625H84963342H83379510H78305615
663H70072427H59982067H50318286H43521882H40868373H41582172H43407225
656H44232075H43187710H40435194H36416959H31570269H26520734H22275091
649H20069799H20818301H24561359H30467112H37385522H44444990H51228329
642H57590261H63502411H69022686H74194158H78929730H83055476H86396995
635H88820852H90323097H90996409H90801186H89543157H87163191H83823236
628H79659928H74655916H68780171H62182733H55329851H48918790H43492487
621H39152873H35739565H33180979H31597964H31181796H32042302H34094968
614H37063734H40610071H44488131H48632250H53126123H58054060H63367272
607H68913949H74549357H80150606H85573711H90664142H95278864H99226263
600I02219389I04015523I04708432I04826695I04914202I04971973I04697000
593I04508514I05917536I10329823I17564577I25923309I33589201I39611857
586I43675342I45396081I43842326I37008497I21199237H91591672H45395997
579G86622347G28240777F87554965F75797895F89160163G09257594G14118166
572F91222968F42616910E80386948E18571384D67950118D35386512D24958714
565D37904475D71582125E19594144E73728813F26374267F72070896G07945401
558G33407486G49449871G57779616G60063433G57546832G51078136G41344812
551G29108292G15297534G00915465F86827897F73596072F61466996F50474214
544F40537025F31538663F23441294F16342359F10269825F04924360E99832229
537E94792289E89972748E85561891E81487247E77456152E73169409E68578639
530E64078097E60450581E58451943E58231237E59126616E60118144E60435305
523E59744335E58057278E55678026E53071604E50620462E48434426E46173574
516E42915512E37433615E29006122E18310088E07763618E00848135E00504436
509E07554752E20343702E35887481E51540814E65777708E77826661E87260243
502E94155109E99114959F02744516F05262819F06675584F07071882F06688309
495F05811812F04700762F03625164F02920347F02887072F03681370F05370128
488F07990091F11510026F15869646F21059559F27027370F33518521F40111264
481F46418147F52213190F57386227F61863906F65623090F68706581F71163439
474F73044085F74481687F75673507F76770948F77894450F79248287F81106003
467F83631110F86687519F89762231F92025703F92500458F90261210F84540065
460F74816267F61308109F45778653F31408492F20968650F14859984F11251181
453F08144350F05134417F03382377F04311949F08475801F15435991F24320921
446F34318058F44833567F55422157F65641122F75056537F83438813F90834700
439F97387159G03188939G08353471G13113607G17754596G22452742G27283919
432G32415652G38074808G44247233G50702320G57404412G64504844G71829146
425G78807844G85038924G90567500G95560081G99967536H03526802H05913641
418H06838586H06042043H03285716G98472845G91752448G83405827G73678015
411G62843984G51368419G39826236G28671302G18171920G08485412F99604088
404F91265905F83078035F74694670F65770885F55893713F44753885F32328742
397F18805545F04448653E89621224E74802030E60498179E47209230E35442769
390E25581723E17712477E11726600E07606943E05490552E05440436E07271376
383E10657159E15372963E21372995E28656334E37169734E46871723E57756108
376E69732558E82537124E95762892F08951917F21745595F34001169F45666650
369F56528988F66202227F74398671F81216645F87248555F93382738G00323195
362G08267325G17062911G26492751G36236350G45663400G53929727G60493550
355G65621474G70253616G75239052G80810225G86816346G93115131G99516938
348H05592533H10778432H14659214H17189493H18736715H19782238H20425269
341H20299181H19093615H16935478H14073204H10488557H06140573H01297489
334G96258366G91048583G85762046G80885347G76891337G73690604G70701765
327G67304107G63104191G57872770G51375291G43276017G33083045G20162529
320G04068294F85106749F64561101F44403450F26845008F13853860F06671093
313F05603456F10120942F18913942F29877124F40504840F48944683F55121054
306F60904530F68964609F81217462F98017943G18222886G39670820G59918156
299G76980817G89621189G97289530G99949708G97533882G89409839G74879226
292G54456945G30374826G05640421F82733111F63180250F47820500F36911211
285F30139099F27022743F27325681F30773762F36497629F43193189F49866362
278F56128063F61861116F67011903F71720188F76225358F80510263F84379137
271F88014138F92131310F97439963G04190436G12297399G21663004G32253704
264G43896797G56116103G68363102G80367587G92003332H02952973H12832799
257H21501412H29041759H35650493H41593263H47060122H52117618H56902931
250H61651092H66363868H70682184H74296227H77310719H79959942H82120665
243H83424760H83715724H83047991H81088684H76634481H68500299H57763233
236H48569444H45367622H49179609H57096589H64977437H69827666H70080524
229H64897824H54235540H39970646H26074899H16334771H11642816H09967939
222H08973656H08223316H08795036H11470933H15779450H20333204H23526384
215H24001070H20588035H12323273G99242509G80705979G49675034F94692142
208F26820715E78079110E55314016E51167379E63015257E89450838F26078133
201F67254078G07940978G44342157G74157806G96592946H12541768H24217864
194H33915940H42683559H50044810H55267521H58618908H60837674H61940898
187H61480093H59908510H59004863H60338286H63552833H67081817H70235124
180H73425310H76684903H79246959H80557927H80847122H80722326H80571196
173H80270298H79478451H78155302H76558338H74986822H73828685H73512885
166H74109986H75164013H76053643H76366517H75805140H73969131H70564873
159H65604614H58936205H49773240H36995008H20023051G99892346G79381673
152G61378961G47335215G37384485G31277996G29045962G30912523G36385234
145G43492879G49436942G52378489G52593173G51659450G50872978G50631552
138G50706947G50570311G49019005G43236687G28813789G01784544F61678958
131F13668027E68403795E38585867E32943518E51598279E86610883F26857528
124F63492376F92775158G15021336G31771600G44390197G54219669G62399374
117G69224697G74389433G77956184G80519397G82453868G83670321G84287019
110G85000682G86485643G88587303G90482307G91791030G93047698G94927256
103G97181882G98718422G99212229G99769387H01268638H03136152H04437934
96H05286260H06171670H06730802H06365601H05427250H04927387H05378802
89H06464743H07776120H09495974H12241142H16112601H20157782H23242837
82H25323606H27442073H30583198H34517464H37884705H39768958H40576865
75H41193699H42178252H43660287H45194173H45813525H45165322H44417432
68H44790798H45798351H45945057H45184102H45765349H49704990H56204442
61H62626731H67295006H70508804H73374480H76934834H81876653H87775262
54H93254845H97364465I00051793I01623104I02728575I04605003I07984424
47I11659027I13287837I11913178I09369698I08113915I08612009I10454959
40I14071791I19521435I24774766I27005916I25853427I23679707I22144460
33I21128401I20797087I21380919I21799945I21592473I22561648I27183992
26I34653368I40322662I40284217I35386220I29816680I27344852I29950049
19I36993595I42325791I38243390I27826343I19433656I15256195I12407734
12I08756266I06570502I10643037I22354720I36103081I46156151I54047614
5I63805503I76967173I91130883I97492407I90046099
##END=


$$ === CHEMSPECTRA PEAK TABLE EDIT ===
##TITLE=X8881
##JCAMP-DX=5.00
##DATA TYPE=INFRAREDPEAKTABLE
##DATA CLASS=PEAKTABLE
##$CSTHRESHOLD=0.93
##MAXX=3997.453
##MAXY=0.9405444827168151
##MINX=373.96442
##MINY=0.37224271726550134
##$CSSOLVENTNAME=- - -
##$CSSOLVENTVALUE=0
##$CSSOLVENTX=0
##NPOINTS=31
##PEAKTABLE= (XY..XY)
388.12973892103173, 0.7941107122637556
464.62246109460466, 0.7403392761539717
553.8639702971068, 0.4668320398045906
569.4458211102419, 0.6575159406701812
582.1946081391711, 0.6386080364181482
609.1087140891318, 0.7651538824047444
634.6062881469898, 0.7524455760363575
662.9369259890536, 0.4827952364969375
685.6014362627047, 0.7079634641994279
705.4328827521499, 0.7405000305548628
774.8429454652069, 0.5492407661079003
815.9223703362, 0.5304785350202713
917.9126665676308, 0.44274070660073517
1011.4037714464421, 0.5285329801816868
1068.0650471305703, 0.5280991176133923
1094.9791530805314, 0.43841701587057513
1119.0601952462857, 0.48898282510183344
1174.3049390383107, 0.37224271726550134
1188.4702579593431, 0.5919653756225974
1212.5513001250974, 0.7923045132359393
1246.5480655355746, 0.7280739518725567
1291.8770860828772, 0.7183403946556877
1306.0424050039092, 0.7365589119985456
1351.3714255512118, 0.4843738058214953
1399.5335098827209, 0.7948481415436328
1451.945189890539, 0.7433144422578369
1494.4411466536353, 0.8322333661614144
1597.8479747771694, 0.7742167087021409
1735.2515683111806, 0.8300704924306704
2869.893613885848, 0.7325446577229956
3445.0055620797543, 0.8659665550960857
##END=


$$ === CHEMSPECTRA PEAK TABLE AUTO ===
##TITLE=X8881
##JCAMP-DX=5.00
##DATA TYPE=INFRAREDPEAKTABLE
##DATA CLASS=PEAKTABLE
##$CSTHRESHOLD=0.93
##MAXX=3997.453
##MAXY=0.9405444827168151
##MINX=373.96442
##MINY=0.37224271726550134
##NPOINTS=55
##PEAKTABLE= (XY..XY)
3480.41885938233, 0.8731181594272981
3466.2535404612977, 0.8695662588798256
3442.1724982955434, 0.8658153380421697
3426.590647482408, 0.8674126833616224
3418.0914561297886, 0.8671521512128197
3401.0930734245503, 0.8699729415859512
3385.511222611415, 0.8711726632773844
2869.893613885848, 0.7325446577229956
1735.2515683111806, 0.8300704924306704
1699.8382710086003, 0.8659757341793841
1684.2564201954651, 0.8672135439421966
1668.6745693823295, 0.8658650490982125
1653.0927185691944, 0.8584976167422682
1636.094335863956, 0.8616676301090402
1623.3455488350273, 0.8630280466367435
1617.6794212666146, 0.863084075046422
1597.8479747771694, 0.7742167087021409
1558.1850817982795, 0.8698117702327125
1541.1866990930412, 0.870174107078444
1522.7717844956996, 0.8733959767035679
1518.52218881939, 0.8735964861092785
1505.7734017904609, 0.8685020773596104
1494.4411466536353, 0.8322333661614144
1451.945189890539, 0.7433144422578369
1399.5335098827209, 0.7948481415436328
1351.3714255512118, 0.4843738058214953
1306.0424050039092, 0.7365589119985456
1291.8770860828772, 0.7183403946556877
1246.5480655355746, 0.7280739518725567
1212.5513001250974, 0.7923045132359393
1188.4702579593431, 0.5919653756225974
1174.3049390383107, 0.37224271726550134
1119.0601952462857, 0.48898282510183344
1094.9791530805314, 0.43841701587057513
1068.0650471305703, 0.5280991176133923
1011.4037714464421, 0.5285329801816868
917.9126665676308, 0.44274070660073517
815.9223703362, 0.5304785350202713
774.8429454652069, 0.5492407661079003
705.4328827521499, 0.7405000305548628
685.6014362627047, 0.7079634641994279
662.9369259890536, 0.4827952364969375
634.6062881469898, 0.7524455760363575
609.1087140891318, 0.7651538824047444
582.1946081391711, 0.6386080364181482
569.4458211102419, 0.6575159406701812
553.8639702971068, 0.4668320398045906
501.45229028928816, 0.70507639417014
470.2885886630179, 0.7396677113298039
464.62246109460466, 0.7403392761539717
433.4587594683344, 0.7954626653595637
417.87690865519926, 0.8065724938047469
413.6273129788897, 0.8072692124180166
402.29505784206367, 0.8123080105863041
388.12973892103173, 0.7941107122637556
##END=

##END=

