##TITLE=X8144
##JCAMP-DX=5.0
##DATA TYPE=LINK
##BLOCKS=1


$$ === CHEMSPECTRA SPECTRUM ORIG ===
##TITLE=X8144
##JCAMP-DX=5.00
##DATA TYPE=INFRARED SPECTRUM
##DATA CLASS=XYDATA
##ORIGIN=ComPlat
##OWNER=
##XUNITS=1/CM
##YUNITS=TRANSMITTANCE
##XFACTOR=1
##YFACTOR=8.1894647e-010
##FIRSTX=3997.453
##LASTX=373.96442
##MAXX=3997.453
##MAXY=0.8793370756372149
##MINX=373.96442
##MINY=0.39406106044258443
##NPOINTS=2559
##XYDATA= (X++(Y..Y))
2559A072475706A073018151A073558630A073616856A073227763A072625200A072002476
2552A071629177A071797740A072464861A073209276A073665693A073741823A073356223
2545A072412385A071189646A070333801A070199373A070514665A070875373A071194959
2538A071494312A071610690A071386230A071010092A070963803A071519130A072355979
2531A072804681A072426213A071358355A070220843A069625631A069711005A070176519
2524A070641160A070773478A070416118A069992016A070292461A071301148A072053205
2517A071967177A071179675A069838664A068177049A067086118A067402939A068611631
2510A069474172A069457432A068857562A068219627A067774344A067267928A066429696
2503A065581346A065569630A066770317A068595401A070322811A071676267A072402560
2496A071926637A069901403A066907220A064282916A062992853A063045474A064197324
2489A066023791A067591226A068072095A067345950A066139951A065715850A066339228
2482A066689674A065712065A063872716A062426390A061614942A061192951A061960148
2475A064242012A066405387A066765950A065121656A062492403A060094961A059133436
2468A060361125A062705291A064404534A064939483A065031116A065311181A065641247
2461A065797002A065707334A064945378A062715699A059973924A060032150A062894597
2454A066135511A068191169A068395031A066728540A063787706A060543953A057939664
2447A056899317A058082244A060808152A063445266A064979804A065453106A065524651
2440A065678512A065907194A066055378A065873204A064847341A062867740A061265370
2433A061249139A062116920A063254504A064882349A066569220A067280592A066548040
2426A064735329A063084340A062877712A063278159A062139774A059429805A058060483
2419A059614599A062315834A064735766A066725847A068162784A068865786A068968409
2412A068624512A067820126A066771263A066078523A066004722A065965492A065364967
2405A064633725A064767062A065784119A066786620A067143470A066784436A065972916
2398A065123330A064529574A064332043A064733218A065546194A065825823A064739842
2391A062676323A061141858A060959248A061288369A060691701A058255539A054923865
2384A053447480A054149682A054652388A053514658A051695033A051241455A051840815
2377A051623925A049391334A045561758A042551563A042728423A045634394A049397302
2370A052748845A054846862A055177802A054138328A053080003A053122726A054339279
2363A056154465A057994324A059523621A060354138A059864169A057868556A055844122
2356A055972655A057898615A059646623A060227642A059700990A058648416A057982970
2349A058227226A058953371A059537377A059914097A060487838A061485099A062360231
2342A062049378A060551814A059549020A059858127A060659095A060989089A060581509
2335A059871010A059136420A057776851A055630361A054585356A055303424A055700741
2328A055115064A055931970A059475148A063510188A065769636A065827352A064651193
2321A063350867A062182497A061057868A060432742A060447372A059898449A057503845
2314A053396678A049733046A048999257A051205719A054957272A058754169A061252633
2307A062092611A062124926A062085187A061669456A060344167A058110993A054905670
2300A050356424A045879597A045375508A048899181A052572057A054536519A055014042
2293A054647439A054121079A054146916A054550784A054444595A053748580A053385615
2286A053776164A054477420A055517694A057218030A058800531A059076157A057908293
2279A056226155A055010840A054430039A054015836A053477830A053163776A053394568
2272A053575286A052733488A051041377A050474550A052276780A054962948A056618596
2265A056878283A056751496A057063730A057416579A057250491A057006452A057205948
2258A057247434A056137143A054035196A052607355A053041720A054512719A056004752
2251A057345543A058510640A059300180A059523985A058994350A057664548A056165528
2244A055511144A055744338A055842739A055137845A054103247A053789483A054819568
2237A056913218A058930956A059636797A058949079A058035955A057734492A057624445
2230A056996044A055827964A054555952A053447189A052622495A052474311A053462546
2223A055251894A056616049A056706590A056066908A055872070A056289985A056283071
2216A055162154A053698506A053227533A053886866A054490957A054122170A053215378
2209A052893390A053443696A054125955A054270063A053907536A053499155A053402283
2202A053589260A053737007A053636714A053545736A053868670A054463373A054690962
2195A054249248A053547556A053029420A052633048A052285732A052334642A052974251
2188A053668301A053696759A052926360A051733534A050640711A050192519A050591583
2181A051312636A051624070A051515334A051599761A052211567A053001981A053340854
2174A052960058A052218918A051672179A051389712A050949526A050167482A049464407
2167A049323719A049615430A049636755A048952239A048017353A047642816A047986130
2160A048502735A048757546A048852018A049126625A049717325A050298854A050222578
2153A049172623A047656063A046546572A046257919A046648031A047390263A048070339
2146A048265176A047907962A047400816A047193096A047375779A047729937A048011458
2139A048118156A048084677A047953378A047665306A047157578A046540313A046032512
2132A045704629A045435554A045145880A044937287A044910431A044961741A044937287
2125A044996678A045512412A046422333A047084358A047105321A046858225A046769793
2118A046637041A046054129A045051191A044067396A043624224A043898978A044373663
2111A044405323A044289308A044921130A046281864A047264058A047201611A046630199
2104A046266943A046130113A046000343A045996995A046237103A046380775A045974942
2097A045063564A044144108A043609815A043397364A043194738A042930539A042932432
2090A043524441A044600670A045684760A046316363A046374951A046103402A045843425
2083A045754703A045749317A045575659A045058906A044422136A044192217A044604819
2076A045299670A045657248A045268519A044230573A043188625A042911689A043650573
2069A044954828A045982511A046018757A044973315A043412866A042005552A041103490
2062A040843513A041233188A042049803A042966712A043801668A044439676A044614790
2055A044120090A043338265A043159657A043942502A044847110A044758025A043624662
2048A042321644A041539018A041410485A041841428A042561680A043089787A043140370
2041A042995024A043204054A043920521A044661079A044772072A044088503A043008489
2034A041917704A040811634A039651997A038819297A038834290A039700397A040771968
2027A041337048A041334428A041370018A041853800A042347118A042165017A041410849
2020A040841402A040883252A041276857A041515801A041367762A041121904A041326276
2013A042075713A042727841A042594286A041787133A041091845A041018481A041302986
2006A041476499A041546151A041769810A042104244A042346681A042526963A042695963
1999A042592030A041959262A041055527A040473707A040501801A040949265A041548771
1992A042154682A042552218A042507530A042044490A041360263A040608061A040036650
1985A039987450A040429089A040876192A040972992A040810251A040606170A040413297
1978A040235418A040175373A040336440A040683319A041088060A041442873A041699503
1971A041916394A042203009A042446247A042277829A041549426A040532514A039495952
1964A038572055A038092422A038361788A039061516A039525209A039508179A039156786
1957A038545199A037768469A037141742A036892682A036923760A037047999A037186430
1950A037254554A037080314A036529863A035698910A034941030A034568968A034456374
1943A034067863A032920453A030924477A028361528A025612548A022805197A019806137
1936A016657292A013665002A010848480A007852405A004742062A002336104A001368248
1929A001710542A002698195A003942041A005543902A007591918A009782150A011767718
1922A013622206A015576333A017471943A018935299A020037001A021402685A023522391
1915A026067654A028078260A028855354A028530601A027757072A027022628A026281051
1908A025207588A023826766A022669604A022088584A021775548A021302756A020740658
1901A020466271A020659144A021007406A020686291A018918778A015790021A012173988
1894A008879724A006366922A005088577A005370826A006855654A008480296A009266561
1887A009141303A008806214A008838239A009275295A010061415A011257443A012677494
1880A013983860A015275888A016963341A018993234A020732508A021687991A021989746
1873A022116094A022329274A022537722A022746898A023257101A024077646A024639524
1866A024639306A024686468A025553376A027233551A029125958A030650889A031455568
1859A031533372A031276087A031084088A031021932A030976298A030775128A030122127
1852A028888834A027400222A026051424A024811799A023355284A021436748A019026932
1845A016214923A012882230A008528332A002716245I95536436I87329090I78318374
1838I68722564I58606143I47346533I33898148I17867672H99891293H80853897H61151491
1830H40834004H20132300G99591517G79879867G61807635G46461310G35007810G28376196
1822G27134242G31286606G39963179G51560061G64347730G76800020G87471696G95081938
1814G98995211G99428776G97042833G92506689G86552967G80068300G73776215G68037128
1806G63214003G59981605G59061930G60831554G65197607G71658037G79510571G88104536
1798G96861096H05211605H12786839H19633742H26080634H32406855H38634019H44574422
1790H50114013H55415170H60700170H65859256H70412722H73868126H76103846H77480593
1782H78620142H80081461H82214559H85155829H88776666H92666214H96300152H99258890
1774I01250717I01994405I01225753H98772487H94394134H87584058H77900982H65651681
1766H52121343H39226102H29024671H23087180H21757888H23979489H28050628H32644489
1758H37258947H41976173H46983436H52360069H58225796H64863233H72514015H81025516
1750H89772616H98084405I05840066I13468285I21262520I28918396I35855113I41750390
1742I46669369I50873991I54621104I58066100I61287872I64314516I67058983I69318067
1734I70992783I72315671I73714615I75356070I76947305I78115312I78814093I79219926
1726I79489220I79824746I80477455I81460814I82501380I83402350I84248514I85208802
1718I86307373I87411042I88340033I88980224I89336129I89520268I89737013I90246415
1710I91188433I92336353I93155515I93358796I93336087I93723434I94608319I95514965
1702I96091400I96399050I96585663I96671619I96691051I96791709I97092299I97520112
1694I97896541I98190144I98546704I99073865I99787493A000700690A001689144
1687A002382248A002509252A002273002A002116593A002231371A002468131A002615005
1680A002613477A002538875A002443967A002274967A001994901A001726918A001628298
1673A001618472A001405949A000875440A000301990A000031895A000055477A000094488
1666A000024253I99898267I99625990I99087402I98542410I98390441I98524869
1659I98498595I98298808I98368606I98892856I99584358A000119452A000411818
1652A000545009A000694285A001048734A001675679A002454593A003133432A003465609
1645A003373540A002981900A002446005A001827939A001209437A000803895A000780532
1638A001043348A001342264A001540523A001575313A001290369A000625797I99893464
1631I99533192I99593965I99718496I99652919I99529262I99578463I99795572A000040484
1623A000270548A000502796A000708332A000872529A001024498A001182507A001378291
1616A001638706A001868552A001936676A001903342A001987114A002353644A003029572
1609A003836216A004397293A004480556A004288993A004170795A004184842A004177855
1602A004093209A003999321A003917805A003756883A003405346A002908171A002567333
1595A002765373A003581187A004628231A005395281A005729788A005827825A005815743
1588A005653439A005442808A005401322A005448194A005314493A005180865A005577018
1581A006468672A007131062A007178515A007032879A007144745A007406469A007556691
1574A007584203A007491988A007092414A006352803A005704096A005621342A005967567
1567A006180381A006062329A005862324A005660208A005271042A004737695A004405226
1560A004487179A004798322A004939955A004790171A004756182A005258451A006094281
1553A006770062A007200423A007513240A007566443A007370879A007537841A008485245
1546A009515693A009474354A008180871A006549096A005477161A005195203A005468354
1539A005908104A006182420A006160876A005814797A005134212A004337903A003890293
1532A004069846A004724885A005473304A005917711A005862688A005553291A005446083
1525A005675056A006092534A006644368A007223932A007481216A007314181A007116796
1518A007030111A006562924A005513843A004612946A004638639A005409474A006105998
1511A006203308A005858830A005673673A006101122A006917228A007463602A007451448
1504A007121309A006626900A005843910A004839735A004018899A003699167A003840872
1497A004149616A004254058A003925010A003322083A002930515A003175937A004155584
1490A005607295A006923123A007407270A006924215A006193846A006058108A006540872
1483A006975890A006953837A006737529A006729159A006863296A006701720A006045007
1476A005300519A005104226A005570468A006118226A006160076A005730880A005225335
1469A004823942A004519931A004440817A004717462A005202190A005664284A006062548
1462A006350401A006279584A005695726A004810404A003948300A003247700A002784951
1455A002712169A003073823A003719619A004500280A005282615A005778406A005704023
1448A005106846A004291250A003597417A003384967A003819403A004511051A004802835
1441A004520950A004041242A003702661A003544141A003499089A003547853A003744583
1434A004107256A004396492A004206240A003466628A002565804A001830705A001250195
1427A000797418A000615608A000771507A001070787A001041092I99921776I96975848
1420I92073391I85695640I78286860I70001855I61122438I52206558I43628896
1413I35255752I26656910I17544519I08093691H98782094H89921528H81803340
1406H75286066H71324246H69776243H69680607H70988939H74894281H81984567
1399H91360066I01815070I12144014I20278360I23763167I21281443I14035985
1392I05956954I00885497H99448341I00076160I01381652I02984896I05110716
1385I07571261I09557193I10775492I11964243I13736922I15803644I17738409
1378I19616844I21754236I24563552I28645172I34200485I40286450I45367661
1371I48710033I50838983I52672218I54722563I57298176I60837642I65394602
1364I70103968I73892786I76664110I79193070I81956970I84674290I86863648
1357I88304734I89079863I89586208I90340740I91526870I92939935I94341645
1350I95519915I96218987I96488062I96813107I97451770I98008990I98054406
1343I97777251I97731981I98166636I98723492I98744089I97995598I97047975
1336I96713177I97149651I97703960I97610435I96768710I95726980I94971501
1329I94616689I94737216I95288759I95778144I95984919I96732028I98724874
1322A000971294A001713671A000788320I99788585I99758890I99820245I98682515
1315I96825116I96066945I97164498I98945914I99839386I99414412I98483747
1308I98229083I99084855A000364874A001032431A000480306I98688993I96453563
1301I95289923I96216439I98723128A001322104A002910864A003561827A004176981
1294A005261508A006150687A005818145A004087387A001774153A000118215I99894919
1287A000471135A000179570I98130390I95079800I92423982I90954293I90505737
1280I90415997I90488270I91382107I93671104I96910999I99928399A001620219
1273A001528295A000089393I98235124I96653205I95574865I94975941I94627679
1266I94120460I93401300I93640171I96580568A001545326A004331207A002383412
1259I98784337I97372074I98349464A000049218A001387897A001920809A001447143
1252A000229572I98793144I97373675I95649176I92987753I89520049I87020202
1245I87605953I91236615I95581270I98548451I99748773I99657359I98739212
1238I97417708I96078008I95128346I95102436I96103335I97279567I97736493
1231I97703523I97825433I97813934I96911872I95265978I93854078I93347442
1224I93635222I94161728I94488301I94707230I95154985I95626395I95412488
1217I94397469I93451666I93325753I93758076I94047387I93943454I93657785
1210I93448245I93420369I93463747I93362799I93213013I93478231I94292372
1203I95042464I95148508I94940351I95123252I95669698I96009520I96152682
1196I96785231I98129808I99293084I99096209I97301693I94812400I92927271
1189I92551715I93638643I94797625I94007428I90812585I87501365I87003317
1182I89695745I93502686I96803354I99602845A001981946A002745285A000472445
1175I95824653I91715157I90412795I91592884I94095569I97568512A000977626
1168A002095923A000490495I98837540I99279547A000214578I98678731I94639178
1161I90890609I89625074I90902909I93405376I95230970I95391236I95140574
1154I95844668I96091764I93828531I90283461I88678688I90249180I93343948
1147I95284610I94433642I91542300I89381691I90029233I92471946I94025043
1140I93305956I90634926I86982647I83738530I82729625I85439230I91848349
1133I99602845A004693662A004541474A000344349I95342326I91544993I89194568
1126I88480430I89789416I92200760I93777657I93800801I93344312I93360179
1119I93248021I91845365I89151917I86678345I86183936I88002179I90566365
1112I91798857I91037047I89326158I87997957I87551221I87847881I88692590
1105I89765907I90419418I90094227I88854384I87310749I86219599I86032695
1098I86396824I86345584I85518417I84788994I84958649I85369941I85063601
1091I84591027I85190897I86474846I86838757I85850085I84748673I84673853
1084I85186093I85149120I84346989I83404242I82713758I82178955I81759148
1077I81637311I81871233I82274154I82586390I82619868I82391406I82244605
1070I82746947I84325081I86837883I89261309I90202818I89387149I88033548
1063I87358130I87439646I87671892I87586374I87038980I86012971I84554054
1056I83107146I82565356I83289829I84672251I85856999I86413636I86501776
1049I86593117I87001425I87604643I88028598I88027143I87605443I86953097
1042I86372223I86074251I86043321I86279863I86891669I87693219I88240467
1035I88266378I87810252I87047496I86018648I84550269I82588791I80781830
1028I80246736I81152654I82602111I83806582I84480762I84549905I84089049
1021I83549151I83485103I83854836I84062920I83707016I82878027I81978150
1014I81460523I81491820I81752962I81691679I81074414I80277741I79891050
1007I79987559I80109251I79819505I78870063I77343458I76101068I76086730
1000I76831800I77210704I76751303I75719471I74630578I73812871I73406674
993I73415117I73599183I73560390I72994364I71958529I71109890I71213750
986I72251258I73647874I74706053I74835969I73951376I72670702I71849645
979I71539449I71156468I70489568I69673899I68535514I66653660I64141149
972I62106161I61459638I61775294I62231856I62520437I62678083I62682230
965I62504279I62181636I61494064I60137405I58791883I58980971I60660418
958I62836384I64890659I66316242I66929358I67091080I67053597I66383929
951I64516923I61908995I60701612I62280838I65170361I67860897I69956148
944I71219863I71306838I70442114I69772009I69987808I70274205I69601189
937I68220804I67522896I68173350I69963062I72097615I73503111I73723056
930I72960011I71684723I69947705I67386066I64995829I65166139I67220123
923I68990256I69729067I69289027I67733382I65604651I63128823I59578512
916I54463531I48536302I42279298I34102229I21283772I02205764H79198832
909H56270433H34366150H13012245G90932266G62288943G22323418F87942318
902F68558915F52732884F32536142F10308670E93235591E80966057E70030109
895E59689738E50841108E44623261E43400339E49413415E60089020E72699939
888E88369088F09184769F34517633F61346791F88966944G18037716G44544012
881G62781969G71275422G69173547G55943508G38763002G27195379G25101802
874G33678736G51767417G74295078G95412004H12535886H26033982H37005083
867H46223953H54104728H60988387H67414537H73845782H80144854H85877027
860H91015079H95910838I00827706I05653889I09903272I12870962I13642671
853I11177541I04678318H94011446H81988716H75996711H78903847H86374129
846H95632376I06198153I16215445I23368616I27664143I30021045I30511378
839I28652451I25520200I25773627I29826280I33340710I35316525I35972001
832I35450808I33930754I31347426I27185673I20761561I11889787I00676394
825H85261800H64485494H44093259H24778709G97585788G52640729F92304658
818F34091787E86185589E44529263E09641999D88802737D86141605E02594072
811E36908358E76666854F10367114F39813115F67422641F90943415G10051991
804G26403363G40742675G55968982G79853737H10203948H32288585H45154204
797H53870005H61029072H67818186H74881616H81567599H86149086H87335216
790H84161844H75146034H59146126H38366618H18469520H05456808H03672191
783H13684097H30227759H45051872H52695740H51083107H37540323H07571273
776G63249885G16482727F74081257F35486292F02491836E82464276E78982781
769E85372540E94630678F05947458F22460406F42086973F56604237F65469970
762F72692502F81185154F92844629G08427058G26175338G43164572G58119984
755G70828176G80853255G88432201G95337912H03594168H12789823H21197393
748H28831435H36712208H44892552H52067485H57381597H61281771H64415550
741H66730312H67979544H68656782H69749095H71018051H71025548H68897982
734H64958941H60305254H55742617H51057342H45165631H36819780H25348375
727H09856559G87851982G57098487G19022385F76862260F32081836E88300637
720E52277463E26992706E11501400E05467509E08338072E16195227E24856479
713E34134304E46414465E63176328E83327363F04438284F24536880F41917610
706F54616703F61820894F64722060F65635550F67069139F71102359F79170109
699F91260745G04767647G16503470G25604944G32916634G39478668G45862459
692G51969678G57334665G61510538G64144814G65002769G63963732G60909140
685G55776037G49037797G42450726G38807108G39691336G44230612G50708728
678G57976312G65487425G73127581G81066652G89307697G97372099H04595359
671H10592313H15391346H19300619H22667810H25677131H28425309H31127273
664H34022545H37047515H39771967H41793636H43182391H44461755H46124389
657H48255522H50619339H52925367H54995217H56788132H58295012H59484126
650H60412971H61232207H61931861H62206250H61647501H60013179H57392223
643H54292361H51512230H49726812H49159767H49693478H51171901H53512207
636H56682452H60689835H65470017H70673501H75667590H79897977H83203085
629H85650091H87097655H87139651H85606859H82945073H79924324H77111514
622H74684741H72551061H70504064H68327515H65842371H62905103H59398171
615H55218877H50262634H44460154H37875484H30742474H23398324H16211237
608H09544251H03676630G98653501G94151491G89533976G84184419G77823409
601G70398616G61784781G51929284G41343346G31197739G22870157G17490759
594G15740349G17723443G22904656G30253755G38492034G46221783G51965675
587G54288662G52022736G44510750G31838658G14955831F95527448F75584426
580F57197775F42153278F31468938F25083182F22228595F22297447F25403787
573F32164590F42920838F57086780F73183563F89397013G04083204G16069033
566G24937969G31065931G35106720G37402341G38050538G37546013G37243894
559G39034989G44260889G52637891G62135227G69934557G73621698G71893051
552G64809969G53865579G41880842G32599159G29669315G34918870G46898730
545G61188769G72389206G76018340G69379666G52353749G28624528G05640596
538F91540446F90476809G00376630G15213407G29414942G40479713G48573156
531G54935913G60837595G67034554G73330424G78574156G81334490G80746193
524G76943255G70902559G63801209G56341699G48689898G41044721G34116738
517G29071119G27074924G28646072G33136072G39041829G45173722G51533493
510G58997081G68248851G79001242G90074384H00177558H08618317H15320602
503H20429032H24114862H26548697H27741523H27458910H25485131H21933802
496H17209880H11826261H06454650H02051916G99515969G98857291G98751393
489G97085847G91878361G81696290G65881467G45196139G22293504G01126213
482F85663583F78754159F81291487F91792127G07004896G23635968G39895783
475G55536365G70698769G84965953G97367514H07000225H13552652H17288048
468H18710065H18422721H17175527H15706493H14487757H13726965H13510147
461H13905354H15043157H16903904H18526944H17216721H09044893G91656230
454G68256493G48458013G42527729G53112939G73416016G93857815H09208070
447H19425294H26323218H31207843H34703131H37165422H38829949H39846787
440H40360993H40626793H41030952H41875370H43109755H44434971H45696503
433H46986129H48332744H49507811H50166489H50021944H48930867H46941951
426H44209055H40903365H37394249H34372846H32511298H32113398H33260879
419H36010443H40186825H45176766H50129734H54355608H57637717H60284584
412H62779045H65293448H67588559H69289840H70102598H69836216H68332246
405H65327073H60450309H53570362H45154932H36116850H27266037H19005342
398H11493792H04930301G99674852G96203510G94823488G95131793G95728752
391G94811698G91308040G85409415G78127857G70728828G64750070G62163467
384G64836899G73392653G86521889H01485380H15421842H26573879H34719143
377H40598190H44985277H48355015H51057997H53255580H54720247H55161524
370H54733129H53836308H52379647H49592602H44811837H38258973H30806086
363H23351015H16884471H12688656H11702386H13815758H18115726H23487773
356H28886967H33625665H37615652H41031971H43833573H45854222H47156512
349H48057991H48866964H49642385H50197640H50311544H49850032H48729697
342H46940641H44616854H42006596H39435496H37288351H35923395H35605263
335H36449756H38254825H40419946H42244594H43310852H43495354H42758727
328H41113414H38721867H35922377H33244286H31427354H31104565H32147824
321H33542329H34352467H34798839H36112920H39396557H44780759H51460045
314H58277326H64356742H69391226H73435727H76556988H78836159H80542754
307H81874666H82477011H81641618H79214262H76079683H73520955H72144136
300H71577163H71235233H71034573H71019725H70645698H68992962H65677519
293H61337304H57229555H54253131H52211884H50045598H46510134H40423440
286H30945318H18363331H04331524G91063419G80604632G74590938G73773595
279G77433297G83479452G89287100G92551959G91521947G84828322G71678853
272G52272597G27457613F97900437F64138276F27492197E90424200E55772096
265E25781467E02083687D86497036D81180486D87552304E05193230E31803894
258E64136397E99073916F33965073F66431567F94532737G17301089G35004680
251G48867851G60301264G69969274G77570273G82750975G86035777G88539700
244G90986052G93394921G95597162G97779024H00590815H04686992H10086259
237H16195952H22484326H28699481H34363529H38674413H41199734H42335062
230H42928600H43589170H44325288H44789492H44860601H44857471H45160900
223H45790392H46417992H46767055H46917641H47094939H47310082H47535052
216H48026984H49034800H50368022H51200576H49775285H44062763H34600071
209H28636450H34920240H47430027H55683518H58102358H57355031H55696473
202H53757776H51359096H48423212H45102456H41524051H37692947H33825379
195H30421069H27617357H25017362H22545681H20868636H20696870H22037298
188H24127236H26018698H27406434H28810255H30834760H33464161H36130315
181H38216760H39475162H40101961H40350221H39942787H38055110H34304503
174H29798199H26585306H25694089H26304003H27149076H27800476H28408280
167H29247166H30778138H33487815H37432460H42020352H46246008H49376075
160H51505461H53158779H54423951H54852419H54023140H51998560H49538962
153H47730690H46952650H46471997H45395913H43738010H42067151H40319289
146H37694621H33926619H30123827H27978865H28230545H30136416H32118565
139H32698930H31513091H29486472H27447338H25134977H22312997H20129316
132H20266801H23019420H27158101H31634201H36571447H42221959H47554048
125H50798019H51561867H51483627H52350971H54521260H57556565H61238903
118H65260114H68845215H71423739H73169636H74564723H75865922H77134878
111H78535642H80397406H82830514H85299137H86919558H87061556H85271698
104H81617600H77888609H76974900H79665948H83624057H86268085H87059445
97H86762421H85854173H84629323H83991024H84457994H84778963H83494941
90H81768987H82019139H84188264H85667560H84572406H81862730H79936406
83H80068578H81608939H82868797H82299059H79726867H77026723H76618561
76H78910542H81871027H83196535H82567770H81392339H80894510H81232146
69H82269509H84357337H87698617H91349950H93498041H92884633H90005373
62H87279174H87795272H92518248H98391764I01989310I03130897I02700828
55I00406008H96116086H91658910H89525302H90164693H91697048H91926238
48H89563877H83746840H73730713H59909974H44268737H28281420H11559441
41G94531050G81123786G76545573G83209721G99168432H18460859H34542428
34H45051945H53224429H63576009H73796290H78778880H77909934H74790930
27H73500722H74357513H74362171H71464570H66829005H62907796H60476365
20H58401347H56139498H56481792H63137860H74213913H84620226H91756656
13H95227780H93571187H84321382H69589410H60025043H66300170H84178948
6I00047556I06806830I04875775H97580825H91447551H92496777
##END=


$$ === CHEMSPECTRA PEAK TABLE EDIT ===
##TITLE=X8144
##JCAMP-DX=5.00
##DATA TYPE=INFRAREDPEAKTABLE
##DATA CLASS=PEAKTABLE
##$CSTHRESHOLD=0.93
##MAXX=3997.453
##MAXY=0.8793370756372149
##MINX=373.96442
##MINY=0.39406106044258443
##$CSSOLVENTNAME=- - -
##$CSSOLVENTVALUE=0
##$CSSOLVENTX=0
##NPOINTS=41
##PEAKTABLE= (XY..XY)
375.380951892103, 0.730047825081595
385.29667513682534, 0.7043144730764482
399.4619940578573, 0.7011324197146721
427.7926318999216, 0.6359492566214238
560.9466297576228, 0.6716420082817146
575.1119486786547, 0.6780703687263566
616.1913735496478, 0.6761992594864159
641.6889476075057, 0.6721068046265489
668.6030535574664, 0.678608896459778
743.6792438389366, 0.39406106044258443
769.1768178967941, 0.6336791542044596
830.0876892572319, 0.6806301497076356
848.5026038545734, 0.6843159820851645
882.4993692650505, 0.6647408037052774
917.9126665676308, 0.6241710808626115
930.6614535965596, 0.6509178897706874
968.9078146833463, 0.681456329931805
1012.8203033385453, 0.6080904625416667
1053.8997282095384, 0.5558633225108688
1103.4783444331506, 0.5954354424353183
1133.2255141673181, 0.5654635453474143
1148.8073649804533, 0.597560109786568
1165.8057476856916, 0.6037632845203542
1188.4702579593431, 0.5095719114083097
1213.9678320172006, 0.5861530322501181
1279.128299053948, 0.6954163936506725
1338.6226385222826, 0.6050434731075088
1388.2012547458949, 0.41395083219524326
1463.277445027365, 0.4741559046907331
1483.1088915168098, 0.6581645038566158
1524.1883163878028, 0.3981239513348844
1575.1834645035183, 0.7173944142050602
1612.0132936982013, 0.593819561138539
1636.094335863956, 0.44501578942085335
2341.527218131352, 0.7366000438093063
2359.942132728694, 0.7122218631301074
2868.477081993745, 0.6729757215722554
2927.97142146208, 0.6216310880848871
2953.4689955199374, 0.5954840207020258
3052.6262279671696, 0.8231137421714733
3103.6213760828846, 0.8211561472706217
##END=


$$ === CHEMSPECTRA PEAK TABLE AUTO ===
##TITLE=X8144
##JCAMP-DX=5.00
##DATA TYPE=INFRAREDPEAKTABLE
##DATA CLASS=PEAKTABLE
##$CSTHRESHOLD=0.93
##MAXX=3997.453
##MAXY=0.8793370756372149
##MINX=373.96442
##MINY=0.39406106044258443
##NPOINTS=106
##PEAKTABLE= (XY..XY)
2953.4689955199374, 0.5954840207020258
2927.97142146208, 0.6216310880848871
2868.477081993745, 0.6729757215722554
2789.1512960359655, 0.8134890819722629
2725.4073608913213, 0.8176283273386933
2721.1577652150118, 0.8175532848168078
2359.942132728694, 0.7122218631301074
2341.527218131352, 0.7366000438093063
2273.533687310399, 0.8170890838460572
2265.0344959577797, 0.8162547379066353
2255.118772713057, 0.8145378264596379
2233.870794331509, 0.8157255084914342
2225.3716029788893, 0.8174961837741871
2215.455879734167, 0.8150891690674219
2185.70871, 0.8110976845746807
2164.460731618452, 0.813542487928411
2154.5450083737296, 0.8167943392788788
2137.546625668491, 0.808316710246587
2121.9647748553552, 0.814935627250601
2116.2986472869425, 0.8170657782674139
2107.7994559343233, 0.8134983811094297
2093.6341370132914, 0.8134806189794419
2085.134945660672, 0.8135581044186475
2080.8853499843626, 0.8133882909544141
2073.8026905238466, 0.814802888312011
2056.8043078186083, 0.812846723291696
2048.305116465989, 0.808302882335441
2034.1397975449568, 0.8110950623080837
2015.7248829476152, 0.8104499609757888
2008.642223487099, 0.8149668602310738
2001.559564026583, 0.8096749215018314
1993.060372673964, 0.8102506433270809
1981.7281175371381, 0.8048029573581738
1967.5627986161062, 0.8095125588125821
1960.4801391555902, 0.8134958178069787
1951.9809478029708, 0.807631853157906
1942.0652245582482, 0.80875158638214
1929.3164375293195, 0.8075079948748367
1923.6503099609067, 0.8064894703311513
1917.984182392494, 0.8063273459553247
1909.4849910398748, 0.8063951760156489
1898.1527359030492, 0.8039084106637422
1889.6535445504296, 0.8044057519412944
1878.321289413604, 0.8085934551893011
1866.9890342767785, 0.8046684298404934
1845.7410558952306, 0.8075166970000269
1828.7426731899918, 0.802769604176222
1817.4104180531663, 0.8054216533994365
1808.911226700547, 0.8037636307552039
1800.412035347928, 0.8024783163820935
1790.4963121032056, 0.7993627819473431
1780.5805888584828, 0.7971679595467408
1772.0813975058636, 0.7952870163975884
1748.0003553401093, 0.7873839765875779
1733.8350364190774, 0.7851992280475031
1716.8366537138386, 0.7867631938707097
1705.504398577013, 0.7941913634753582
1698.421739116497, 0.7923494603233772
1684.2564201954651, 0.7902799277242737
1636.094335863956, 0.44501578942085335
1612.0132936982013, 0.593819561138539
1575.1834645035183, 0.7173944142050602
1559.6016136903827, 0.757951500703694
1524.1883163878028, 0.3981239513348844
1483.1088915168098, 0.6581645038566158
1463.277445027365, 0.4741559046907331
1388.2012547458949, 0.41395083219524326
1338.6226385222826, 0.6050434731075088
1279.128299053948, 0.6954163936506725
1213.9678320172006, 0.5861530322501181
1188.4702579593431, 0.5095719114083097
1165.8057476856916, 0.6037632845203542
1148.8073649804533, 0.597560109786568
1133.2255141673181, 0.5654635453474143
1103.4783444331506, 0.5954354424353183
1053.8997282095384, 0.5558633225108688
1026.9856222595777, 0.6662212631948311
1012.8203033385453, 0.6080904625416667
968.9078146833463, 0.681456329931805
930.6614535965596, 0.6509178897706874
917.9126665676308, 0.6241710808626115
882.4993692650505, 0.6647408037052774
848.5026038545734, 0.6843159804472716
830.0876892572319, 0.6806301497076356
769.1768178967941, 0.6336791542044596
743.6792438389366, 0.39406106044258443
691.267563831118, 0.6918930435285774
668.6030535574664, 0.6786088956408315
641.6889476075057, 0.6721068046265489
616.1913735496478, 0.6761992594864159
575.1119486786547, 0.6780703687263566
560.9466297576228, 0.6716420082817146
546.7813108365908, 0.6973195105944467
517.0341411024233, 0.718195498633603
505.70188596559774, 0.7239413286164853
500.03575839718496, 0.7221215992591259
491.5365670445658, 0.7206208135181869
481.62084379984344, 0.7179036760674297
473.1216524472243, 0.7214054494068798
460.3728654182951, 0.7266341474518159
446.20754649726314, 0.728473606048584
427.7926318999216, 0.6359492558024773
410.79424919468283, 0.7153503328243513
399.4619940578573, 0.7011324197146721
385.29667513682534, 0.7043144730764482
375.380951892103, 0.730047825081595
##END=

##END=

