##TITLE=(+-)-ethyl 4-methyl-5-phenylvalerate
##JCAMP-DX=4.24
##DATA TYPE=INFRARED SPECTRUM
##DATE=10/06/2025
##SAMPLING PROCEDURE=ATR
##ORIGIN=SDBS
##XUNITS=1/CM
##YUNITS=TRANSMITTANCE
##RESOLUTION=5.2631578947368425
##FIRSTX=4000.0
##LASTX=400.0
##DELTAX=-5.2631578947368425
##MAXY=95.0
##MINY=0.0
##XFACTOR=1
##YFACTOR=1
##NPOINTS=685
##FIRSTY=0.0
##XYDATA=(X++(Y..Y))
4000+0+94375000000+94375000000+94375000000+94375000000+94375000000
3968+94375000000+94687500000+94687500000+94687500000+94687500000+94687500000
3937+94687500000+94375000000+94375000000+94375000000+94375000000+94375000000
3905+94375000000+94375000000+94375000000+94375000000+94062500000+94062500000
3874+94062500000+94375000000+94375000000+94375000000+94375000000+94375000000
3842+94062500000+94062500000+94062500000+94062500000+94062500000+94062500000
3811+94375000000+94375000000+94375000000+94375000000+94062500000+93750000000
3779+93437500000+93125000000+92812500000+92812500000+92812500000+92812500000
3747+92812500000+92812500000+92812500000+92812500000+93125000000+93125000000
3716+93437500000+93437500000+93437500000+93125000000+92812500000+92812500000
3684+92812500000+92812500000+92812500000+92812500000+92812500000+92812500000
3653+92812500000+92812500000+92812500000+92500000000+91875000000+90937500000
3621+90625000000+90312500000+90625000000+91250000000+92187500000+92812500000
3589+93125000000+93437500000+93437500000+93437500000+93125000000+93125000000
3558+93125000000+93437500000+93437500000+93437500000+93437500000+93437500000
3526+93437500000+93437500000+93437500000+93437500000+93437500000+93437500000
3495+93125000000+93125000000+93125000000+93125000000+93125000000+93125000000
3463+92812500000+92812500000+92500000000+92500000000+92500000000+92500000000
3432+92500000000+92500000000+92500000000+92500000000+92500000000+92500000000
3400+92187500000+92187500000+91562500000+89062500000+88125000000+87187500000
3368+78750000000+76875000000+80625000000+71250000000+70312500000+75937500000
3337+79062500000+69062500000+52187500000+51875000000+67500000000+66250000000
3305+57187500000+45312500000+35000000000+33437500000+31250000000+28437500000
3274+28437500000+34062500000+31875000000+27812500000+28125000000+30625000000
3242+35000000000+41250000000+50625000000+56250000000+50937500000+48437500000
3211+53437500000+60000000000+63437500000+71875000000+80625000000+84375000000
3179+87187500000+88750000000+90625000000+91562500000+91875000000+92500000000
3147+92812500000+93125000000+93125000000+93125000000+92812500000+92812500000
3116+92812500000+93125000000+93437500000+93750000000+93750000000+93437500000
3084+93437500000+93437500000+93437500000+93750000000+93750000000+94062500000
3053+94062500000+93750000000+93750000000+93750000000+93750000000+93750000000
3021+93750000000+94062500000+94375000000+94375000000+94687500000+94687500000
2989+94687500000+94687500000+94687500000+95000000000+95000000000+94687500000
2958+94687500000+94687500000+94687500000+94687500000+95000000000+94687500000
2926+94687500000+94687500000+94687500000+94687500000+94687500000+94687500000
2895+94687500000+94375000000+94375000000+94375000000+94375000000+94375000000
2863+94375000000+94375000000+94375000000+94375000000+94375000000+94375000000
2832+94375000000+94375000000+94375000000+94375000000+94375000000+94375000000
2800+94375000000+94687500000+94687500000+94687500000+94375000000+94375000000
2768+94375000000+94375000000+94687500000+94687500000+94687500000+94687500000
2737+94687500000+94687500000+94687500000+94687500000+94687500000+94687500000
2705+94687500000+94687500000+94687500000+94375000000+94062500000+94062500000
2674+94062500000+94062500000+94375000000+94375000000+94375000000+94375000000
2642+94062500000+94062500000+93750000000+93750000000+93750000000+93750000000
2611+93750000000+93750000000+93750000000+93750000000+93437500000+93125000000
2579+92812500000+92500000000+92187500000+91875000000+91562500000+90937500000
2547+90625000000+90625000000+90625000000+90625000000+91250000000+91875000000
2516+92812500000+93125000000+93750000000+93750000000+93750000000+93437500000
2484+93125000000+92812500000+92187500000+91562500000+91250000000+90937500000
2453+90625000000+90312500000+90312500000+90312500000+90625000000+91562500000
2421+92187500000+92500000000+92500000000+92812500000+92812500000+92812500000
2389+92500000000+92187500000+91562500000+91250000000+90625000000+90312500000
2358+89687500000+88750000000+87812500000+87500000000+87500000000+87500000000
2326+87500000000+86875000000+86250000000+85000000000+83437500000+81875000000
2295+80312500000+77500000000+73125000000+66875000000+58750000000+44375000000
2263+25937500000+11875000000+6562500000+4687500000+4687500000+5625000000
2232+10312500000+20312500000+34687500000+47812500000+57500000000+63750000000
2200+69375000000+72812500000+75312500000+76562500000+78750000000+81875000000
2168+84687500000+86250000000+87500000000+88437500000+89062500000+89375000000
2137+89687500000+90000000000+90312500000+90312500000+90625000000+90937500000
2105+91250000000+91250000000+91250000000+90937500000+90312500000+89375000000
2074+87500000000+78125000000+74687500000+77500000000+82812500000+84375000000
2042+87812500000+85312500000+85312500000+90625000000+91562500000+92187500000
2011+92500000000+92812500000+92812500000+92500000000+92187500000+92187500000
1979+92187500000+91875000000+91875000000+91875000000+91562500000+91562500000
1947+90937500000+90000000000+88750000000+86250000000+82812500000+72187500000
1916+53750000000+52500000000+63437500000+73750000000+73125000000+69375000000
1884+69375000000+64687500000+53437500000+49062500000+44687500000+36875000000
1853+35312500000+42812500000+50625000000+56562500000+64375000000+69687500000
1821+71875000000+70312500000+68125000000+68125000000+71562500000+77187500000
1789+79375000000+77187500000+72812500000+67500000000+64062500000+62187500000
1758+50625000000+42187500000+41250000000+41562500000+46250000000+52500000000
1726+65312500000+73125000000+70937500000+67812500000+62500000000+59375000000
1695+59375000000+61250000000+61875000000+62187500000+61562500000+60312500000
1663+60312500000+56250000000+53437500000+52500000000+52500000000+53750000000
1632+56562500000+58125000000+57500000000+56562500000+54062500000+51250000000
1600+47812500000+42500000000+36562500000+34375000000+34375000000+35937500000
1568+39062500000+41874999999+44375000000+47500000000+50312500000+51562500000
1537+51562500000+50312500000+47812500000+44999999999+42187500000+40000000000
1505+35937500000+31875000000+27812500000+25312500000+23750000000+23125000000
1474+23125000000+23437500000+24687500000+25625000000+25625000000+26250000000
1442+29062500000+34375000000+39375000000+48750000000+56250000000+58750000000
1411+59375000000+59062500000+58750000000+59062500000+60312500000+60312500000
1379+60937500000+59687500000+54375000000+46875000000+43125000000+42812500000
1347+46250000000+56875000000+66875000000+74375000000+78125000000+77500000000
1316+75312500000+72500000000+70937500000+70937500000+69375000000+62187500000
1284+53750000000+49687499999+47812500000+46562499999+50937500000+56250000000
1253+57187500000+62187500000+69375000000+76562500000+81875000000+84062500000
1221+87500000000+89062500000+89687500000+90312500000+90312500000+90312500000
1189+90312500000+90000000000+89687500000+89687500000+89375000000+89062500000
1158+87812500000+85000000000+82500000000+81250000000+81250000000+82187500000
1126+83437500000+83750000000+84687500000+84375000000+84375000000+84375000000
1095+85625000000+88750000000+90625000000+91562500000+91250000000+90625000000
1063+90625000000+90312500000+88437500000+85937500000+84687500000+83750000000
1032+83125000000+82500000000+82500000000+83125000000+84375000000+87500000000
1000+90000000000+90937500000+90937500000+90312500000+89687500000+88437500000
968+87187500000+86875000000+86875000000+86875000000+86875000000+86562500000
937+86562500000+85625000000+85625000000+84687500000+84687500000+85000000000
905+85937500000+86250000000+84375000000+77187500000+65625000000+53750000000
874+44062500000+40312499999+40625000000+46250000000+55000000000+65000000000
842+73125000000+79062500000+80000000000+73125000000+53125000000+30312500000
811+25312500000+27812500000+60625000000+78125000000+83750000000+87500000000
779+89687500000+90937500000+91562500000+91875000000+91875000000+91562500000
747+91562500000+91562500000+91562500000+91562500000+91562500000+91875000000
716+91875000000+91875000000+91250000000+89375000000+90312500000+90312500000
684+90000000000+89062500000+86250000000+82500000000+82187500000+83437500000
653+86250000000+89062500000+90312500000+91250000000+91875000000+92500000000
621+92812500000+93125000000+93437500000+94062500000+94375000000+94687500000
589+94687500000+94687500000+94375000000+93437500000+91875000000+89687500000
558+87500000000+86250000000+85625000000+84687500000+83750000000+83437500000
526+83437500000+83750000000+84062500000+84687500000+85312500000+85937500000
495+86562500000+87187500000+87812500000+88437500000+89062500000+89687500000
463+90312500000+90312500000+89687500000+88437500000+87187500000+85312500000
432+83437500000+81875000000+80937500000+80625000000+80000000000+80000000000
400+79687500000
##END=
