##TITLE=(-)-3-p-menthyl crotonate
##JCAMP-DX=4.24
##DATA TYPE=INFRARED SPECTRUM
##DATE=10/06/2025
##SAMPLING PROCEDURE=ATR
##ORIGIN=SDBS
##XUNITS=1/CM
##YUNITS=TRANSMITTANCE
##RESOLUTION=5.2631578947368425
##FIRSTX=4000.0
##LASTX=400.0
##DELTAX=-5.2631578947368425
##MAXY=95.0
##MINY=0.0
##XFACTOR=1
##YFACTOR=1
##NPOINTS=685
##FIRSTY=0.0
##XYDATA=(X++(Y..Y))
4000+0+94687500000+94062500000+93750000000+93750000000+94062500000
3968+94062500000+94062500000+94062500000+94062500000+94062500000+94062500000
3937+94062500000+94062500000+94062500000+94062500000+94062500000+94062500000
3905+94375000000+94375000000+94375000000+94375000000+94062500000+94062500000
3874+94062500000+94062500000+94375000000+94375000000+94375000000+94375000000
3842+94375000000+94375000000+94375000000+94375000000+94062500000+94062500000
3811+94062500000+94062500000+93750000000+93750000000+93750000000+94062500000
3779+94062500000+93750000000+93750000000+94062500000+94062500000+93750000000
3747+93437500000+93437500000+93125000000+92812500000+92500000000+91875000000
3716+91250000000+90625000000+90312500000+89687500000+89062500000+88437500000
3684+87812500000+86875000000+86250000000+85625000000+85000000000+84375000000
3653+83750000000+83437500000+82812500000+81875000000+81250000000+80625000000
3621+80000000000+79375000000+78437500000+78125000000+78125000000+78125000000
3589+78750000000+79375000000+80000000000+80625000000+81250000000+81875000000
3558+82187500000+83125000000+83750000000+84375000000+85000000000+85625000000
3526+85937500000+86562500000+86562500000+86562500000+86875000000+87187500000
3495+87187500000+87500000000+87500000000+87812500000+88125000000+88437500000
3463+88750000000+89062500000+89375000000+89687500000+89687500000+90000000000
3432+90312500000+90312500000+90625000000+90937500000+90937500000+91250000000
3400+91250000000+91250000000+91562500000+91875000000+91875000000+92187500000
3368+92500000000+92500000000+92500000000+91875000000+91875000000+91562500000
3337+91562500000+91562500000+90937500000+87187500000+85625000000+88437500000
3305+90312500000+91250000000+90312500000+87812500000+82187500000+75312500000
3274+76875000000+86875000000+89687500000+90312500000+90937500000+90937500000
3242+90937500000+90625000000+90625000000+90625000000+90625000000+91250000000
3211+91875000000+91562500000+90312500000+90312500000+92187500000+93125000000
3179+93750000000+93750000000+93750000000+93750000000+93750000000+94062500000
3147+94062500000+94375000000+94375000000+94375000000+94375000000+94062500000
3116+94062500000+94062500000+94062500000+94375000000+94375000000+94375000000
3084+94375000000+94375000000+94687500000+94375000000+94375000000+94375000000
3053+94375000000+94375000000+94375000000+94375000000+94375000000+94375000000
3021+94375000000+94375000000+94375000000+94375000000+94375000000+94375000000
2989+94375000000+94375000000+94375000000+94687500000+94687500000+94687500000
2958+94687500000+94687500000+94687500000+94687500000+94687500000+94687500000
2926+94687500000+94687500000+94687500000+94687500000+94687500000+94687500000
2895+94375000000+94375000000+94375000000+94375000000+94375000000+94375000000
2863+94375000000+94375000000+94375000000+94687500000+94687500000+94687500000
2832+94687500000+94687500000+94375000000+94375000000+94375000000+94375000000
2800+94375000000+94687500000+94687500000+94687500000+94375000000+94375000000
2768+94375000000+94687500000+94687500000+94687500000+95000000000+94687500000
2737+94375000000+94375000000+94375000000+94062500000+94062500000+94375000000
2705+94375000000+94062500000+94062500000+93750000000+93437500000+93437500000
2674+93750000000+93750000000+93437500000+93437500000+93437500000+93437500000
2642+93437500000+94062500000+94062500000+94062500000+94062500000+94062500000
2611+94062500000+94062500000+94062500000+94375000000+94375000000+94375000000
2579+94062500000+94062500000+93125000000+92187500000+90625000000+90937500000
2547+92500000000+93125000000+93437500000+93750000000+94062500000+94062500000
2516+93750000000+93750000000+93750000000+93437500000+93437500000+93437500000
2484+93437500000+93437500000+93437500000+93437500000+93437500000+93750000000
2453+93750000000+94062500000+94062500000+94062500000+94062500000+94062500000
2421+94062500000+93750000000+93750000000+93750000000+93437500000+93437500000
2389+93437500000+93437500000+93437500000+93437500000+93437500000+93437500000
2358+93437500000+93125000000+92812500000+92187500000+91875000000+91562500000
2326+91250000000+90937500000+90937500000+90937500000+90625000000+90625000000
2295+90312500000+90312500000+90000000000+89687500000+89062500000+87187500000
2263+84687500000+79687500000+69062500000+45937500000+25312500000+7500000000
2232+4687500000+4687500000+6250000000+13750000000+35937500000+55000000000
2200+68437500000+76250000000+81250000000+83750000000+85312500000+84062500000
2168+81250000000+81250000000+85312500000+87187500000+87812500000+87812500000
2137+87812500000+87812500000+87812500000+87812500000+87812500000+87812500000
2105+87812500000+87812500000+88125000000+88125000000+88125000000+88437500000
2074+88437500000+88750000000+89375000000+89687500000+90312500000+90937500000
2042+90937500000+91250000000+91250000000+91250000000+91250000000+91250000000
2011+90937500000+90937500000+90625000000+90625000000+90312500000+90000000000
1979+90000000000+89687500000+89687500000+90000000000+90000000000+90000000000
1947+90312500000+90000000000+89687500000+84062500000+65625000000+65312500000
1916+87187500000+89062500000+90937500000+90937500000+90312500000+90000000000
1884+89062500000+87500000000+85937500000+84687500000+82187500000+79375000000
1853+73125000000+65625000000+62187500000+52812500000+28125000000+26250000000
1821+56562500000+78125000000+83750000000+81562500000+77187500000+56562500000
1789+54062500000+69375000000+80312500000+84687500000+84062500000+80000000000
1758+80000000000+82500000000+84062500000+85312500000+86562500000+88437500000
1726+89062500000+88750000000+88125000000+86875000000+82812500000+79375000000
1695+79375000000+82187500000+82500000000+80937500000+78750000000+75625000000
1663+72187500000+65937500000+58750000000+58125000000+53750000000+40000000000
1632+21250000000+11875000000+6562500000+5937500000+6875000000+13125000000
1600+22187500000+26562500000+26875000000+37812500000+52812500000+64687500000
1568+73437500000+79375000000+82187500000+83437500000+84375000000+85937500000
1537+86562500000+87187500000+87187500000+87187500000+84062500000+79375000000
1505+75625000000+66562500000+60000000000+63125000000+77500000000+82500000000
1474+84687500000+85312500000+85312500000+85312500000+85312500000+85625000000
1442+85625000000+85937500000+85937500000+85937500000+85312500000+84687500000
1411+81875000000+75937500000+64687500000+36250000000+19687500000+18750000000
1379+18125000000+17812500000+46562499999+68125000000+75312500000+75625000000
1347+75937500000+79375000000+82812500000+84687500000+85937500000+86562500000
1316+87187500000+87500000000+87187500000+87187500000+87187500000+87187500000
1284+87187500000+87187500000+87500000000+87500000000+86875000000+79375000000
1253+40000000000+44062500000+81875000000+88750000000+90312500000+90625000000
1221+90937500000+91250000000+91562500000+91875000000+91875000000+91875000000
1189+91250000000+90312500000+87812500000+82187500000+62812500000+58750000000
1158+68437500000+83750000000+89062500000+90625000000+92187500000+92812500000
1126+93437500000+93437500000+93437500000+93750000000+94062500000+94062500000
1095+94062500000+94375000000+94062500000+93125000000+91562500000+89375000000
1063+84375000000+76250000000+79375000000+80312500000+88437500000+92187500000
1032+93437500000+93750000000+94062500000+94062500000+94062500000+94062500000
1000+94062500000+94062500000+93125000000+91875000000+90937500000+63437500000
968+61250000000+86562500000+91875000000+92500000000+93125000000+93437500000
937+93750000000+94062500000+94062500000+94062500000+94062500000+94062500000
905+94375000000+94375000000+94375000000+94375000000+94687500000+93437500000
874+91875000000+85625000000+43750000000+42500000000+20937500000+25000000000
842+58750000000+82812500000+88750000000+92500000000+91875000000+91875000000
811+92812500000+92812500000+92500000000+92500000000+92500000000+92500000000
779+90937500000+92187500000+92187500000+91875000000+91875000000+91875000000
747+91875000000+90625000000+90000000000+90312500000+91562500000+89687500000
716+90937500000+91250000000+90625000000+90000000000+90312500000+89687500000
684+86875000000+90000000000+90000000000+89687500000+89375000000+89062500000
653+89062500000+89062500000+89062500000+89062500000+89062500000+89375000000
621+89375000000+90000000000+90312500000+90937500000+91250000000+91562500000
589+91875000000+91875000000+91562500000+91562500000+91562500000+91875000000
558+91562500000+90937500000+90312500000+89375000000+89062500000+88750000000
526+88750000000+88750000000+88750000000+89062500000+89687500000+90000000000
495+90312500000+90937500000+91875000000+92500000000+92500000000+91562500000
463+90312500000+88437500000+86250000000+84687500000+83437500000+82812500000
432+81875000000+81875000000+81875000000+81875000000+82187500000+82500000000
400+83125000000
##END=
