##TITLE=(-)-3-p-menthyl trans-cinnamate
##JCAMP-DX=4.24
##DATA TYPE=INFRARED SPECTRUM
##DATE=10/06/2025
##SAMPLING PROCEDURE=ATR
##ORIGIN=SDBS
##XUNITS=1/CM
##YUNITS=TRANSMITTANCE
##RESOLUTION=5.2631578947368425
##FIRSTX=4000.0
##LASTX=400.0
##DELTAX=-5.2631578947368425
##MAXY=95.0
##MINY=0.0
##XFACTOR=1
##YFACTOR=1
##NPOINTS=685
##FIRSTY=0.0
##XYDATA=(X++(Y..Y))
4000+0+92812500000+92812500000+92812500000+92812500000+92812500000
3968+92812500000+92812500000+92812500000+92812500000+92500000000+92500000000
3937+92500000000+92812500000+92812500000+92500000000+92500000000+92812500000
3905+92812500000+92812500000+92812500000+92812500000+92812500000+92812500000
3874+92812500000+93125000000+93125000000+93125000000+93125000000+93125000000
3842+93125000000+93125000000+93125000000+93125000000+93125000000+93125000000
3811+93125000000+93125000000+93125000000+93125000000+93125000000+93125000000
3779+93125000000+93125000000+92812500000+92500000000+92500000000+92500000000
3747+92812500000+92500000000+92500000000+92500000000+92500000000+92500000000
3716+92500000000+92500000000+92500000000+92187500000+92187500000+91875000000
3684+91875000000+91875000000+91875000000+91875000000+91875000000+91875000000
3653+91875000000+92187500000+92187500000+91875000000+91875000000+91562500000
3621+91562500000+91562500000+91250000000+90937500000+90312500000+89687500000
3589+89062500000+89062500000+89375000000+89687500000+90312500000+90625000000
3558+90625000000+90625000000+90625000000+90625000000+90937500000+91250000000
3526+90937500000+90937500000+90937500000+90937500000+90625000000+90625000000
3495+90312500000+90312500000+90312500000+90312500000+90312500000+90000000000
3463+90000000000+89687500000+89687500000+89375000000+89375000000+89687500000
3432+89375000000+89375000000+89062500000+89062500000+89062500000+89375000000
3400+89687500000+90000000000+89375000000+87500000000+86250000000+86875000000
3368+80312500000+77500000000+79687500000+71875000000+69687500000+72500000000
3337+80312500000+75937500000+70000000000+70312500000+80937500000+80312500000
3305+79375000000+74062500000+60937500000+42187500000+20937500000+10625000000
3274+9687500000+10937500000+16562500000+15000000000+15000000000+16875000000
3242+24062500000+31875000000+36875000000+42187500000+31562500000+25312500000
3211+26562500000+35625000000+41562500000+53750000000+73125000000+79687500000
3179+82187500000+84687500000+86250000000+86875000000+88125000000+89687500000
3147+90625000000+90937500000+91250000000+90937500000+90312500000+89375000000
3116+88750000000+88750000000+90000000000+90937500000+91250000000+91250000000
3084+91250000000+90937500000+90937500000+90937500000+91250000000+91250000000
3053+91250000000+91250000000+90937500000+90937500000+90937500000+90937500000
3021+91875000000+92500000000+93125000000+93125000000+93437500000+93437500000
2989+93437500000+93750000000+93750000000+93750000000+93750000000+93750000000
2958+94062500000+93750000000+93750000000+93750000000+93750000000+93750000000
2926+94062500000+94062500000+94062500000+94062500000+94062500000+94062500000
2895+94062500000+94062500000+94062500000+94062500000+94062500000+93750000000
2863+93750000000+93750000000+93750000000+93750000000+93750000000+93750000000
2832+93750000000+93750000000+93437500000+93750000000+93750000000+93750000000
2800+93750000000+93750000000+93750000000+94062500000+94062500000+94062500000
2768+94375000000+94375000000+94375000000+94062500000+94062500000+93750000000
2737+93750000000+93750000000+93437500000+93437500000+93125000000+93125000000
2705+93125000000+93125000000+93750000000+94062500000+94062500000+94375000000
2674+94375000000+94687500000+94687500000+95000000000+94687500000+94687500000
2642+94687500000+94375000000+94062500000+94062500000+93750000000+93750000000
2611+93750000000+93437500000+93437500000+93125000000+93125000000+93125000000
2579+92500000000+92187500000+91562500000+91562500000+90937500000+90937500000
2547+90937500000+90937500000+91250000000+91875000000+92187500000+92500000000
2516+92812500000+93125000000+93125000000+93125000000+92812500000+92500000000
2484+92187500000+91562500000+91250000000+90937500000+90937500000+90625000000
2453+90625000000+90625000000+90937500000+91562500000+91875000000+92187500000
2421+92187500000+91875000000+91562500000+91250000000+90937500000+90937500000
2389+90937500000+90937500000+90937500000+90937500000+90937500000+90625000000
2358+90625000000+90625000000+90312500000+90312500000+90312500000+90000000000
2326+90000000000+90000000000+89687500000+89375000000+88750000000+88125000000
2295+87500000000+86562500000+85625000000+84687500000+83750000000+81875000000
2263+79062500000+75000000000+70625000000+63125000000+53437500000+42812500000
2232+34687500000+23750000000+11562500000+6250000000+4687500000+4687500000
2200+5625000000+10625000000+23125000000+37500000000+49687499999+58437500000
2168+64687500000+68437500000+70937500000+72812500000+75625000000+77500000000
2137+76562500000+71250000000+60937500000+36875000000+15625000000+13125000000
2105+15312500000+29375000000+50625000000+66875000000+70312500000+75937500000
2074+78750000000+81250000000+82500000000+82187500000+83750000000+86250000000
2042+87187500000+84062500000+68750000000+61250000000+71562500000+84375000000
2011+87812500000+89687500000+90312500000+90312500000+90312500000+90625000000
1979+90625000000+90625000000+90625000000+90625000000+90312500000+90312500000
1947+90000000000+89687500000+89062500000+87500000000+84687500000+73125000000
1916+51875000000+52500000000+75625000000+81562500000+81562500000+77187500000
1884+69375000000+60937500000+52187500000+51250000000+43750000000+37812500000
1853+29687500000+24375000000+38437500000+62500000000+72187500000+79687500000
1821+82500000000+83437500000+83750000000+83750000000+83750000000+83437500000
1789+83437500000+82187500000+80000000000+76250000000+64375000000+52812500000
1758+54375000000+62812500000+60000000000+49687499999+46562499999+48437500000
1726+54062500000+55000000000+61875000000+54062500000+50625000000+46250000000
1695+40937500000+34062500000+28750000000+28750000000+36562500000+36250000000
1663+25312500000+15625000000+13125000000+14375000000+24375000000+35000000000
1632+42812500000+37500000000+24375000000+23750000000+26250000000+23750000000
1600+23437500000+25000000000+31562500000+34375000000+32500000000+35312500000
1568+45625000000+52500000000+54375000000+58125000000+67187500000+71250000000
1537+71875000000+68750000000+62812500000+53437500000+34062500000+15937500000
1505+14375000000+18437500000+26250000000+18125000000+11875000000+9687500000
1474+7500000000+5000000000+4687500000+6875000000+14375000000+23437500000
1442+28125000000+25000000000+25000000000+39375000000+56562500000+66250000000
1411+73750000000+77500000000+79375000000+80625000000+80312500000+76875000000
1379+73125000000+72500000000+66562500000+56250000000+55937500000+60625000000
1347+73750000000+68750000000+65312500000+67812500000+69062500000+70625000000
1316+80312500000+82500000000+82812500000+84062500000+82812500000+75000000000
1284+60000000000+56562500000+62500000000+72500000000+69062500000+57812500000
1253+43750000000+34062500000+33125000000+37187499999+43750000000+41562500000
1221+33125000000+30312500000+30312500000+32187500000+31562500000+32500000000
1189+43750000000+59062500000+60312500000+51562500000+50937500000+55312500000
1158+67187500000+78750000000+84375000000+85625000000+86875000000+87187500000
1126+84375000000+80000000000+70625000000+70000000000+73437500000+79062500000
1095+83437500000+87187500000+89375000000+90000000000+90000000000+86875000000
1063+80312500000+79062500000+79062500000+70000000000+64062500000+62500000000
1032+66562500000+79062500000+79687500000+83750000000+80937500000+77500000000
1000+77812500000+82812500000+88125000000+90312500000+91875000000+92187500000
968+92187500000+91875000000+91875000000+91562500000+91250000000+90937500000
937+90312500000+89062500000+86562500000+78750000000+68125000000+42187500000
905+23125000000+22812500000+38125000000+70000000000+83750000000+88437500000
874+89687500000+90312500000+90000000000+86562500000+81875000000+82187500000
842+84687500000+75937500000+57812500000+49062500000+48750000000+55937500000
811+68125000000+75625000000+70000000000+57187500000+43125000000+43750000000
779+65625000000+82500000000+85937500000+87500000000+90000000000+92187500000
747+93437500000+93437500000+93750000000+94062500000+94375000000+94375000000
716+94375000000+94062500000+93125000000+89062500000+90937500000+94687500000
684+93125000000+91562500000+91250000000+90000000000+81562500000+73750000000
653+74062500000+85625000000+89375000000+90937500000+91250000000+90312500000
621+87187500000+72187500000+67812500000+75937500000+86562500000+90937500000
589+93125000000+94375000000+94375000000+93750000000+92500000000+90312500000
558+84062500000+77500000000+77812500000+84062500000+83750000000+76250000000
526+71250000000+69687500000+69687500000+70937500000+72187500000+73437500000
495+75937500000+79062500000+81875000000+84375000000+86250000000+88125000000
463+89375000000+90000000000+90000000000+90000000000+89687500000+88750000000
432+87500000000+84687500000+81875000000+78125000000+74687500000+71875000000
400+70937500000
##END=
