##TITLE=(1,2-dibromoethyl)benzene
##JCAMP-DX=4.24
##DATA TYPE=INFRARED SPECTRUM
##DATE=10/06/2025
##SAMPLING PROCEDURE=ATR
##ORIGIN=SDBS
##XUNITS=1/CM
##YUNITS=TRANSMITTANCE
##RESOLUTION=5.2631578947368425
##FIRSTX=4000.0
##LASTX=400.0
##DELTAX=-5.2631578947368425
##MAXY=94.6875
##MINY=0.0
##XFACTOR=1
##YFACTOR=1
##NPOINTS=685
##FIRSTY=0.0
##XYDATA=(X++(Y..Y))
4000+0+69687500000+69687500000+70000000000+70312500000+70312500000
3968+70312500000+70312500000+70625000000+70937500000+70625000000+70625000000
3937+70000000000+69687500000+69687500000+69687500000+70000000000+70000000000
3905+70000000000+69687500000+69687500000+69687500000+69687500000+69375000000
3874+69375000000+69375000000+69375000000+69062500000+68750000000+68437500000
3842+68437500000+68125000000+68125000000+68125000000+68125000000+68437500000
3811+68750000000+68437500000+68125000000+67500000000+67500000000+67500000000
3779+67812500000+68125000000+67500000000+66875000000+66562500000+66250000000
3747+66250000000+66250000000+66250000000+66250000000+66562500000+66875000000
3716+66875000000+66875000000+66875000000+66875000000+67187500000+66875000000
3684+66562500000+66250000000+66250000000+65937500000+65937500000+65937500000
3653+65937500000+65625000000+65312500000+65000000000+64687500000+64687500000
3621+64375000000+64062500000+63750000000+63750000000+63437500000+63437500000
3589+63437500000+63437500000+63437500000+63437500000+63437500000+63437500000
3558+63437500000+63125000000+63125000000+63125000000+63125000000+63125000000
3526+63125000000+63125000000+62812500000+62812500000+62500000000+62500000000
3495+62500000000+62500000000+62500000000+62500000000+62500000000+62500000000
3463+62187500000+62187500000+62187500000+61875000000+61875000000+61562500000
3432+61250000000+61250000000+61250000000+61562500000+61562500000+61875000000
3400+61875000000+61875000000+61875000000+61875000000+61562500000+61250000000
3368+60937500000+60000000000+58750000000+57812500000+57500000000+57187500000
3337+55625000000+52812500000+50937500000+50312500000+47812500000+44687500000
3305+39375000000+32500000000+22187500000+14687500000+9062500000+7187500000
3274+6875000000+7812500000+6250000000+5000000000+4687500000+5000000000
3242+6875000000+9375000000+11562500000+13437500000+13437500000+12187500000
3211+10937500000+9375000000+9687500000+16250000000+30625000000+43750000000
3179+52500000000+58125000000+62500000000+64687500000+66875000000+68750000000
3147+70937500000+72187500000+72500000000+72187500000+71562500000+70625000000
3116+70312500000+70312500000+70937500000+71562500000+71875000000+71562500000
3084+71250000000+71250000000+71250000000+71562500000+72187500000+72500000000
3053+73125000000+73437500000+73750000000+74062500000+74687500000+75000000000
3021+75625000000+75937500000+76562500000+76875000000+77500000000+78125000000
2989+78437500000+78750000000+79062500000+79375000000+79375000000+79375000000
2958+79687500000+79687500000+80000000000+80312500000+80625000000+80625000000
2926+80937500000+80937500000+80625000000+80625000000+80937500000+80937500000
2895+80937500000+80937500000+80937500000+81250000000+81250000000+81250000000
2863+81250000000+81250000000+81250000000+81250000000+81250000000+81562500000
2832+81562500000+81562500000+81562500000+81875000000+81875000000+81875000000
2800+82187500000+82187500000+82187500000+82500000000+82500000000+82500000000
2768+82812500000+82812500000+82812500000+83125000000+83125000000+83125000000
2737+83437500000+83750000000+83437500000+83437500000+83437500000+83750000000
2705+83750000000+84062500000+84062500000+84062500000+84375000000+84375000000
2674+84375000000+84062500000+84062500000+84062500000+84062500000+84062500000
2642+84062500000+84375000000+84375000000+84687500000+84687500000+84687500000
2611+85000000000+85000000000+85000000000+85000000000+85000000000+85000000000
2579+84687500000+84062500000+83750000000+83750000000+83437500000+83437500000
2547+83437500000+83750000000+83750000000+84062500000+84062500000+84375000000
2516+84687500000+84687500000+85000000000+85000000000+85312500000+85000000000
2484+84687500000+84687500000+84375000000+84375000000+84375000000+84375000000
2453+84375000000+84687500000+84687500000+85000000000+85000000000+85312500000
2421+85625000000+85937500000+85937500000+86250000000+86250000000+86250000000
2389+86250000000+86250000000+86250000000+86250000000+86250000000+86250000000
2358+86250000000+86250000000+86250000000+86250000000+86250000000+86250000000
2326+86250000000+86562500000+86250000000+86250000000+86250000000+85937500000
2295+85937500000+85625000000+85625000000+85625000000+85625000000+85625000000
2263+85625000000+85937500000+85937500000+85937500000+85937500000+85937500000
2232+85937500000+85937500000+85937500000+85625000000+85625000000+85625000000
2200+85312500000+85312500000+85000000000+85000000000+85000000000+84687500000
2168+84687500000+84687500000+84687500000+84687500000+84687500000+84687500000
2137+85000000000+85000000000+85000000000+85312500000+85312500000+85312500000
2105+85312500000+85000000000+85000000000+84687500000+84687500000+84687500000
2074+84687500000+84687500000+84687500000+84687500000+84687500000+84687500000
2042+85000000000+85000000000+85312500000+85625000000+85625000000+85625000000
2011+85625000000+85312500000+85000000000+85000000000+85000000000+84687500000
1979+84687500000+84687500000+84687500000+84375000000+84062500000+83437500000
1947+82187500000+81250000000+80937500000+80937500000+81250000000+79375000000
1916+70625000000+70937500000+73437500000+70937500000+67187500000+60625000000
1884+49375000000+35312500000+27500000000+27187500000+23437500000+18437500000
1853+19375000000+31562500000+38125000000+44375000000+49062500000+52500000000
1821+58125000000+66562500000+72812500000+75312500000+76562500000+77500000000
1789+78125000000+77500000000+76250000000+74375000000+69687500000+58437500000
1758+50000000000+40625000000+39375000000+43125000000+56250000000+55937500000
1726+58750000000+65000000000+68750000000+70937500000+72812500000+74062500000
1695+75000000000+76875000000+78125000000+79062500000+79687500000+79375000000
1663+78125000000+76562500000+76562500000+76875000000+76875000000+77187500000
1632+77500000000+77812500000+78437500000+79687500000+80625000000+81250000000
1600+81250000000+81562500000+81875000000+82187500000+82187500000+82500000000
1568+82812500000+82812500000+77500000000+73437500000+70625000000+70625000000
1537+75937500000+81562500000+83437500000+84062500000+84375000000+79375000000
1505+76562500000+73437500000+73750000000+80312500000+82187500000+82812500000
1474+82500000000+82187500000+81875000000+81562500000+77500000000+70937500000
1442+68125000000+68750000000+72812500000+79062500000+76250000000+66875000000
1411+64687500000+66250000000+74375000000+79062500000+80937500000+81875000000
1379+82500000000+82812500000+83437500000+83750000000+84062500000+84062500000
1347+83750000000+82187500000+77812500000+77187500000+78125000000+79687500000
1316+81875000000+82500000000+83125000000+83437500000+83437500000+83437500000
1284+83437500000+83437500000+83437500000+83437500000+83750000000+83750000000
1253+83750000000+84062500000+84062500000+84375000000+85000000000+85312500000
1221+85937500000+86562500000+86875000000+87187500000+87187500000+87500000000
1189+87812500000+88125000000+88437500000+88750000000+89062500000+89062500000
1158+89375000000+89687500000+89687500000+90000000000+90312500000+90625000000
1126+90625000000+90312500000+89687500000+87812500000+84687500000+77500000000
1095+77500000000+84375000000+89375000000+90312500000+90625000000+90937500000
1063+91250000000+91250000000+91562500000+91562500000+91875000000+92187500000
1032+92500000000+92812500000+93125000000+93437500000+93750000000+93750000000
1000+93750000000+93437500000+93437500000+93437500000+93437500000+93437500000
968+93437500000+93750000000+93750000000+93750000000+93437500000+93125000000
937+92812500000+92187500000+91250000000+90000000000+81875000000+60312500000
905+56250000000+65937500000+79062500000+87187500000+90312500000+91562500000
874+90937500000+89375000000+88125000000+87187500000+85625000000+81250000000
842+76562500000+76562500000+81250000000+86562500000+85937500000+79375000000
811+67500000000+47812500000+37187499999+37812500000+60000000000+77500000000
779+81562500000+82500000000+81562500000+79687500000+79062500000+79687500000
747+88437500000+90937500000+91562500000+91875000000+92500000000+93125000000
716+93437500000+93125000000+90937500000+89062500000+89062500000+86250000000
684+77812500000+62812500000+56875000000+52187500000+46562499999+44999999999
653+45312500000+51562500000+59062500000+67500000000+74062500000+77500000000
621+80625000000+80312500000+78750000000+79062500000+85625000000+90000000000
589+91875000000+93125000000+94062500000+94687500000+94062500000+93437500000
558+92187500000+90937500000+90000000000+89375000000+89062500000+89062500000
526+89062500000+89062500000+89375000000+89687500000+90625000000+91250000000
495+92187500000+93125000000+94062500000+94687500000+94062500000+92812500000
463+91562500000+89375000000+87500000000+85937500000+85000000000+83750000000
432+82500000000+80937500000+79687500000+78125000000+76562500000+75625000000
400+75312500000
##END=
