##TITLE=(3R-(3alpha,4alpha,5beta))-3,4,5-trihydroxy-1-cyclohexene-1-carboxylic acid
##JCAMP-DX=4.24
##DATA TYPE=INFRARED SPECTRUM
##DATE=10/06/2025
##SAMPLING PROCEDURE=ATR
##ORIGIN=SDBS
##XUNITS=1/CM
##YUNITS=TRANSMITTANCE
##RESOLUTION=5.2631578947368425
##FIRSTX=4000.0
##LASTX=400.0
##DELTAX=-5.2631578947368425
##MAXY=94.6875
##MINY=0.0
##XFACTOR=1
##YFACTOR=1
##NPOINTS=685
##FIRSTY=0.0
##XYDATA=(X++(Y..Y))
4000+0+94687500000+94687500000+94687500000+94375000000+94062500000
3968+94062500000+94062500000+94375000000+94375000000+94375000000+94375000000
3937+94687500000+94687500000+94375000000+94375000000+94062500000+94062500000
3905+94062500000+94062500000+94375000000+94375000000+94062500000+94062500000
3874+94062500000+93750000000+93437500000+93437500000+93437500000+93437500000
3842+93750000000+93750000000+93437500000+93437500000+93437500000+93125000000
3811+92812500000+92812500000+92812500000+92812500000+92812500000+92500000000
3779+92500000000+92187500000+91875000000+91562500000+91250000000+90937500000
3747+90625000000+90000000000+89375000000+88750000000+88125000000+86875000000
3716+85625000000+84375000000+83125000000+81250000000+79062500000+77500000000
3684+75312500000+71875000000+68125000000+64687500000+59375000000+51875000000
3653+39687500000+22187500000+5000000000+4687500000+18750000000+41562500000
3621+50312500000+50312500000+47812500000+45625000000+42812500000+38749999999
3589+34062500000+27187500000+19062500000+15625000000+15625000000+20937500000
3558+29062500000+35937500000+40000000000+42187500000+43750000000+44687500000
3526+44999999999+45312500000+44999999999+44687500000+44375000000+44062500000
3495+43437499999+41874999999+39687500000+36875000000+32812500000+28125000000
3463+25625000000+25312500000+26562500000+31250000000+36875000000+43125000000
3432+47187500000+50625000000+53437500000+55312500000+56250000000+58125000000
3400+58750000000+59375000000+60000000000+60937500000+62187500000+62812500000
3368+63437500000+63750000000+63750000000+63437500000+63125000000+62187500000
3337+60000000000+60312500000+60312500000+60000000000+58750000000+57812500000
3305+57187500000+55937500000+55625000000+54687500000+52187500000+52500000000
3274+47812500000+49375000000+49687499999+51875000000+51250000000+50625000000
3242+44687500000+44375000000+47187500000+42500000000+42500000000+44999999999
3211+46875000000+47500000000+47812500000+48124999999+49062500000+50312500000
3179+52187500000+53125000000+54687500000+56250000000+57500000000+59062500000
3147+60312500000+62187500000+62500000000+63750000000+64375000000+64687500000
3116+65625000000+66250000000+67500000000+68437500000+67500000000+65625000000
3084+63125000000+61875000000+60312500000+60625000000+61250000000+61875000000
3053+62187500000+62812500000+64062500000+64375000000+65937500000+68437500000
3021+69375000000+70000000000+71875000000+73125000000+74062500000+74375000000
2989+73125000000+68437500000+66875000000+66562500000+67187500000+68750000000
2958+71250000000+73750000000+76250000000+78125000000+79062500000+80625000000
2926+81562500000+82812500000+83750000000+84687500000+85000000000+85625000000
2895+85937500000+86250000000+86562500000+87187500000+87500000000+87812500000
2863+88437500000+88750000000+89062500000+89375000000+89687500000+90312500000
2832+90625000000+90937500000+90937500000+91250000000+91562500000+91875000000
2800+92187500000+92500000000+92812500000+92812500000+93125000000+93437500000
2768+93750000000+93750000000+93750000000+93750000000+93750000000+93437500000
2737+93437500000+93437500000+93437500000+93750000000+93750000000+94062500000
2705+94062500000+94375000000+94375000000+94687500000+94687500000+94687500000
2674+94687500000+94687500000+94687500000+94375000000+94375000000+94062500000
2642+94062500000+94062500000+93750000000+93125000000+91875000000+91875000000
2611+92187500000+92812500000+92812500000+93437500000+93437500000+93437500000
2579+93437500000+93437500000+93437500000+93437500000+93437500000+93437500000
2547+93437500000+93437500000+93437500000+93437500000+93125000000+93125000000
2516+93125000000+92812500000+92812500000+92500000000+92187500000+92187500000
2484+92187500000+92187500000+92187500000+92187500000+91875000000+91875000000
2453+91875000000+91875000000+91562500000+91562500000+91562500000+91250000000
2421+90937500000+90937500000+90625000000+90312500000+90312500000+89687500000
2389+89375000000+89062500000+89062500000+89062500000+89062500000+89062500000
2358+89062500000+89062500000+89062500000+89687500000+90625000000+91250000000
2326+91562500000+91875000000+91875000000+91875000000+91562500000+90937500000
2295+90625000000+90312500000+90312500000+90312500000+90312500000+90312500000
2263+90312500000+90000000000+89375000000+88750000000+87187500000+85000000000
2232+82500000000+80000000000+77812500000+74375000000+70937500000+66250000000
2200+59062500000+49687499999+39375000000+26875000000+14687500000+8750000000
2168+8437500000+10625000000+22812500000+39062500000+55312500000+64687500000
2137+64687500000+40937500000+22187500000+22500000000+32812500000+50312500000
2105+62500000000+68437500000+72500000000+75312500000+78125000000+80625000000
2074+82500000000+85312500000+87812500000+89375000000+90625000000+91562500000
2042+92187500000+92500000000+93125000000+93125000000+93437500000+93750000000
2011+93750000000+94062500000+94062500000+94375000000+94375000000+94062500000
1979+94062500000+93437500000+93125000000+92812500000+92187500000+90937500000
1947+90000000000+88437500000+87500000000+85937500000+85000000000+84687500000
1916+84375000000+84062500000+83125000000+81562500000+79687500000+75937500000
1884+70937500000+64375000000+54062500000+42500000000+33125000000+28437500000
1853+28125000000+30000000000+31562500000+32812500000+43125000000+45625000000
1821+50312500000+56250000000+64375000000+70937500000+75312500000+76875000000
1789+77187500000+78125000000+76875000000+72812500000+62187500000+52187500000
1758+52500000000+64062500000+73750000000+79687500000+81250000000+80625000000
1726+78750000000+73125000000+68750000000+69062500000+70000000000+73437500000
1695+81875000000+81250000000+77187500000+73125000000+70625000000+64687500000
1663+61562500000+59375000000+55312500000+46562499999+31250000000+17187500000
1632+15937500000+19687500000+25625000000+22187500000+12500000000+13125000000
1600+23125000000+24375000000+37187499999+49687499999+56562500000+62500000000
1568+62187500000+55625000000+51250000000+51250000000+59062500000+66875000000
1537+71250000000+74687500000+76562500000+78125000000+79062500000+80312500000
1505+81250000000+82500000000+81875000000+78437500000+78437500000+82187500000
1474+85000000000+86562500000+88125000000+89375000000+89687500000+90000000000
1442+89687500000+89375000000+88437500000+86875000000+84375000000+75312500000
1411+52187500000+51250000000+67812500000+74062500000+63437500000+57812500000
1379+59375000000+66875000000+60937500000+43125000000+27500000000+26562500000
1347+28125000000+47187500000+48124999999+25625000000+16875000000+16875000000
1316+29062500000+33125000000+33750000000+50625000000+61875000000+68125000000
1284+70312500000+57500000000+50937500000+55625000000+69375000000+57812500000
1253+37500000000+38437500000+63750000000+74687500000+81875000000+84687500000
1221+86875000000+88750000000+90000000000+90312500000+90312500000+90312500000
1189+90000000000+89687500000+88437500000+86875000000+84375000000+80312500000
1158+74687500000+68125000000+63750000000+60937500000+48124999999+35625000000
1126+36875000000+45625000000+56562500000+67812500000+76250000000+80000000000
1095+80312500000+81562500000+84375000000+85625000000+86562500000+87812500000
1063+89062500000+89375000000+87812500000+84687500000+76250000000+55000000000
1032+58125000000+81250000000+87500000000+90312500000+91875000000+89687500000
1000+83750000000+76562500000+74062500000+80312500000+88437500000+91562500000
968+93437500000+94062500000+94375000000+94687500000+94687500000+94687500000
937+94687500000+94687500000+94687500000+94687500000+94375000000+93750000000
905+92500000000+90625000000+85625000000+65625000000+58750000000+70312500000
874+58125000000+63125000000+57812500000+73125000000+86875000000+89687500000
842+91250000000+91250000000+90937500000+90312500000+88125000000+85937500000
811+83437500000+78750000000+72187500000+65312500000+56562500000+51562500000
779+50312500000+50937500000+56875000000+61562500000+62500000000+70937500000
747+75937500000+80312500000+83125000000+84062500000+84687500000+84375000000
716+84375000000+83750000000+85000000000+81562500000+74375000000+70937500000
684+58125000000+35000000000+35000000000+62500000000+75625000000+78750000000
653+75937500000+70000000000+62500000000+56250000000+55625000000+60625000000
621+69687500000+68125000000+63750000000+63125000000+63125000000+63750000000
589+65000000000+66562500000+68125000000+69687500000+71250000000+72812500000
558+74062500000+74375000000+73750000000+73125000000+73125000000+74687500000
526+74687500000+74375000000+74375000000+74687500000+75625000000+77500000000
495+79687500000+82187500000+84687500000+86562500000+88125000000+88125000000
463+87500000000+86250000000+85000000000+84375000000+84062500000+84062500000
432+84375000000+85312500000+86562500000+87812500000+89062500000+90625000000
400+91250000000
##END=
