##TITLE=(o-nitrophenyl)hydrazine monohydrochloride
##JCAMP-DX=4.24
##DATA TYPE=INFRARED SPECTRUM
##DATE=10/06/2025
##SAMPLING PROCEDURE=ATR
##ORIGIN=SDBS
##XUNITS=1/CM
##YUNITS=TRANSMITTANCE
##RESOLUTION=5.2631578947368425
##FIRSTX=4000.0
##LASTX=400.0
##DELTAX=-5.2631578947368425
##MAXY=95.0
##MINY=0.0
##XFACTOR=1
##YFACTOR=1
##NPOINTS=685
##FIRSTY=0.0
##XYDATA=(X++(Y..Y))
4000+0+86562500000+86562500000+86562500000+86875000000+86875000000
3968+86875000000+86875000000+86875000000+86875000000+87187500000+87187500000
3937+87187500000+87187500000+87187500000+87187500000+87500000000+87500000000
3905+87500000000+87500000000+87500000000+87500000000+87500000000+87500000000
3874+87500000000+87500000000+87812500000+87812500000+87812500000+87812500000
3842+87812500000+88125000000+88125000000+88125000000+88125000000+88125000000
3811+87812500000+87812500000+87812500000+87812500000+87812500000+87812500000
3779+87500000000+87500000000+87187500000+86875000000+86250000000+85937500000
3747+85625000000+85000000000+84687500000+84375000000+84062500000+83750000000
3716+83750000000+83437500000+83437500000+83437500000+83125000000+83125000000
3684+82812500000+82500000000+82500000000+82187500000+82187500000+81875000000
3653+81562500000+81562500000+81562500000+81250000000+81250000000+81250000000
3621+81250000000+81250000000+81250000000+81250000000+81250000000+81250000000
3589+81250000000+81250000000+80937500000+80312500000+79375000000+78750000000
3558+77187500000+70937500000+58125000000+46250000000+33437500000+34375000000
3526+51875000000+66562500000+71875000000+74687500000+75937500000+76875000000
3495+77812500000+79062500000+79687500000+80312500000+80937500000+81250000000
3463+81562500000+81875000000+81875000000+81875000000+81562500000+81250000000
3432+80625000000+79375000000+78125000000+77187500000+75937500000+75000000000
3400+74062500000+73750000000+73125000000+71875000000+70625000000+70000000000
3368+69062500000+68437500000+67500000000+66562500000+64687500000+61875000000
3337+59062500000+56250000000+52500000000+48124999999+42812500000+38749999999
3305+34375000000+31562500000+30000000000+27187500000+24375000000+24375000000
3274+25000000000+26562500000+28750000000+30937500000+33125000000+33750000000
3242+35625000000+37500000000+38749999999+38749999999+37500000000+35312500000
3211+34375000000+34375000000+35000000000+37187499999+40000000000+42187500000
3179+44687500000+47187500000+49687499999+51562500000+53437500000+54375000000
3147+55312500000+56562500000+59375000000+57812500000+55312500000+54687500000
3116+54375000000+54687500000+57500000000+59375000000+57812500000+56562500000
3084+52187500000+46250000000+46250000000+50000000000+50937500000+50625000000
3053+51250000000+55937500000+58750000000+62187500000+66875000000+69062500000
3021+71250000000+72187500000+74375000000+75937500000+77187500000+78125000000
2989+78437500000+79375000000+80312500000+80937500000+81562500000+82187500000
2958+82812500000+82812500000+82812500000+83750000000+84687500000+85000000000
2926+85625000000+85625000000+85937500000+85937500000+85937500000+86250000000
2895+86250000000+86250000000+86250000000+86250000000+86562500000+86875000000
2863+87187500000+87187500000+87500000000+87812500000+88125000000+88437500000
2832+88750000000+89062500000+89375000000+89687500000+89687500000+90000000000
2800+90000000000+90000000000+90000000000+90312500000+90312500000+90625000000
2768+90937500000+90937500000+90937500000+91250000000+91250000000+91250000000
2737+91562500000+91562500000+91562500000+91562500000+91562500000+91562500000
2705+91875000000+91875000000+91875000000+92187500000+92187500000+92187500000
2674+92187500000+92187500000+92500000000+92500000000+92187500000+91875000000
2642+90937500000+90000000000+89062500000+88125000000+87500000000+86875000000
2611+85625000000+84375000000+84062500000+83750000000+83437500000+83125000000
2579+83125000000+83750000000+84375000000+84687500000+84375000000+84375000000
2547+85312500000+87187500000+88125000000+89062500000+89687500000+90312500000
2516+90312500000+90000000000+90000000000+90937500000+91562500000+91875000000
2484+92187500000+92187500000+92187500000+92500000000+92500000000+92812500000
2453+92812500000+92812500000+93125000000+93125000000+93125000000+93125000000
2421+93125000000+93125000000+93125000000+93125000000+93125000000+93125000000
2389+93437500000+93437500000+93750000000+93437500000+93437500000+92500000000
2358+91250000000+91250000000+91562500000+93125000000+93750000000+94062500000
2326+94062500000+94062500000+94062500000+94062500000+94375000000+94375000000
2295+94375000000+94375000000+94375000000+94062500000+94062500000+93750000000
2263+93750000000+93750000000+93750000000+93750000000+93750000000+93437500000
2232+93437500000+93125000000+93125000000+93125000000+93125000000+93125000000
2200+93125000000+93437500000+93437500000+93437500000+93437500000+93125000000
2168+93125000000+92812500000+92500000000+92187500000+91875000000+91250000000
2137+90625000000+90000000000+89375000000+89062500000+88125000000+86250000000
2105+84375000000+81562500000+75937500000+64375000000+42812500000+17812500000
2074+17187500000+30312500000+55312500000+67500000000+72812500000+75937500000
2042+72812500000+61875000000+28750000000+27187500000+49687499999+66875000000
2011+75312500000+78437500000+77812500000+76250000000+75625000000+76250000000
1979+73437500000+64062500000+38749999999+15312500000+15312500000+25625000000
1947+21562500000+20312500000+33437500000+55625000000+63750000000+63437500000
1916+55937500000+50937500000+50937500000+40312499999+22187500000+20937500000
1884+40312499999+65312500000+75000000000+80625000000+83750000000+85312500000
1853+83437500000+66250000000+56562500000+68750000000+80625000000+84687500000
1821+86562500000+87500000000+87812500000+86250000000+80000000000+66562500000
1789+58437500000+60312500000+75000000000+83125000000+85312500000+86875000000
1758+84687500000+81875000000+81562500000+82500000000+85937500000+87187500000
1726+85937500000+83125000000+78750000000+71250000000+51875000000+16250000000
1695+4687500000+6562500000+35000000000+41874999999+34687500000+48437500000
1663+66250000000+74062500000+75000000000+75625000000+79375000000+75937500000
1632+53750000000+26250000000+25625000000+42500000000+57812500000+63750000000
1600+67812500000+74687500000+79687500000+82812500000+84375000000+85937500000
1568+86562500000+85625000000+83125000000+75625000000+61875000000+58750000000
1537+61250000000+72500000000+72812500000+65625000000+52812500000+38749999999
1505+32500000000+35312500000+53750000000+69062500000+75000000000+74687500000
1474+72500000000+71250000000+71562500000+74062500000+75000000000+69687500000
1442+63437500000+63437500000+70937500000+55625000000+57187500000+75000000000
1411+82812500000+85312500000+86250000000+86250000000+86250000000+86250000000
1379+87187500000+87812500000+87500000000+87812500000+88125000000+88437500000
1347+89375000000+89687500000+90312500000+90312500000+89062500000+84375000000
1316+75312500000+70312500000+71250000000+78125000000+77500000000+72812500000
1284+73750000000+82500000000+86562500000+88437500000+89375000000+90000000000
1253+90312500000+90625000000+90937500000+91250000000+91250000000+91562500000
1221+91875000000+92187500000+92187500000+92500000000+92812500000+92812500000
1189+93125000000+93125000000+93437500000+93437500000+93437500000+93437500000
1158+93750000000+93750000000+93750000000+94062500000+94062500000+94062500000
1126+94062500000+94062500000+94375000000+94375000000+94375000000+94375000000
1095+94375000000+94375000000+94687500000+94687500000+94687500000+95000000000
1063+94687500000+94687500000+94062500000+91875000000+80312500000+52500000000
1032+57187500000+81250000000+88437500000+90625000000+91875000000+92812500000
1000+93125000000+93437500000+93437500000+92812500000+91562500000+90312500000
968+89687500000+89375000000+89375000000+89375000000+89687500000+89375000000
937+88437500000+81562500000+41874999999+41874999999+78437500000+88437500000
905+90312500000+90937500000+90625000000+89687500000+86875000000+76875000000
874+25312500000+17187500000+56562500000+82500000000+87500000000+89375000000
842+90312500000+90937500000+91250000000+91562500000+91875000000+91875000000
811+92187500000+91875000000+90625000000+85625000000+84062500000+82812500000
779+77812500000+77812500000+80625000000+83750000000+85625000000+86562500000
747+87187500000+87500000000+87500000000+87812500000+87812500000+87812500000
716+88125000000+88437500000+89062500000+89687500000+90625000000+90937500000
684+90937500000+90937500000+90625000000+90312500000+90000000000+89687500000
653+89375000000+89375000000+89375000000+89062500000+89062500000+88437500000
621+88125000000+87500000000+87187500000+86875000000+86250000000+85625000000
589+84687500000+82812500000+80625000000+80625000000+82187500000+83437500000
558+84062500000+85625000000+86250000000+86875000000+87187500000+87500000000
526+87500000000+87187500000+87187500000+86875000000+86875000000+86875000000
495+86562500000+86562500000+86250000000+86250000000+86250000000+86250000000
463+86250000000+85937500000+85625000000+84687500000+83750000000+82500000000
432+81250000000+80625000000+80000000000+80000000000+80000000000+80000000000
400+80312500000
##END=
