##TITLE=1,1'-(1,8-naphthylene)bis(1H-1,2,3-triazole-4,5-dicarboxylic acid) tetra-tert-butyl ester
##JCAMP-DX=4.24
##DATA TYPE=INFRARED SPECTRUM
##DATE=10/06/2025
##SAMPLING PROCEDURE=ATR
##ORIGIN=SDBS
##XUNITS=1/CM
##YUNITS=TRANSMITTANCE
##RESOLUTION=5.2631578947368425
##FIRSTX=4000.0
##LASTX=400.0
##DELTAX=-5.2631578947368425
##MAXY=94.6875
##MINY=0.0
##XFACTOR=1
##YFACTOR=1
##NPOINTS=685
##FIRSTY=0.0
##XYDATA=(X++(Y..Y))
4000+0+93125000000+93437500000+93437500000+93437500000+93437500000
3968+93437500000+93750000000+93750000000+93750000000+93750000000+93750000000
3937+93750000000+93750000000+93437500000+93437500000+93437500000+93750000000
3905+93437500000+93437500000+93437500000+93437500000+93437500000+93437500000
3874+93437500000+93437500000+93437500000+93437500000+93125000000+93125000000
3842+93125000000+93125000000+93125000000+93125000000+93125000000+93125000000
3811+93437500000+93437500000+93437500000+93437500000+93437500000+93437500000
3779+93437500000+93437500000+93437500000+93437500000+93437500000+93125000000
3747+93125000000+93125000000+93125000000+93125000000+93125000000+93125000000
3716+93125000000+93125000000+93125000000+93125000000+92812500000+92812500000
3684+92500000000+92500000000+92187500000+91875000000+91875000000+91562500000
3653+91562500000+91250000000+91250000000+90937500000+90625000000+90312500000
3621+89687500000+88750000000+88125000000+88437500000+88750000000+89375000000
3589+89687500000+90000000000+90000000000+90000000000+90000000000+89687500000
3558+89687500000+89687500000+89687500000+89687500000+89687500000+89375000000
3526+89375000000+89062500000+89062500000+88750000000+88437500000+88125000000
3495+87812500000+87812500000+87812500000+87812500000+87812500000+87812500000
3463+88125000000+88125000000+88437500000+88437500000+88750000000+89062500000
3432+89062500000+89687500000+90000000000+90312500000+90625000000+90625000000
3400+91250000000+91562500000+91562500000+92187500000+92500000000+91875000000
3368+92812500000+92812500000+92500000000+92812500000+92812500000+92812500000
3337+92812500000+93437500000+91875000000+90625000000+84062500000+78750000000
3305+76875000000+65937500000+59687500000+60625000000+69375000000+81562500000
3274+85625000000+82187500000+77812500000+78125000000+82812500000+84062500000
3242+85937500000+87187500000+88125000000+88750000000+89062500000+89062500000
3211+90312500000+91875000000+92500000000+93437500000+94062500000+94062500000
3179+94062500000+94062500000+94062500000+94375000000+94375000000+94687500000
3147+94687500000+94687500000+94687500000+94687500000+94375000000+94375000000
3116+94062500000+94062500000+94375000000+94375000000+94062500000+94062500000
3084+94375000000+94375000000+94062500000+94062500000+94062500000+93750000000
3053+93437500000+93437500000+93437500000+93437500000+93437500000+93437500000
3021+93437500000+93437500000+93437500000+93437500000+93125000000+93125000000
2989+93437500000+93437500000+93437500000+93125000000+93125000000+92812500000
2958+92812500000+92812500000+92812500000+92812500000+92812500000+92500000000
2926+92500000000+92500000000+92500000000+92500000000+92187500000+92187500000
2895+92187500000+92187500000+92187500000+92187500000+92187500000+91875000000
2863+91875000000+91562500000+91562500000+91562500000+91250000000+91250000000
2832+91250000000+90937500000+90937500000+90937500000+91250000000+91562500000
2800+91875000000+91875000000+91875000000+91875000000+91562500000+91562500000
2768+91562500000+91250000000+91250000000+91562500000+91562500000+91562500000
2737+91562500000+91250000000+91250000000+91250000000+91250000000+91250000000
2705+91250000000+91250000000+91250000000+91250000000+90937500000+90937500000
2674+90937500000+90937500000+90937500000+90937500000+90937500000+90937500000
2642+90937500000+90937500000+90937500000+90625000000+90625000000+90312500000
2611+90312500000+90312500000+90312500000+90312500000+90000000000+90000000000
2579+90000000000+90000000000+90000000000+90000000000+90000000000+90000000000
2547+90312500000+90312500000+90312500000+90312500000+90000000000+90000000000
2516+90000000000+90000000000+89687500000+89687500000+89687500000+89687500000
2484+89687500000+89687500000+89687500000+89687500000+89687500000+89687500000
2453+89687500000+89687500000+89375000000+89375000000+89062500000+88750000000
2421+88437500000+88125000000+88125000000+88125000000+88125000000+88125000000
2389+88125000000+88125000000+88125000000+88125000000+87812500000+87812500000
2358+87500000000+87500000000+87187500000+86875000000+86562500000+86250000000
2326+85625000000+85000000000+84062500000+83437500000+82187500000+80937500000
2295+79062500000+76875000000+73437500000+69375000000+65312500000+58750000000
2263+50625000000+40000000000+28750000000+13750000000+5625000000+4687500000
2232+5937500000+10937500000+19375000000+35937500000+50937500000+60625000000
2200+68125000000+72500000000+75937500000+78437500000+78437500000+79062500000
2168+82187500000+84062500000+85312500000+86562500000+87187500000+87812500000
2137+88125000000+88125000000+88437500000+88125000000+88125000000+88125000000
2105+88125000000+88125000000+87812500000+87812500000+87500000000+87187500000
2074+85937500000+81875000000+69375000000+69687500000+81250000000+83750000000
2042+85312500000+85312500000+82812500000+82812500000+83125000000+81250000000
2011+78125000000+72500000000+67187500000+64062500000+64375000000+67187500000
1979+71250000000+75000000000+79062500000+82500000000+84687500000+85312500000
1947+85312500000+84375000000+84062500000+84375000000+85312500000+85312500000
1916+85000000000+84687500000+82812500000+79687500000+74062500000+68750000000
1884+67812500000+70000000000+73750000000+65625000000+62500000000+58750000000
1853+48437500000+44062500000+45625000000+61562500000+72500000000+60312500000
1821+56875000000+60625000000+66875000000+71875000000+77500000000+80000000000
1789+78750000000+73125000000+57812500000+50625000000+50937500000+56562500000
1758+62187500000+62812500000+55625000000+43437499999+32500000000+32812500000
1726+61562500000+72187500000+73437500000+65312500000+62500000000+65000000000
1695+73125000000+80625000000+83125000000+84375000000+83750000000+82187500000
1663+79062500000+73437500000+65312500000+53125000000+36875000000+30937500000
1632+32812500000+50937500000+63750000000+72187500000+76562500000+75937500000
1600+70937500000+61875000000+53125000000+45312500000+35937500000+35625000000
1568+29375000000+29375000000+40625000000+41562500000+45312500000+61875000000
1537+70000000000+73750000000+70000000000+63125000000+54687500000+49687499999
1505+52187500000+64062500000+65312500000+61875000000+56875000000+52187500000
1474+46250000000+37812500000+30312500000+25312500000+20937500000+19062500000
1442+19062500000+22500000000+30000000000+44062500000+52187500000+51875000000
1411+60625000000+55625000000+40625000000+26250000000+27187500000+45312500000
1379+60937500000+67500000000+73125000000+75937500000+77187500000+72500000000
1347+67812500000+69375000000+76562500000+79375000000+80312500000+78125000000
1316+73125000000+58125000000+58437500000+71250000000+78125000000+79687500000
1284+77187500000+71875000000+70937500000+73125000000+80312500000+83125000000
1253+85000000000+86250000000+87187500000+88125000000+89375000000+89687500000
1221+89687500000+90000000000+90625000000+90625000000+91250000000+91562500000
1189+91562500000+86875000000+85000000000+89375000000+91250000000+91875000000
1158+92187500000+92187500000+92187500000+91875000000+91875000000+91562500000
1126+91562500000+91562500000+91562500000+91562500000+91562500000+91250000000
1095+90625000000+89687500000+86562500000+78125000000+79687500000+87500000000
1063+89062500000+89062500000+88437500000+87187500000+84375000000+79062500000
1032+79062500000+68750000000+56875000000+56562500000+61250000000+57187500000
1000+56562500000+48750000000+56250000000+67500000000+79375000000+82500000000
968+84062500000+84375000000+83437500000+79062500000+78437500000+83437500000
937+85937500000+87187500000+83750000000+81875000000+82500000000+72812500000
905+48750000000+51875000000+73125000000+72500000000+82187500000+87812500000
874+89062500000+89062500000+89375000000+90000000000+90312500000+90625000000
842+90937500000+90312500000+89687500000+89375000000+90625000000+90625000000
811+89062500000+80937500000+81875000000+89375000000+90000000000+90312500000
779+90312500000+90625000000+90937500000+90937500000+91250000000+91250000000
747+90937500000+90937500000+90625000000+90625000000+90625000000+90625000000
716+90625000000+90625000000+90937500000+91250000000+91562500000+91875000000
684+91875000000+91562500000+91562500000+91562500000+91562500000+91562500000
653+91250000000+90937500000+89687500000+87187500000+85312500000+84687500000
621+85000000000+86250000000+88437500000+90625000000+91562500000+92187500000
589+92812500000+92812500000+93125000000+93125000000+92812500000+92500000000
558+91875000000+91250000000+90937500000+90937500000+90937500000+90625000000
526+90000000000+89375000000+88125000000+87187500000+86562500000+86562500000
495+86562500000+86875000000+88125000000+89062500000+90312500000+91250000000
463+91562500000+90937500000+90000000000+89062500000+88125000000+87500000000
432+86875000000+86250000000+85937500000+85625000000+85625000000+85625000000
400+85625000000
##END=
