##TITLE=1,1,2-trichloroethane
##JCAMP-DX=4.24
##DATA TYPE=INFRARED SPECTRUM
##DATE=10/06/2025
##SAMPLING PROCEDURE=ATR
##ORIGIN=SDBS
##XUNITS=1/CM
##YUNITS=TRANSMITTANCE
##RESOLUTION=5.2631578947368425
##FIRSTX=4000.0
##LASTX=400.0
##DELTAX=-5.2631578947368425
##MAXY=95.0
##MINY=0.0
##XFACTOR=1
##YFACTOR=1
##NPOINTS=685
##FIRSTY=0.0
##XYDATA=(X++(Y..Y))
4000+0+92500000000+92500000000+92500000000+92187500000+91562500000
3968+91250000000+91250000000+91250000000+91562500000+91875000000+92500000000
3937+92812500000+92812500000+92812500000+92812500000+93125000000+93125000000
3905+93437500000+93437500000+93437500000+93437500000+93437500000+93437500000
3874+93125000000+92812500000+92500000000+92187500000+92187500000+92187500000
3842+92187500000+92187500000+92187500000+92187500000+92187500000+92187500000
3811+92500000000+92812500000+92500000000+91875000000+91562500000+91250000000
3779+90937500000+91250000000+91250000000+91562500000+91875000000+91875000000
3747+91875000000+91250000000+90937500000+90625000000+90625000000+90625000000
3716+90937500000+91250000000+91562500000+91875000000+92187500000+92187500000
3684+92187500000+92187500000+91875000000+91875000000+91875000000+91875000000
3653+91562500000+91562500000+91562500000+91250000000+91250000000+91250000000
3621+91250000000+91250000000+91250000000+91250000000+91250000000+91250000000
3589+91250000000+91250000000+91250000000+91250000000+91250000000+91562500000
3558+91562500000+91562500000+91875000000+91875000000+92187500000+92187500000
3526+92187500000+92500000000+92187500000+92187500000+92187500000+92187500000
3495+92500000000+92500000000+92812500000+92812500000+92812500000+92812500000
3463+92812500000+92812500000+92812500000+93125000000+93125000000+93125000000
3432+93125000000+93125000000+93125000000+93125000000+93125000000+92812500000
3400+92812500000+92500000000+92500000000+92187500000+91875000000+91562500000
3368+90625000000+90000000000+89375000000+88437500000+87187500000+85625000000
3337+83125000000+79687500000+71562500000+65000000000+65937500000+70937500000
3305+66562500000+67187500000+76250000000+73125000000+58125000000+53750000000
3274+61562500000+76562500000+82187500000+81562500000+81562500000+83125000000
3242+86562500000+88125000000+89375000000+90000000000+89687500000+89375000000
3211+88750000000+88437500000+85937500000+85000000000+90312500000+92187500000
3179+93437500000+94062500000+94375000000+94687500000+94687500000+94687500000
3147+94687500000+95000000000+94687500000+94375000000+94375000000+94062500000
3116+94062500000+94375000000+94375000000+94062500000+94062500000+94062500000
3084+94062500000+94375000000+94375000000+94375000000+94375000000+94375000000
3053+94062500000+94062500000+94062500000+93750000000+93437500000+93437500000
3021+93437500000+93125000000+93125000000+93125000000+93125000000+93125000000
2989+93125000000+92812500000+92187500000+91250000000+91250000000+91562500000
2958+92187500000+91875000000+91562500000+90937500000+90312500000+88437500000
2926+88437500000+90312500000+92187500000+91562500000+90625000000+89375000000
2895+89062500000+89062500000+90937500000+92500000000+92812500000+93125000000
2863+93125000000+93125000000+93125000000+93125000000+93437500000+93437500000
2832+93437500000+93750000000+93750000000+93750000000+93750000000+93750000000
2800+93750000000+93437500000+93437500000+93437500000+93437500000+93437500000
2768+93437500000+93437500000+93125000000+92812500000+92812500000+92812500000
2737+92812500000+93125000000+93125000000+93437500000+93437500000+93437500000
2705+93437500000+93437500000+93125000000+92812500000+91875000000+91562500000
2674+91562500000+91875000000+92187500000+92812500000+93125000000+93125000000
2642+92812500000+92812500000+92812500000+93125000000+93125000000+93125000000
2611+93125000000+92812500000+92812500000+92812500000+92500000000+92500000000
2579+92500000000+92812500000+92812500000+92812500000+92812500000+92812500000
2547+92812500000+92812500000+92812500000+92812500000+93125000000+93125000000
2516+93125000000+93125000000+93125000000+93125000000+93125000000+93125000000
2484+93437500000+93437500000+93437500000+93125000000+93125000000+93125000000
2453+93125000000+93125000000+93125000000+93125000000+93125000000+93437500000
2421+93437500000+93437500000+93437500000+93437500000+93750000000+93437500000
2389+93437500000+93125000000+92812500000+92812500000+92500000000+92500000000
2358+92812500000+92812500000+92812500000+93125000000+93125000000+93125000000
2326+93125000000+93125000000+93125000000+93125000000+93125000000+93125000000
2295+93125000000+93125000000+93125000000+93125000000+93125000000+93125000000
2263+92812500000+92812500000+92812500000+92500000000+92500000000+92187500000
2232+92187500000+92187500000+92187500000+92187500000+92187500000+92187500000
2200+92500000000+92500000000+92500000000+92812500000+92812500000+92812500000
2168+92812500000+92500000000+92500000000+92500000000+92187500000+92187500000
2137+92187500000+92187500000+92187500000+92187500000+92187500000+92187500000
2105+92187500000+92187500000+91875000000+91875000000+91562500000+91250000000
2074+91250000000+90937500000+90937500000+91250000000+91562500000+91875000000
2042+92187500000+92500000000+92812500000+93125000000+93125000000+93437500000
2011+93437500000+93437500000+93437500000+93437500000+93437500000+93750000000
1979+93750000000+94062500000+94062500000+93750000000+93750000000+93437500000
1947+93125000000+93125000000+92812500000+92500000000+92187500000+92187500000
1916+91875000000+91875000000+91562500000+91562500000+91250000000+90937500000
1884+90312500000+89062500000+86875000000+86250000000+85625000000+85000000000
1853+83750000000+81875000000+79687500000+76250000000+64375000000+29375000000
1821+14687500000+20000000000+42187500000+63125000000+78437500000+83437500000
1789+85937500000+87812500000+89062500000+89375000000+89687500000+89687500000
1758+90000000000+90000000000+90625000000+90937500000+91250000000+91562500000
1726+91562500000+91250000000+90937500000+90312500000+89062500000+87812500000
1695+86250000000+84687500000+82500000000+79687500000+77500000000+75937500000
1663+71562500000+58125000000+46250000000+45937500000+46250000000+54375000000
1632+71875000000+79687500000+82500000000+82187500000+79687500000+75625000000
1600+64687500000+39687500000+21875000000+22187500000+40312499999+64375000000
1568+71562500000+64062500000+51875000000+44687500000+47187500000+64062500000
1537+66250000000+60937500000+45625000000+25625000000+17187500000+18437500000
1505+42812500000+67500000000+76250000000+80000000000+81562500000+81875000000
1474+81875000000+83437500000+84375000000+80625000000+68750000000+59375000000
1442+60937500000+77812500000+84375000000+87812500000+90000000000+90937500000
1411+90937500000+91250000000+91250000000+91250000000+91562500000+91875000000
1379+91875000000+92187500000+92187500000+92187500000+91875000000+91562500000
1347+91250000000+90937500000+90625000000+90000000000+88750000000+86250000000
1316+81562500000+74062500000+69375000000+66875000000+66250000000+67187500000
1284+74375000000+81875000000+86562500000+89062500000+90000000000+88437500000
1253+85625000000+82187500000+75000000000+73750000000+78437500000+84687500000
1221+87812500000+88437500000+88437500000+87812500000+87187500000+86562500000
1189+85937500000+84687500000+82812500000+80312500000+77812500000+74687500000
1158+67500000000+49375000000+25312500000+23437500000+12812500000+12187500000
1126+18437500000+34687500000+49687499999+59375000000+66562500000+70625000000
1095+75312500000+80000000000+83437500000+86250000000+88437500000+90000000000
1063+90625000000+90937500000+90937500000+90937500000+90937500000+90625000000
1032+90000000000+89375000000+89062500000+88437500000+88125000000+87812500000
1000+87812500000+87500000000+87187500000+86562500000+85937500000+84687500000
968+83125000000+81875000000+79375000000+75625000000+70000000000+61250000000
937+46562499999+33437500000+30937500000+27500000000+21875000000+22187500000
905+30312500000+46250000000+57187500000+59375000000+52812500000+43125000000
874+29375000000+14687500000+6562500000+5000000000+4687500000+5000000000
842+7187500000+12812500000+21562500000+34062500000+36250000000+25312500000
811+24375000000+26875000000+37500000000+50625000000+57812500000+52500000000
779+38437500000+24687500000+17812500000+16250000000+17187500000+22812500000
747+32500000000+49062500000+59375000000+50312500000+49375000000+58125000000
716+77500000000+85625000000+88750000000+90625000000+91562500000+92187500000
684+92500000000+92500000000+92812500000+92812500000+92812500000+92812500000
653+93125000000+93125000000+93437500000+93437500000+93437500000+93437500000
621+93437500000+93125000000+93125000000+93125000000+92812500000+92187500000
589+91562500000+90312500000+85312500000+60625000000+43750000000+53125000000
558+82187500000+90625000000+92187500000+92812500000+93125000000+93437500000
526+93125000000+92812500000+92500000000+92187500000+92187500000+91875000000
495+91562500000+91562500000+91250000000+90937500000+90937500000+90937500000
463+90937500000+90625000000+90312500000+89687500000+89062500000+87812500000
432+86562500000+84687500000+83125000000+80937500000+78750000000+77187500000
400+76562500000
##END=
