##TITLE=1,13-tetradecadiene
##JCAMP-DX=4.24
##DATA TYPE=INFRARED SPECTRUM
##DATE=10/06/2025
##SAMPLING PROCEDURE=ATR
##ORIGIN=SDBS
##XUNITS=1/CM
##YUNITS=TRANSMITTANCE
##RESOLUTION=5.2631578947368425
##FIRSTX=4000.0
##LASTX=400.0
##DELTAX=-5.2631578947368425
##MAXY=95.0
##MINY=0.0
##XFACTOR=1
##YFACTOR=1
##NPOINTS=685
##FIRSTY=0.0
##XYDATA=(X++(Y..Y))
4000+0+89687500000+89375000000+89375000000+89375000000+89687500000
3968+89687500000+89687500000+89687500000+89687500000+89687500000+90000000000
3937+90000000000+90000000000+89687500000+89375000000+89375000000+89375000000
3905+89375000000+89687500000+89687500000+89375000000+89062500000+89062500000
3874+89062500000+89062500000+89062500000+89062500000+89062500000+89375000000
3842+89062500000+89062500000+88750000000+88750000000+88750000000+88750000000
3811+89062500000+89062500000+89062500000+88750000000+88437500000+88437500000
3779+88125000000+87812500000+87500000000+86875000000+86250000000+85937500000
3747+85625000000+85000000000+85000000000+85000000000+85000000000+85312500000
3716+85312500000+85625000000+85625000000+85625000000+85312500000+85312500000
3684+84687500000+83437500000+82500000000+81562500000+80937500000+80625000000
3653+80312500000+79375000000+78750000000+78437500000+77812500000+77187500000
3621+76250000000+75937500000+75312500000+75000000000+74687500000+74375000000
3589+74062500000+73750000000+73437500000+73125000000+72500000000+72500000000
3558+72187500000+72187500000+72187500000+71875000000+71875000000+71875000000
3526+71562500000+71250000000+71250000000+71250000000+71875000000+72500000000
3495+72500000000+73125000000+73437500000+74062500000+74687500000+75312500000
3463+76250000000+76562500000+76875000000+77500000000+77812500000+78125000000
3432+78437500000+79062500000+79375000000+79687500000+80000000000+80312500000
3400+80312500000+80000000000+80000000000+80000000000+77187500000+74062500000
3368+59687500000+40625000000+36875000000+44687500000+51875000000+63125000000
3337+70937500000+73750000000+72812500000+70000000000+62500000000+52500000000
3305+46250000000+46250000000+34062500000+29062500000+32500000000+31562500000
3274+24687500000+15000000000+7812500000+4687500000+4375000000+5312500000
3242+9062500000+12500000000+16562500000+20937500000+25312500000+20937500000
3211+11875000000+8125000000+8437500000+18750000000+32500000000+45312500000
3179+56250000000+63125000000+68125000000+70000000000+71875000000+75937500000
3147+78125000000+78750000000+79687500000+80312500000+80312500000+80312500000
3116+80625000000+80937500000+81250000000+81562500000+80937500000+80000000000
3084+80000000000+80312500000+81250000000+81875000000+82500000000+83125000000
3053+83437500000+84062500000+84375000000+84687500000+85000000000+85625000000
3021+85937500000+85937500000+86250000000+86562500000+86875000000+87187500000
2989+87187500000+87500000000+87812500000+88125000000+88125000000+88437500000
2958+88750000000+89062500000+89062500000+89375000000+89375000000+89375000000
2926+89687500000+90000000000+90000000000+90000000000+90000000000+90000000000
2895+90000000000+90000000000+90000000000+90000000000+90000000000+90000000000
2863+90000000000+90000000000+90000000000+90000000000+90000000000+90312500000
2832+90000000000+90000000000+90000000000+90000000000+90000000000+90312500000
2800+90312500000+90625000000+90625000000+90937500000+90937500000+91250000000
2768+91250000000+91250000000+91250000000+91250000000+91250000000+91562500000
2737+91562500000+91562500000+91562500000+91875000000+91875000000+92187500000
2705+92500000000+92500000000+92500000000+92500000000+92500000000+92500000000
2674+92500000000+92500000000+92500000000+92500000000+92500000000+92500000000
2642+92500000000+92187500000+92187500000+92500000000+92500000000+92812500000
2611+92500000000+92187500000+91875000000+91562500000+91562500000+91250000000
2579+91250000000+91562500000+91875000000+92500000000+92812500000+93125000000
2547+93437500000+93750000000+93750000000+94062500000+94062500000+94062500000
2516+94062500000+94062500000+94062500000+93750000000+93750000000+93750000000
2484+93750000000+93750000000+93750000000+93750000000+93750000000+93750000000
2453+93750000000+94062500000+94062500000+93750000000+93750000000+93437500000
2421+93437500000+93125000000+92812500000+92187500000+91562500000+90937500000
2389+89375000000+87500000000+84062500000+81250000000+78125000000+78125000000
2358+79375000000+82812500000+86250000000+89375000000+91250000000+92500000000
2326+93125000000+93750000000+94062500000+94375000000+94375000000+94687500000
2295+94687500000+94687500000+94687500000+95000000000+95000000000+94687500000
2263+94687500000+94687500000+94375000000+94062500000+93750000000+93125000000
2232+92812500000+92500000000+92187500000+92187500000+92187500000+92500000000
2200+92500000000+92812500000+93125000000+93125000000+93125000000+93125000000
2168+93125000000+92812500000+92500000000+91562500000+90625000000+89062500000
2137+86250000000+80625000000+71562500000+44687500000+22187500000+23437500000
2105+49062500000+69062500000+79062500000+84062500000+86250000000+87187500000
2074+87812500000+90000000000+91562500000+91875000000+92500000000+93125000000
2042+93750000000+94062500000+94062500000+94062500000+94062500000+94062500000
2011+93750000000+93125000000+92812500000+92187500000+91875000000+91875000000
1979+91875000000+91875000000+91875000000+92187500000+92187500000+92500000000
1947+92187500000+91875000000+91562500000+90937500000+90625000000+89687500000
1916+88750000000+87812500000+85937500000+82500000000+79687500000+75937500000
1884+67812500000+49375000000+32500000000+32187500000+33750000000+36250000000
1853+37500000000+44375000000+41250000000+40000000000+40000000000+43437499999
1821+50937500000+59062500000+66250000000+59062500000+55937500000+60312500000
1789+70625000000+76875000000+80000000000+81875000000+82187500000+81562500000
1758+79687500000+75937500000+74062500000+70312500000+69062500000+69375000000
1726+71250000000+72187500000+71875000000+72187500000+73437500000+76562500000
1695+78750000000+81250000000+82187500000+81562500000+80937500000+80937500000
1663+80625000000+79375000000+78125000000+76875000000+76875000000+76875000000
1632+77812500000+78437500000+79062500000+80625000000+81875000000+82187500000
1600+82187500000+82500000000+83125000000+83437500000+83750000000+84062500000
1568+84375000000+84687500000+84687500000+85000000000+85312500000+85937500000
1537+85937500000+86250000000+86562500000+86875000000+86875000000+86875000000
1505+87187500000+87187500000+87187500000+87187500000+87187500000+87187500000
1474+87187500000+87187500000+87187500000+86875000000+86875000000+86562500000
1442+86250000000+85937500000+85000000000+83125000000+81250000000+77187500000
1411+73437500000+68750000000+65625000000+61562500000+60312500000+60625000000
1379+61875000000+63125000000+65000000000+67187500000+70000000000+71250000000
1347+70937500000+70312500000+69375000000+68437500000+67812500000+67187500000
1316+65625000000+64062500000+63750000000+63750000000+65312500000+66562500000
1284+67500000000+67812500000+68125000000+67812500000+67500000000+66875000000
1253+65937500000+63750000000+60625000000+55625000000+47812500000+35625000000
1221+26562500000+23125000000+23750000000+33750000000+51562500000+62500000000
1189+69062500000+71562500000+73125000000+74375000000+75000000000+75625000000
1158+75937500000+75625000000+75000000000+73437500000+70312500000+65312500000
1126+59375000000+47812500000+33125000000+17500000000+10312500000+8750000000
1095+9687500000+18437500000+33437500000+48437500000+60312500000+68125000000
1063+73750000000+76250000000+79062500000+80625000000+81875000000+82500000000
1032+82812500000+83437500000+84062500000+84375000000+85000000000+85625000000
1000+85937500000+86562500000+86875000000+87187500000+87187500000+87187500000
968+87187500000+87500000000+87812500000+88437500000+88750000000+89062500000
937+89062500000+89062500000+88750000000+88437500000+87812500000+87500000000
905+87187500000+86875000000+86562500000+85937500000+85000000000+84375000000
874+82500000000+80312500000+77187500000+73750000000+68750000000+63437500000
842+57187500000+57187500000+66875000000+74687500000+80000000000+84062500000
811+85937500000+86875000000+87187500000+87187500000+86875000000+86562500000
779+86250000000+85625000000+84062500000+82500000000+80937500000+78125000000
747+73437500000+69375000000+65625000000+61562500000+58750000000+57500000000
716+57500000000+58750000000+62187500000+68437500000+73750000000+78750000000
684+80312500000+83437500000+84687500000+85937500000+86562500000+87187500000
653+87500000000+87500000000+87187500000+86875000000+85937500000+85000000000
621+83125000000+79062500000+75937500000+75937500000+76562500000+80000000000
589+83750000000+86562500000+87812500000+88437500000+89062500000+89375000000
558+89375000000+89375000000+89375000000+89687500000+89687500000+89687500000
526+89687500000+89687500000+89375000000+89375000000+89062500000+88750000000
495+88750000000+88437500000+88437500000+88125000000+87500000000+86875000000
463+86562500000+86562500000+86250000000+86250000000+85937500000+85312500000
432+84062500000+82500000000+81250000000+79375000000+77812500000+76562500000
400+75937500000
##END=
