##TITLE=1,2,3-trichlorobenzene
##JCAMP-DX=4.24
##DATA TYPE=INFRARED SPECTRUM
##DATE=10/06/2025
##SAMPLING PROCEDURE=ATR
##ORIGIN=SDBS
##XUNITS=1/CM
##YUNITS=TRANSMITTANCE
##RESOLUTION=5.2631578947368425
##FIRSTX=4000.0
##LASTX=400.0
##DELTAX=-5.2631578947368425
##MAXY=95.0
##MINY=0.0
##XFACTOR=1
##YFACTOR=1
##NPOINTS=685
##FIRSTY=0.0
##XYDATA=(X++(Y..Y))
4000+0+92812500000+92812500000+92500000000+92500000000+92500000000
3968+92500000000+92812500000+92812500000+92812500000+92812500000+92812500000
3937+92812500000+92812500000+92812500000+92812500000+92812500000+92812500000
3905+92812500000+92812500000+92500000000+92500000000+92500000000+92812500000
3874+92812500000+92500000000+92500000000+92500000000+92500000000+92500000000
3842+92500000000+92500000000+92812500000+92812500000+92812500000+92812500000
3811+92812500000+92812500000+92812500000+92812500000+92812500000+92812500000
3779+92500000000+92187500000+92187500000+91875000000+91875000000+91875000000
3747+91875000000+91875000000+92187500000+92187500000+92187500000+92187500000
3716+92187500000+92187500000+92187500000+92187500000+92187500000+92187500000
3684+92187500000+92187500000+92187500000+92187500000+92187500000+92187500000
3653+92187500000+92187500000+92187500000+92187500000+92187500000+92187500000
3621+92187500000+92187500000+92187500000+92187500000+92187500000+92187500000
3589+91875000000+91875000000+91875000000+91875000000+91875000000+91875000000
3558+91875000000+91562500000+91562500000+91562500000+91562500000+91562500000
3526+91562500000+91562500000+91562500000+91562500000+91562500000+91562500000
3495+91562500000+91562500000+91562500000+91562500000+91875000000+91875000000
3463+91875000000+91875000000+91875000000+91875000000+92187500000+92187500000
3432+92187500000+92187500000+92187500000+92187500000+92187500000+92187500000
3400+91562500000+90937500000+90937500000+91562500000+92187500000+92500000000
3368+92500000000+91875000000+85625000000+86875000000+87187500000+91875000000
3337+92812500000+93125000000+93125000000+93437500000+93437500000+93437500000
3305+93437500000+93125000000+93125000000+93125000000+93125000000+93125000000
3274+93125000000+93437500000+93125000000+93125000000+93437500000+93437500000
3242+93437500000+93437500000+93437500000+93437500000+93437500000+93437500000
3211+93750000000+93750000000+93750000000+93750000000+93750000000+93750000000
3179+93750000000+93750000000+94062500000+94062500000+94375000000+94375000000
3147+94375000000+94375000000+94375000000+94375000000+94375000000+94375000000
3116+94375000000+94375000000+94375000000+94375000000+94687500000+94687500000
3084+94687500000+94687500000+94687500000+94687500000+94687500000+94375000000
3053+94375000000+94687500000+94375000000+94375000000+94375000000+94375000000
3021+94687500000+94687500000+94687500000+94687500000+94687500000+94687500000
2989+94687500000+94375000000+94375000000+94375000000+94375000000+94375000000
2958+94375000000+94687500000+94687500000+94687500000+94687500000+94687500000
2926+94687500000+94687500000+94687500000+94687500000+94687500000+94687500000
2895+94687500000+94687500000+94687500000+94687500000+95000000000+95000000000
2863+94687500000+94687500000+94687500000+94687500000+94687500000+94687500000
2832+94687500000+94375000000+94375000000+94375000000+94375000000+94375000000
2800+94375000000+94375000000+94375000000+94375000000+94375000000+94375000000
2768+94375000000+94375000000+94375000000+94375000000+94375000000+94375000000
2737+94375000000+94375000000+94375000000+94375000000+94375000000+94375000000
2705+94375000000+94375000000+94375000000+94375000000+94375000000+94375000000
2674+94375000000+94375000000+94375000000+94375000000+94375000000+94375000000
2642+94375000000+94375000000+94375000000+94375000000+94375000000+94375000000
2611+94375000000+94375000000+94375000000+94375000000+94375000000+94375000000
2579+94375000000+94375000000+94375000000+94375000000+94375000000+94375000000
2547+94375000000+94062500000+90625000000+90312500000+92812500000+92812500000
2516+89375000000+92812500000+93750000000+94062500000+94062500000+94062500000
2484+94375000000+94375000000+94375000000+94375000000+94375000000+94375000000
2453+94375000000+94062500000+93750000000+92500000000+91250000000+92812500000
2421+91250000000+92187500000+93437500000+94062500000+94062500000+94375000000
2389+94375000000+94375000000+94375000000+94375000000+94375000000+94375000000
2358+94375000000+94375000000+94375000000+94062500000+92812500000+91875000000
2326+90937500000+92187500000+93437500000+93750000000+94062500000+94062500000
2295+94062500000+94062500000+94062500000+94375000000+94375000000+94375000000
2263+94375000000+94375000000+94375000000+94375000000+94375000000+94375000000
2232+94375000000+94375000000+94375000000+94375000000+94375000000+94375000000
2200+94375000000+94375000000+94375000000+94062500000+93750000000+92187500000
2168+91562500000+91562500000+91562500000+91562500000+92812500000+93125000000
2137+93437500000+93750000000+93750000000+94062500000+94062500000+94062500000
2105+94062500000+94375000000+94375000000+94375000000+94062500000+94062500000
2074+94062500000+94062500000+94062500000+94062500000+94062500000+94062500000
2042+94062500000+94062500000+94062500000+93750000000+92812500000+90000000000
2011+53125000000+41562500000+69687500000+85625000000+90625000000+91562500000
1979+92187500000+92812500000+93437500000+93750000000+94062500000+94062500000
1947+94062500000+94062500000+94062500000+94062500000+93750000000+93437500000
1916+93125000000+92812500000+92187500000+90625000000+90312500000+90625000000
1884+92500000000+93125000000+93437500000+93750000000+93750000000+93750000000
1853+93125000000+90937500000+89062500000+75937500000+29375000000+14687500000
1821+39687500000+75625000000+78437500000+66250000000+19062500000+22500000000
1789+59375000000+75312500000+80625000000+87187500000+85625000000+85625000000
1758+90312500000+91250000000+91562500000+91875000000+91875000000+92187500000
1726+92187500000+92500000000+92500000000+92812500000+92812500000+92812500000
1695+93125000000+93125000000+93125000000+93125000000+93125000000+93125000000
1663+93125000000+93125000000+93125000000+93125000000+92812500000+92812500000
1632+92812500000+92812500000+92812500000+93125000000+93437500000+93437500000
1600+93750000000+93750000000+84375000000+83437500000+88750000000+91562500000
1568+92500000000+93125000000+93125000000+93437500000+93437500000+93437500000
1537+91562500000+90937500000+91562500000+92812500000+93125000000+92500000000
1505+88125000000+38437500000+34375000000+73750000000+85312500000+89687500000
1474+90937500000+91875000000+92187500000+91875000000+83125000000+37500000000
1442+44062500000+75000000000+87812500000+89687500000+91875000000+92187500000
1411+92500000000+92500000000+92500000000+92812500000+92812500000+92812500000
1379+93125000000+93125000000+93437500000+93437500000+93750000000+93750000000
1347+87500000000+90000000000+91875000000+92500000000+92812500000+93125000000
1316+93125000000+92812500000+92500000000+92187500000+91875000000+91875000000
1284+88750000000+86250000000+88125000000+90937500000+91875000000+92500000000
1253+92500000000+92187500000+92187500000+92187500000+92187500000+92187500000
1221+92187500000+92500000000+92500000000+92500000000+92812500000+92812500000
1189+84687500000+86250000000+89062500000+92500000000+93125000000+93125000000
1158+93437500000+93437500000+93437500000+93437500000+93437500000+93437500000
1126+93437500000+93750000000+93750000000+93750000000+94062500000+94062500000
1095+93750000000+91562500000+89687500000+90000000000+93125000000+94062500000
1063+94375000000+94375000000+94375000000+94375000000+94375000000+94062500000
1032+94062500000+94062500000+93750000000+93437500000+93125000000+93125000000
1000+93125000000+93125000000+93125000000+93125000000+93125000000+93437500000
968+93125000000+92812500000+91875000000+90000000000+80625000000+50625000000
937+41562500000+48124999999+58750000000+43437499999+16875000000+4687500000
905+44375000000+80937500000+87187500000+89062500000+90625000000+91250000000
874+91562500000+90937500000+88125000000+75937500000+75937500000+88125000000
842+91875000000+92500000000+92812500000+93125000000+93125000000+92812500000
811+90937500000+52500000000+38749999999+87812500000+91875000000+92812500000
779+92812500000+93125000000+93125000000+93125000000+93125000000+93125000000
747+93125000000+93437500000+93437500000+93437500000+93437500000+93437500000
716+93437500000+93437500000+93437500000+93437500000+93437500000+93437500000
684+93437500000+93437500000+93437500000+93437500000+93437500000+93437500000
653+93437500000+93437500000+93437500000+93437500000+93437500000+93437500000
621+93437500000+93437500000+93750000000+93437500000+93437500000+93125000000
589+92812500000+92812500000+92187500000+91562500000+90937500000+90312500000
558+89375000000+88750000000+88437500000+88437500000+88437500000+88750000000
526+89375000000+90000000000+90625000000+91250000000+91875000000+92500000000
495+92812500000+93125000000+93437500000+93750000000+93750000000+93750000000
463+94062500000+94062500000+93750000000+93437500000+92812500000+92187500000
432+91875000000+91875000000+91875000000+91875000000+91875000000+91875000000
400+91875000000
##END=
