##TITLE=1,2-bis(diphenylphosphino)ethane
##JCAMP-DX=4.24
##DATA TYPE=INFRARED SPECTRUM
##DATE=10/06/2025
##SAMPLING PROCEDURE=ATR
##ORIGIN=SDBS
##XUNITS=1/CM
##YUNITS=TRANSMITTANCE
##RESOLUTION=5.2631578947368425
##FIRSTX=4000.0
##LASTX=400.0
##DELTAX=-5.2631578947368425
##MAXY=94.6875
##MINY=0.0
##XFACTOR=1
##YFACTOR=1
##NPOINTS=685
##FIRSTY=0.0
##XYDATA=(X++(Y..Y))
4000+0+83437500000+83437500000+83125000000+83125000000+83125000000
3968+83125000000+83125000000+83125000000+83437500000+83437500000+83125000000
3937+83125000000+83125000000+82812500000+82812500000+82812500000+82812500000
3905+82812500000+83125000000+83125000000+83125000000+83125000000+83125000000
3874+83125000000+83125000000+82812500000+82812500000+83125000000+83125000000
3842+83437500000+83125000000+82812500000+82812500000+82500000000+82500000000
3811+82812500000+82812500000+83125000000+82812500000+82812500000+82500000000
3779+82187500000+82187500000+82187500000+82500000000+82812500000+82500000000
3747+82500000000+82500000000+82500000000+82500000000+82500000000+82812500000
3716+82812500000+82500000000+82500000000+82812500000+82812500000+82812500000
3684+82500000000+82500000000+82500000000+82500000000+82500000000+82500000000
3653+82500000000+82187500000+82187500000+82187500000+82187500000+82187500000
3621+82187500000+82187500000+82187500000+82187500000+82187500000+82187500000
3589+82187500000+82187500000+82187500000+82187500000+81875000000+81875000000
3558+81875000000+81875000000+81875000000+81875000000+81875000000+81875000000
3526+81562500000+81562500000+81562500000+81562500000+81562500000+81250000000
3495+81250000000+81250000000+81250000000+81250000000+81250000000+81250000000
3463+81250000000+80937500000+80937500000+80937500000+80937500000+80937500000
3432+80937500000+80937500000+80937500000+80937500000+80937500000+80937500000
3400+80937500000+80937500000+80937500000+80937500000+81250000000+80937500000
3368+80000000000+78750000000+72187500000+69062500000+70937500000+72187500000
3337+70625000000+73437500000+71562500000+68750000000+68750000000+66562500000
3305+62500000000+58437500000+49687499999+38437500000+23437500000+15937500000
3274+15312500000+15937500000+10000000000+5312500000+4687500000+5937500000
3242+11562500000+19062500000+25000000000+31562500000+32812500000+28750000000
3211+24375000000+18437500000+19375000000+37500000000+63125000000+75625000000
3179+81562500000+83437500000+85625000000+86875000000+87812500000+88437500000
3147+88750000000+88750000000+88750000000+88437500000+88125000000+88125000000
3116+87812500000+87812500000+88125000000+87812500000+87812500000+87500000000
3084+87500000000+87500000000+87500000000+87812500000+87812500000+88125000000
3053+88125000000+88125000000+88437500000+88437500000+88437500000+88437500000
3021+88437500000+88750000000+88750000000+89062500000+89375000000+89375000000
2989+89687500000+89687500000+90000000000+90000000000+90000000000+90000000000
2958+90000000000+90312500000+90312500000+90312500000+90312500000+90312500000
2926+90312500000+90312500000+90312500000+90312500000+90312500000+90312500000
2895+90312500000+90312500000+90312500000+90312500000+90625000000+90625000000
2863+90312500000+90312500000+90312500000+90312500000+90312500000+90312500000
2832+90312500000+90312500000+90312500000+90625000000+90625000000+90625000000
2800+90625000000+90937500000+90937500000+90937500000+90937500000+90937500000
2768+90937500000+90937500000+90937500000+90937500000+90937500000+90937500000
2737+91250000000+90937500000+90937500000+90937500000+91250000000+91250000000
2705+91250000000+91562500000+91562500000+91562500000+91562500000+91562500000
2674+91562500000+91562500000+91562500000+91562500000+91562500000+91875000000
2642+91875000000+91875000000+91875000000+91875000000+91875000000+91875000000
2611+91875000000+91875000000+91875000000+91875000000+91875000000+91875000000
2579+91562500000+91250000000+90937500000+90937500000+90625000000+90625000000
2547+90625000000+90625000000+90625000000+90625000000+91250000000+91562500000
2516+91875000000+91875000000+92187500000+92187500000+91875000000+91875000000
2484+91875000000+91875000000+91562500000+91250000000+91250000000+90937500000
2453+90625000000+90937500000+91250000000+91250000000+91250000000+91562500000
2421+91562500000+91875000000+91875000000+91875000000+91875000000+91875000000
2389+91875000000+91875000000+91875000000+91875000000+91562500000+91562500000
2358+91562500000+91562500000+91562500000+91562500000+91562500000+91562500000
2326+91875000000+91875000000+91875000000+91875000000+91875000000+92187500000
2295+92187500000+92187500000+92187500000+92187500000+92187500000+92187500000
2263+92187500000+92187500000+92187500000+92187500000+92187500000+92187500000
2232+92187500000+92187500000+92187500000+92187500000+92187500000+92187500000
2200+92187500000+92187500000+92187500000+92187500000+92187500000+92187500000
2168+91875000000+91875000000+91875000000+91875000000+91562500000+91562500000
2137+91562500000+91562500000+91562500000+91875000000+91875000000+91875000000
2105+91875000000+91875000000+92187500000+92187500000+92187500000+92187500000
2074+92187500000+92187500000+92187500000+92187500000+91875000000+91562500000
2042+90937500000+87187500000+88437500000+90937500000+91562500000+90000000000
2011+90000000000+91562500000+91875000000+91875000000+91875000000+91562500000
1979+91562500000+91562500000+91562500000+91562500000+91562500000+91562500000
1947+91562500000+91562500000+91562500000+91250000000+90937500000+90625000000
1916+89687500000+87812500000+87187500000+85625000000+73437500000+67500000000
1884+72500000000+63125000000+53437500000+53125000000+53437500000+55625000000
1853+57812500000+64375000000+68750000000+73125000000+63750000000+55000000000
1821+58437500000+81562500000+81875000000+86250000000+88125000000+89062500000
1789+89375000000+89375000000+89062500000+88125000000+86250000000+80625000000
1758+75625000000+68750000000+67500000000+70312500000+79375000000+80000000000
1726+82500000000+85937500000+87187500000+87500000000+87812500000+88125000000
1695+88750000000+89062500000+85625000000+85312500000+88437500000+89062500000
1663+88750000000+88437500000+85625000000+85625000000+87187500000+87500000000
1632+89375000000+90000000000+90312500000+90000000000+89375000000+89375000000
1600+89375000000+90625000000+90937500000+91562500000+91562500000+91875000000
1568+91875000000+91875000000+91875000000+92187500000+92187500000+92500000000
1537+92500000000+92500000000+92500000000+92500000000+92500000000+92187500000
1505+92187500000+92187500000+92187500000+91562500000+90000000000+90625000000
1474+91875000000+91875000000+91562500000+91562500000+85625000000+82812500000
1442+89062500000+90625000000+91562500000+91875000000+92187500000+92187500000
1411+92187500000+92187500000+92187500000+92187500000+92500000000+92187500000
1379+90625000000+87812500000+86250000000+85625000000+85937500000+86562500000
1347+87187500000+84687500000+83750000000+87187500000+87812500000+83437500000
1316+84062500000+88750000000+91250000000+91875000000+92187500000+92500000000
1284+92500000000+92812500000+92500000000+90937500000+82187500000+82187500000
1253+90312500000+91562500000+91875000000+92500000000+92187500000+81875000000
1221+81875000000+91875000000+92812500000+92812500000+92812500000+92812500000
1189+92812500000+92812500000+92812500000+92812500000+93125000000+93125000000
1158+93125000000+93125000000+93125000000+93125000000+93125000000+93125000000
1126+93125000000+93125000000+92812500000+92812500000+92812500000+93125000000
1095+93125000000+93125000000+93125000000+93125000000+93437500000+93437500000
1063+93437500000+93437500000+93437500000+93437500000+93750000000+93750000000
1032+93750000000+93437500000+93437500000+93437500000+93437500000+93750000000
1000+94062500000+94062500000+94062500000+94062500000+94062500000+94062500000
968+94062500000+94062500000+94062500000+94062500000+94062500000+94062500000
937+94062500000+94062500000+94062500000+94062500000+93750000000+93750000000
905+93437500000+93437500000+93125000000+91562500000+76875000000+76875000000
874+85937500000+69062500000+70000000000+82187500000+57500000000+46250000000
842+54375000000+77812500000+84375000000+85625000000+65937500000+62812500000
811+74375000000+64062500000+45937500000+50000000000+79687500000+87187500000
779+84375000000+82187500000+85937500000+90937500000+92500000000+93125000000
747+93125000000+93437500000+93437500000+93750000000+93750000000+93750000000
716+93750000000+94062500000+94062500000+94062500000+94062500000+94062500000
684+94062500000+94062500000+94062500000+94062500000+93750000000+93750000000
653+93750000000+93437500000+93437500000+93437500000+93437500000+93750000000
621+93750000000+94062500000+94375000000+94375000000+94687500000+94687500000
589+94687500000+94687500000+94687500000+94687500000+94687500000+94375000000
558+93750000000+92812500000+87187500000+67500000000+66875000000+86250000000
526+91562500000+92812500000+92812500000+90625000000+89375000000+89062500000
495+89687500000+89375000000+89062500000+88750000000+88437500000+87812500000
463+87812500000+87812500000+87812500000+87812500000+88125000000+88125000000
432+87500000000+86250000000+85312500000+83750000000+82187500000+81250000000
400+80625000000
##END=
