##TITLE=1,3,5-tribromobenzene
##JCAMP-DX=4.24
##DATA TYPE=INFRARED SPECTRUM
##DATE=10/06/2025
##SAMPLING PROCEDURE=ATR
##ORIGIN=SDBS
##XUNITS=1/CM
##YUNITS=TRANSMITTANCE
##RESOLUTION=5.2631578947368425
##FIRSTX=4000.0
##LASTX=400.0
##DELTAX=-5.2631578947368425
##MAXY=94.6875
##MINY=0.0
##XFACTOR=1
##YFACTOR=1
##NPOINTS=685
##FIRSTY=0.0
##XYDATA=(X++(Y..Y))
4000+0+85937500000+85937500000+85937500000+86250000000+86250000000
3968+86250000000+86250000000+86250000000+86250000000+86250000000+86250000000
3937+86250000000+86250000000+86250000000+86250000000+86250000000+86250000000
3905+86250000000+86250000000+86250000000+86250000000+85937500000+85937500000
3874+85937500000+85937500000+85937500000+85937500000+86250000000+86250000000
3842+86250000000+86250000000+86250000000+85937500000+85937500000+86250000000
3811+86250000000+86250000000+86562500000+86250000000+86250000000+86250000000
3779+86250000000+86250000000+86250000000+86250000000+86562500000+86250000000
3747+86250000000+85937500000+85937500000+85937500000+85937500000+85937500000
3716+86250000000+86562500000+86562500000+86562500000+86562500000+86562500000
3684+86562500000+86562500000+86250000000+86250000000+85937500000+85937500000
3653+85937500000+85625000000+85625000000+85312500000+85000000000+85000000000
3621+84687500000+84687500000+84375000000+84375000000+84062500000+83750000000
3589+83437500000+83125000000+83125000000+82812500000+82812500000+82812500000
3558+82812500000+82812500000+82812500000+82500000000+82187500000+82187500000
3526+81875000000+81562500000+81250000000+81250000000+80937500000+80625000000
3495+80625000000+80312500000+80000000000+80000000000+80000000000+80000000000
3463+79687500000+79687500000+79687500000+80000000000+80000000000+80000000000
3432+80312500000+80312500000+80625000000+80937500000+80937500000+81250000000
3400+81562500000+81875000000+81875000000+80312500000+80312500000+83125000000
3368+83750000000+83750000000+78125000000+76250000000+79687500000+81562500000
3337+81250000000+80937500000+80000000000+78125000000+75937500000+73750000000
3305+69375000000+62812500000+51562500000+36875000000+21562500000+12500000000
3274+11875000000+12812500000+8750000000+5000000000+4687500000+5000000000
3242+9062500000+13750000000+18437500000+23437500000+25312500000+21562500000
3211+17187500000+13125000000+13437500000+26875000000+50312500000+65625000000
3179+72500000000+77812500000+80000000000+82187500000+83750000000+85000000000
3147+85937500000+86562500000+86875000000+86875000000+86562500000+86250000000
3116+86250000000+86250000000+86250000000+86562500000+86250000000+86250000000
3084+86250000000+86250000000+86250000000+86562500000+86562500000+86562500000
3053+86875000000+86875000000+87187500000+87187500000+87500000000+87500000000
3021+88125000000+88437500000+88437500000+88750000000+89062500000+89062500000
2989+89375000000+89687500000+89687500000+90000000000+90000000000+90000000000
2958+90000000000+90000000000+90312500000+90312500000+90312500000+90312500000
2926+90312500000+90312500000+90312500000+90312500000+90312500000+90312500000
2895+90312500000+90312500000+90312500000+90312500000+90312500000+90312500000
2863+90312500000+90312500000+90312500000+90312500000+90312500000+90312500000
2832+90312500000+90312500000+90312500000+90312500000+90312500000+90625000000
2800+90625000000+90312500000+90312500000+90312500000+90625000000+90625000000
2768+90625000000+90625000000+90625000000+90625000000+90625000000+90625000000
2737+90625000000+90937500000+90937500000+90937500000+90937500000+90937500000
2705+90937500000+90937500000+90937500000+90937500000+90937500000+90937500000
2674+90937500000+90937500000+90937500000+90937500000+90937500000+91250000000
2642+91250000000+91250000000+91250000000+91562500000+91562500000+91562500000
2611+91562500000+91562500000+91562500000+91562500000+91562500000+91562500000
2579+91562500000+91562500000+91562500000+91562500000+91562500000+91562500000
2547+91562500000+91875000000+91875000000+91875000000+91875000000+91875000000
2516+91875000000+91875000000+91875000000+91875000000+91875000000+91875000000
2484+91875000000+91875000000+91875000000+91875000000+91875000000+91875000000
2453+91875000000+91875000000+91875000000+91875000000+91875000000+91875000000
2421+91875000000+91875000000+91875000000+91875000000+91875000000+91875000000
2389+91875000000+91875000000+91875000000+91875000000+91875000000+91875000000
2358+91875000000+91875000000+91875000000+91875000000+91875000000+91562500000
2326+91562500000+91562500000+91562500000+91562500000+91875000000+91875000000
2295+91875000000+91875000000+92187500000+92187500000+92187500000+92187500000
2263+91562500000+90625000000+89687500000+89687500000+90000000000+90625000000
2232+91250000000+90937500000+88750000000+87500000000+88125000000+89375000000
2200+90312500000+90625000000+90937500000+90937500000+91250000000+91250000000
2168+91250000000+91562500000+91562500000+91562500000+91562500000+91562500000
2137+91562500000+91562500000+91562500000+91562500000+91562500000+91562500000
2105+91875000000+91875000000+91875000000+91875000000+92187500000+92187500000
2074+92187500000+92500000000+92500000000+92812500000+92812500000+92812500000
2042+93125000000+93125000000+93750000000+94375000000+94687500000+93750000000
2011+90625000000+74375000000+42187500000+36875000000+50937500000+67812500000
1979+77500000000+80625000000+82500000000+84375000000+83750000000+83750000000
1947+84062500000+85312500000+85937500000+86250000000+86250000000+86250000000
1916+85937500000+85625000000+84375000000+83125000000+80937500000+76250000000
1884+67812500000+54687500000+43437499999+42500000000+42812500000+44375000000
1853+46875000000+53750000000+58750000000+64375000000+69687500000+75000000000
1821+80937500000+84687500000+86562500000+87812500000+88437500000+85000000000
1789+51562500000+50000000000+65937500000+75312500000+78437500000+72500000000
1758+65937500000+56250000000+52500000000+53437500000+65625000000+69375000000
1726+73125000000+78125000000+75625000000+75625000000+78125000000+80937500000
1695+81875000000+83125000000+84062500000+85000000000+85312500000+85312500000
1663+85000000000+85000000000+85000000000+85000000000+85000000000+85312500000
1632+85625000000+85937500000+86250000000+86562500000+86562500000+86875000000
1600+86875000000+87187500000+87187500000+87187500000+87187500000+87187500000
1568+87500000000+87500000000+87812500000+88125000000+88437500000+88437500000
1537+88750000000+88750000000+88750000000+89062500000+89062500000+89062500000
1505+89062500000+89375000000+89375000000+89062500000+89062500000+89062500000
1474+88750000000+88437500000+88437500000+88437500000+88125000000+88125000000
1442+88125000000+88125000000+88437500000+88437500000+88437500000+88437500000
1411+88437500000+88437500000+88437500000+88437500000+88750000000+89062500000
1379+89375000000+89375000000+85625000000+72812500000+72812500000+77187500000
1347+82187500000+84687500000+85937500000+86250000000+86875000000+87187500000
1316+87500000000+87500000000+87812500000+87812500000+88125000000+87812500000
1284+87812500000+87812500000+87812500000+87812500000+87500000000+87500000000
1253+87500000000+87500000000+87500000000+87812500000+88125000000+88125000000
1221+88437500000+88750000000+88750000000+88750000000+88750000000+88750000000
1189+88750000000+88750000000+88750000000+88750000000+88750000000+88750000000
1158+88750000000+88750000000+88750000000+88750000000+88750000000+88750000000
1126+88750000000+89062500000+89062500000+89062500000+89062500000+89375000000
1095+89062500000+89062500000+89375000000+89375000000+89375000000+89687500000
1063+89687500000+89375000000+88125000000+86562500000+86562500000+87500000000
1032+86250000000+81250000000+69375000000+49687499999+50625000000+67500000000
1000+80625000000+84687500000+86875000000+88125000000+88750000000+88750000000
968+89062500000+89375000000+89375000000+89375000000+89687500000+89687500000
937+89687500000+89687500000+89687500000+89687500000+89687500000+90000000000
905+90312500000+90312500000+90312500000+89687500000+86875000000+75312500000
874+60000000000+60312500000+66562500000+69375000000+77187500000+79687500000
842+79375000000+79687500000+83125000000+85937500000+86875000000+88125000000
811+89062500000+89687500000+90000000000+90312500000+90312500000+90625000000
779+90625000000+90937500000+90937500000+89375000000+78437500000+60312500000
747+57187500000+78750000000+86250000000+88437500000+89062500000+89375000000
716+89687500000+90000000000+90000000000+90312500000+90312500000+90312500000
684+90312500000+90312500000+90312500000+90000000000+90000000000+89687500000
653+89375000000+89375000000+89375000000+89375000000+89375000000+89687500000
621+90000000000+90312500000+90625000000+90937500000+91250000000+91562500000
589+91875000000+91875000000+91875000000+91562500000+91250000000+90937500000
558+90625000000+90312500000+90312500000+89687500000+89375000000+88750000000
526+88125000000+87812500000+87187500000+86875000000+86875000000+86875000000
495+86875000000+87187500000+87500000000+88125000000+88750000000+89062500000
463+89375000000+88750000000+87500000000+85625000000+83437500000+80312500000
432+77187500000+74375000000+72500000000+70312500000+68750000000+67812500000
400+67187500000
##END=
