##TITLE=1,3,5-triisopropylbenzene
##JCAMP-DX=4.24
##DATA TYPE=INFRARED SPECTRUM
##DATE=10/06/2025
##SAMPLING PROCEDURE=ATR
##ORIGIN=SDBS
##XUNITS=1/CM
##YUNITS=TRANSMITTANCE
##RESOLUTION=5.2631578947368425
##FIRSTX=4000.0
##LASTX=400.0
##DELTAX=-5.2631578947368425
##MAXY=95.0
##MINY=0.0
##XFACTOR=1
##YFACTOR=1
##NPOINTS=685
##FIRSTY=0.0
##XYDATA=(X++(Y..Y))
4000+0+90937500000+90937500000+91250000000+91562500000+91562500000
3968+91562500000+91562500000+91562500000+91562500000+91562500000+91562500000
3937+91562500000+91562500000+91250000000+90937500000+90937500000+90937500000
3905+91250000000+91250000000+91250000000+90937500000+90937500000+90937500000
3874+90937500000+90937500000+91250000000+91250000000+91562500000+91562500000
3842+91562500000+91562500000+91562500000+91562500000+91562500000+91562500000
3811+91562500000+91562500000+91875000000+91875000000+91875000000+91875000000
3779+91875000000+91875000000+91875000000+91875000000+91875000000+91875000000
3747+91875000000+91562500000+91562500000+91250000000+91250000000+91250000000
3716+91250000000+91250000000+91562500000+91562500000+91562500000+91562500000
3684+91250000000+91250000000+90937500000+90937500000+90937500000+90937500000
3653+90937500000+90937500000+90937500000+90937500000+90937500000+90937500000
3621+90937500000+90937500000+90937500000+90937500000+90937500000+90625000000
3589+90625000000+90625000000+90625000000+90625000000+90937500000+90937500000
3558+90937500000+90937500000+90937500000+90937500000+90937500000+90937500000
3526+90937500000+90937500000+90937500000+90937500000+90937500000+90937500000
3495+90937500000+90625000000+90625000000+90312500000+90312500000+90000000000
3463+89687500000+89375000000+89062500000+89062500000+89062500000+89062500000
3432+89375000000+89687500000+90000000000+90312500000+90625000000+90937500000
3400+91250000000+90937500000+90625000000+90625000000+90625000000+90625000000
3368+90000000000+89062500000+86875000000+82812500000+80000000000+79062500000
3337+79062500000+77187500000+69375000000+63750000000+63750000000+69687500000
3305+70000000000+63750000000+45937500000+24062500000+7812500000+4687500000
3274+4687500000+15000000000+26875000000+26562500000+26875000000+30625000000
3242+39062500000+37500000000+36250000000+35625000000+34375000000+28750000000
3211+30000000000+49375000000+68125000000+75625000000+81875000000+83750000000
3179+84375000000+85000000000+85625000000+86250000000+88750000000+89687500000
3147+90000000000+90000000000+90000000000+90312500000+90937500000+91250000000
3116+89687500000+89687500000+89687500000+90625000000+92187500000+92812500000
3084+92812500000+92500000000+92500000000+92500000000+92500000000+92500000000
3053+92812500000+92500000000+92187500000+91562500000+91250000000+90937500000
3021+90937500000+91250000000+91875000000+92500000000+93125000000+93125000000
2989+93437500000+93437500000+93750000000+93750000000+93750000000+93437500000
2958+93437500000+93437500000+93437500000+93437500000+93437500000+93437500000
2926+93750000000+93750000000+94062500000+93750000000+94062500000+94062500000
2895+94062500000+94062500000+93750000000+93437500000+93437500000+93437500000
2863+93437500000+93437500000+93750000000+93750000000+93750000000+93750000000
2832+94062500000+94062500000+94062500000+94062500000+94062500000+94062500000
2800+94375000000+94062500000+94062500000+94062500000+94062500000+94062500000
2768+94062500000+94375000000+94375000000+94375000000+94375000000+94375000000
2737+94375000000+94375000000+94687500000+94687500000+94687500000+94687500000
2705+94687500000+94687500000+94687500000+94687500000+94687500000+94687500000
2674+94687500000+94687500000+94687500000+94687500000+94687500000+94687500000
2642+94687500000+94687500000+94687500000+95000000000+95000000000+95000000000
2611+94687500000+94687500000+94687500000+94687500000+94687500000+94687500000
2579+94687500000+94687500000+94687500000+94687500000+95000000000+95000000000
2547+94687500000+94687500000+94687500000+94687500000+94687500000+94687500000
2516+94687500000+95000000000+95000000000+94687500000+94687500000+94687500000
2484+94687500000+94687500000+94687500000+94687500000+94687500000+94687500000
2453+94687500000+94687500000+94687500000+94687500000+94687500000+94687500000
2421+94687500000+94687500000+94687500000+94687500000+94687500000+94687500000
2389+94687500000+94687500000+94687500000+94687500000+94687500000+94687500000
2358+94375000000+94375000000+94375000000+94375000000+94062500000+94062500000
2326+93750000000+93437500000+93125000000+91875000000+90000000000+88437500000
2295+88437500000+89375000000+90937500000+88750000000+86562500000+86562500000
2263+88750000000+91250000000+92812500000+93125000000+93437500000+93437500000
2232+93437500000+93750000000+93750000000+93750000000+93750000000+93437500000
2200+93437500000+93125000000+93125000000+93125000000+93125000000+93125000000
2168+93125000000+93437500000+93437500000+93437500000+93437500000+93437500000
2137+93437500000+93437500000+93437500000+93437500000+93437500000+93437500000
2105+93125000000+92812500000+91875000000+90000000000+87812500000+83750000000
2074+74375000000+55312500000+42500000000+42187500000+42812500000+54687500000
2042+71250000000+80000000000+84375000000+88437500000+91250000000+91875000000
2011+92812500000+93125000000+93437500000+93437500000+93437500000+93125000000
1979+93125000000+92812500000+91875000000+90625000000+90000000000+89687500000
1947+89375000000+89375000000+89062500000+89062500000+88437500000+86875000000
1916+86250000000+85625000000+84687500000+83750000000+81562500000+75625000000
1884+61875000000+41562500000+32500000000+33125000000+35000000000+37187499999
1853+42812500000+47187500000+50937500000+55625000000+62812500000+71875000000
1821+76875000000+80000000000+82500000000+83750000000+84687500000+85312500000
1789+85937500000+85937500000+85625000000+84375000000+80937500000+70937500000
1758+49062500000+48437500000+63437500000+77500000000+73125000000+50000000000
1726+45312500000+60312500000+77812500000+82500000000+83437500000+85312500000
1695+85625000000+85000000000+85000000000+83750000000+79062500000+71250000000
1663+66875000000+66875000000+70312500000+74375000000+77812500000+81875000000
1632+85937500000+88750000000+90312500000+90937500000+90312500000+89062500000
1600+86875000000+86875000000+88437500000+89687500000+88125000000+83437500000
1568+81875000000+83437500000+88437500000+91250000000+92187500000+92500000000
1537+92812500000+93125000000+93125000000+92812500000+92812500000+92187500000
1505+91562500000+90000000000+82812500000+69062500000+68750000000+74687500000
1474+84375000000+89062500000+90937500000+91875000000+92187500000+91562500000
1442+90937500000+90312500000+90000000000+90000000000+90312500000+90312500000
1411+90937500000+91250000000+90937500000+90000000000+88437500000+85625000000
1379+80000000000+77500000000+77500000000+77500000000+75625000000+76562500000
1347+83437500000+86875000000+86250000000+81562500000+79062500000+79062500000
1316+82812500000+85625000000+83750000000+84375000000+88750000000+90312500000
1284+91250000000+92187500000+92187500000+91875000000+91875000000+91562500000
1253+91562500000+91562500000+91562500000+91875000000+92187500000+92500000000
1221+92812500000+93437500000+93437500000+93750000000+93437500000+93125000000
1189+92812500000+92187500000+91250000000+90000000000+89062500000+88125000000
1158+86875000000+82500000000+75625000000+73750000000+72812500000+72500000000
1126+76250000000+80937500000+79687500000+82812500000+88750000000+91250000000
1095+92187500000+92500000000+91562500000+89687500000+87500000000+86562500000
1063+85937500000+82187500000+65625000000+28125000000+28437500000+62500000000
1032+83750000000+90000000000+91250000000+91875000000+92812500000+93125000000
1000+90937500000+86875000000+83125000000+83437500000+85625000000+88125000000
968+88125000000+90937500000+91875000000+91875000000+91562500000+91250000000
937+91250000000+91875000000+92500000000+93125000000+93750000000+94375000000
905+94687500000+94687500000+93437500000+91875000000+91875000000+92187500000
874+92187500000+92187500000+92187500000+92187500000+92187500000+92187500000
842+85312500000+66562500000+24687500000+25937500000+70937500000+83437500000
811+88437500000+89062500000+90625000000+91562500000+91875000000+92187500000
779+92187500000+92187500000+92500000000+92812500000+92812500000+92812500000
747+92812500000+91562500000+90000000000+91562500000+91250000000+91250000000
716+91250000000+91562500000+91562500000+91562500000+91562500000+91562500000
684+91562500000+91250000000+90937500000+90625000000+90312500000+90000000000
653+89687500000+89375000000+89375000000+89375000000+89375000000+89687500000
621+90000000000+90625000000+91562500000+92187500000+92500000000+92812500000
589+92812500000+92500000000+92187500000+91875000000+91562500000+91250000000
558+90625000000+90000000000+89375000000+88437500000+87812500000+87187500000
526+86250000000+85937500000+85625000000+85625000000+85937500000+86250000000
495+86875000000+87187500000+87812500000+88437500000+89062500000+89375000000
463+90000000000+89687500000+88437500000+85937500000+83125000000+79375000000
432+75625000000+72187500000+69687500000+67500000000+65625000000+64687500000
400+63750000000
##END=
