##TITLE=1,3-dioxane
##JCAMP-DX=4.24
##DATA TYPE=INFRARED SPECTRUM
##DATE=10/06/2025
##SAMPLING PROCEDURE=ATR
##ORIGIN=SDBS
##XUNITS=1/CM
##YUNITS=TRANSMITTANCE
##RESOLUTION=5.2631578947368425
##FIRSTX=4000.0
##LASTX=400.0
##DELTAX=-5.2631578947368425
##MAXY=94.6875
##MINY=0.0
##XFACTOR=1
##YFACTOR=1
##NPOINTS=685
##FIRSTY=0.0
##XYDATA=(X++(Y..Y))
4000+0+85000000000+85000000000+85000000000+85312500000+85000000000
3968+85000000000+85000000000+84687500000+84687500000+84687500000+85000000000
3937+85312500000+85625000000+86250000000+86250000000+86250000000+86250000000
3905+86562500000+86562500000+86562500000+86562500000+86562500000+86562500000
3874+86875000000+87500000000+87812500000+87812500000+87500000000+87187500000
3842+87187500000+87187500000+87187500000+87187500000+87187500000+87500000000
3811+87812500000+88125000000+88125000000+87500000000+86562500000+85625000000
3779+84062500000+82187500000+80625000000+78750000000+76875000000+74375000000
3747+72812500000+70937500000+69062500000+67187500000+65937500000+65312500000
3716+65312500000+65312500000+65625000000+65937500000+66250000000+65937500000
3684+65000000000+63750000000+62812500000+62500000000+62500000000+62500000000
3653+63125000000+64062500000+64687500000+65625000000+66250000000+66875000000
3621+67187500000+68125000000+69062500000+70000000000+70937500000+72187500000
3589+73437500000+74687500000+75625000000+76875000000+78125000000+79062500000
3558+79687500000+80625000000+81250000000+82187500000+82812500000+83125000000
3526+83437500000+83750000000+83750000000+84062500000+84375000000+84375000000
3495+84375000000+84375000000+84375000000+84375000000+84375000000+84687500000
3463+85000000000+85625000000+85937500000+86250000000+86562500000+86875000000
3432+87187500000+87187500000+87187500000+87187500000+86875000000+86562500000
3400+86250000000+85937500000+85625000000+85625000000+85625000000+85625000000
3368+85625000000+85000000000+84375000000+83437500000+81875000000+80000000000
3337+77812500000+74687500000+69062500000+59375000000+45937500000+35937500000
3305+27187500000+21250000000+17812500000+16250000000+15000000000+15000000000
3274+15625000000+20000000000+23125000000+20937500000+21250000000+24375000000
3242+31250000000+38125000000+40312499999+34375000000+25000000000+17500000000
3211+14062500000+12500000000+12187500000+13437500000+17187500000+23437500000
3179+34375000000+44375000000+51250000000+42187500000+28750000000+27500000000
3147+30937500000+37812500000+42500000000+42187500000+43750000000+50312500000
3116+63437500000+68125000000+62187500000+61250000000+63437500000+70937500000
3084+76875000000+80625000000+77812500000+76250000000+78125000000+82812500000
3053+85625000000+86250000000+87812500000+87500000000+87500000000+89687500000
3021+90937500000+90937500000+90000000000+89062500000+88750000000+88750000000
2989+89375000000+90312500000+91562500000+91875000000+92187500000+92500000000
2958+92812500000+92812500000+93125000000+93437500000+93437500000+93437500000
2926+93437500000+93750000000+94062500000+93750000000+93750000000+93750000000
2895+94062500000+93750000000+92500000000+90937500000+90625000000+90625000000
2863+90625000000+90937500000+90937500000+90937500000+91250000000+91250000000
2832+91250000000+91562500000+91875000000+91875000000+91875000000+92187500000
2800+92500000000+93125000000+92500000000+91562500000+91562500000+92187500000
2768+92812500000+93437500000+93750000000+93437500000+93125000000+92500000000
2737+91875000000+91250000000+89062500000+88125000000+89062500000+89687500000
2705+89375000000+89687500000+91875000000+92812500000+91562500000+90312500000
2674+90312500000+90937500000+91875000000+90625000000+89375000000+89375000000
2642+90312500000+88437500000+87187500000+87187500000+88437500000+89687500000
2611+87500000000+85937500000+84375000000+83437500000+83125000000+83437500000
2579+85937500000+88125000000+88750000000+89375000000+90312500000+90937500000
2547+90625000000+90937500000+90937500000+90937500000+90312500000+89062500000
2516+84687500000+79687500000+79375000000+79375000000+80625000000+83437500000
2484+86562500000+88750000000+90312500000+89687500000+87187500000+85937500000
2453+85937500000+87500000000+89375000000+90937500000+91875000000+92187500000
2421+93125000000+93437500000+94062500000+93437500000+92187500000+91562500000
2389+91562500000+91562500000+93125000000+94375000000+94687500000+94687500000
2358+94375000000+94062500000+93750000000+93437500000+93437500000+93125000000
2326+93125000000+92812500000+92812500000+92812500000+92812500000+93125000000
2295+92812500000+91250000000+89062500000+87187500000+87187500000+87812500000
2263+89062500000+88437500000+85937500000+81875000000+80000000000+79375000000
2232+79687500000+81250000000+83750000000+88125000000+89687500000+90625000000
2200+91562500000+91875000000+92187500000+92187500000+92187500000+92187500000
2168+92187500000+91562500000+90625000000+88125000000+85000000000+83125000000
2137+82500000000+81875000000+81562500000+81250000000+80937500000+80937500000
2105+81250000000+81562500000+83125000000+84687500000+85625000000+86562500000
2074+87187500000+87812500000+89062500000+90312500000+91250000000+91875000000
2042+91875000000+92187500000+92500000000+92812500000+93125000000+93125000000
2011+93437500000+93437500000+93437500000+93437500000+93437500000+93437500000
1979+93125000000+93125000000+92812500000+91875000000+91250000000+90625000000
1947+89375000000+87187500000+85625000000+84375000000+83437500000+81875000000
1916+80312500000+74375000000+65312500000+47812500000+36875000000+36562500000
1884+44375000000+52812500000+45937500000+32812500000+32500000000+41874999999
1853+57187500000+66875000000+69375000000+64687500000+50937500000+36250000000
1821+35937500000+45312500000+59687500000+66875000000+59062500000+44062500000
1789+36250000000+37187499999+51875000000+62812500000+65312500000+64687500000
1758+54062500000+37187499999+35625000000+47187500000+62500000000+63437500000
1726+63437500000+59062500000+57812500000+61875000000+71250000000+75937500000
1695+76562500000+78437500000+78750000000+75937500000+70625000000+68437500000
1663+65000000000+57187500000+52812500000+53125000000+49062500000+44375000000
1632+37187499999+36875000000+45937500000+64062500000+72187500000+76250000000
1600+77500000000+77187500000+76250000000+75000000000+73125000000+70312500000
1568+65312500000+56875000000+43750000000+23750000000+11562500000+11250000000
1537+16250000000+31562500000+44375000000+50625000000+50625000000+47187500000
1505+37500000000+24687500000+12187500000+9687500000+10625000000+18125000000
1474+26875000000+30312500000+28750000000+25937500000+20312500000+12500000000
1442+6250000000+4687500000+4687500000+7812500000+14062500000+13125000000
1411+13437500000+22187500000+36562500000+44062500000+49687499999+52500000000
1379+51875000000+47812500000+39062500000+28437500000+17812500000+10000000000
1347+9375000000+11562500000+20312500000+34062500000+45312500000+49375000000
1316+48750000000+43750000000+33750000000+20625000000+11562500000+11250000000
1284+15000000000+24062500000+31250000000+32187500000+25937500000+18125000000
1253+10937500000+6875000000+5312500000+5312500000+6562500000+10312500000
1221+16250000000+13437500000+9062500000+8750000000+11875000000+22812500000
1189+35625000000+45937500000+55000000000+61250000000+65937500000+68125000000
1158+69375000000+70000000000+69687500000+68750000000+67187500000+65000000000
1126+61875000000+56562500000+50312500000+44375000000+34687500000+20312500000
1095+12812500000+11250000000+12187500000+21250000000+35312500000+37500000000
1063+22500000000+21562500000+29375000000+47812500000+60937500000+67500000000
1032+71875000000+75000000000+76250000000+73750000000+67500000000+54687500000
1000+28750000000+11875000000+11875000000+28437500000+54687500000+66562500000
968+76875000000+81875000000+84375000000+85625000000+86250000000+87187500000
937+87812500000+88437500000+89375000000+90312500000+90937500000+91875000000
905+92500000000+93125000000+93437500000+94062500000+94375000000+94375000000
874+94375000000+94062500000+94062500000+94062500000+94062500000+94062500000
842+93750000000+93437500000+93125000000+92500000000+91875000000+91562500000
811+90937500000+90625000000+90000000000+89375000000+88437500000+87812500000
779+87187500000+86875000000+86562500000+85312500000+82187500000+79062500000
747+65312500000+38437500000+30312500000+44375000000+70937500000+79375000000
716+82500000000+83437500000+84062500000+84375000000+84375000000+84375000000
684+84062500000+83750000000+83437500000+83125000000+82500000000+82187500000
653+81562500000+81250000000+80937500000+80625000000+80625000000+80625000000
621+80625000000+80625000000+80625000000+80625000000+80312500000+80000000000
589+79687500000+79375000000+78750000000+78437500000+78125000000+77500000000
558+77187500000+76875000000+76562500000+76250000000+75312500000+70312500000
526+68750000000+64687500000+64687500000+68125000000+68437500000+70312500000
495+67812500000+60000000000+40625000000+20625000000+20312500000+29062500000
463+27500000000+27187500000+28125000000+31250000000+34375000000+35937500000
432+39687500000+43750000000+47812500000+50312500000+53125000000+55625000000
400+57187500000
##END=
