##TITLE=1,3-diphenylthiourea
##JCAMP-DX=4.24
##DATA TYPE=INFRARED SPECTRUM
##DATE=10/06/2025
##SAMPLING PROCEDURE=ATR
##ORIGIN=SDBS
##XUNITS=1/CM
##YUNITS=TRANSMITTANCE
##RESOLUTION=5.2631578947368425
##FIRSTX=4000.0
##LASTX=400.0
##DELTAX=-5.2631578947368425
##MAXY=94.6875
##MINY=0.0
##XFACTOR=1
##YFACTOR=1
##NPOINTS=685
##FIRSTY=0.0
##XYDATA=(X++(Y..Y))
4000+0+80000000000+80000000000+80000000000+80000000000+80312500000
3968+80625000000+80625000000+80625000000+80312500000+80312500000+80312500000
3937+80312500000+80312500000+80000000000+80000000000+80000000000+80000000000
3905+80000000000+80000000000+80000000000+79687500000+79375000000+79375000000
3874+79375000000+79375000000+79375000000+79375000000+79375000000+79062500000
3842+79062500000+79062500000+79062500000+79062500000+79375000000+79375000000
3811+79375000000+79062500000+79062500000+79062500000+79062500000+79062500000
3779+79375000000+79375000000+79062500000+79062500000+78750000000+78750000000
3747+78750000000+78750000000+78750000000+79062500000+79062500000+79062500000
3716+79062500000+79375000000+79375000000+79375000000+79375000000+79375000000
3684+79375000000+79375000000+79375000000+79062500000+79062500000+79062500000
3653+78750000000+78750000000+78750000000+78437500000+78437500000+78437500000
3621+78437500000+78437500000+78437500000+78437500000+78437500000+78750000000
3589+78750000000+79062500000+79062500000+79062500000+79375000000+79375000000
3558+79375000000+79062500000+78750000000+78125000000+77500000000+76875000000
3526+76250000000+75625000000+74375000000+72812500000+70625000000+67812500000
3495+63750000000+58750000000+54062500000+50312500000+46562499999+42812500000
3463+38437500000+35000000000+32187500000+31875000000+32500000000+36562500000
3432+39062500000+43437499999+46250000000+49062500000+50937500000+53437500000
3400+55000000000+56562500000+56562500000+56875000000+57812500000+58750000000
3368+60625000000+61562500000+61875000000+58125000000+57500000000+54375000000
3337+47812500000+43437499999+43750000000+45312500000+42187500000+40937500000
3305+40625000000+37187499999+29062500000+20312500000+11875000000+8125000000
3274+7500000000+7500000000+6562500000+5000000000+4687500000+5000000000
3242+6562500000+8125000000+10625000000+12500000000+13750000000+11562500000
3211+10625000000+9062500000+9687500000+15000000000+28750000000+43437499999
3179+52812500000+58125000000+61875000000+64375000000+66562500000+69062500000
3147+71250000000+72500000000+73750000000+74375000000+74062500000+73437500000
3116+73437500000+73437500000+74375000000+75312500000+75625000000+75625000000
3084+75312500000+75312500000+75312500000+75625000000+75937500000+76562500000
3053+76875000000+77187500000+77187500000+77500000000+77812500000+78437500000
3021+78750000000+79375000000+80000000000+80312500000+80937500000+81250000000
2989+81562500000+81875000000+82187500000+82500000000+82812500000+83125000000
2958+83125000000+83125000000+83437500000+83750000000+83750000000+84062500000
2926+84062500000+84375000000+84375000000+84375000000+84375000000+84375000000
2895+84375000000+84375000000+84687500000+84687500000+84687500000+85000000000
2863+85000000000+85000000000+85000000000+85312500000+85312500000+85312500000
2832+85312500000+85625000000+85625000000+85625000000+85625000000+85937500000
2800+85937500000+86250000000+86250000000+86250000000+86250000000+86250000000
2768+86250000000+86562500000+86562500000+86562500000+86875000000+86875000000
2737+86875000000+86875000000+87187500000+87187500000+87187500000+87187500000
2705+87500000000+87500000000+87812500000+87812500000+87812500000+88125000000
2674+87812500000+87812500000+88125000000+88125000000+88125000000+88125000000
2642+88125000000+88125000000+88125000000+88437500000+88437500000+88750000000
2611+89062500000+89062500000+89375000000+89375000000+89062500000+89062500000
2579+88750000000+88437500000+88125000000+87812500000+86562500000+85000000000
2547+85000000000+87500000000+88437500000+88750000000+89062500000+89375000000
2516+89375000000+89375000000+89062500000+89062500000+88437500000+88125000000
2484+88125000000+87812500000+87500000000+87500000000+88125000000+88437500000
2453+88750000000+89062500000+89687500000+90000000000+90312500000+90312500000
2421+90625000000+90625000000+90625000000+90625000000+90625000000+90625000000
2389+90312500000+90312500000+90000000000+90000000000+90000000000+90000000000
2358+90000000000+90000000000+90312500000+90312500000+90312500000+90312500000
2326+90000000000+89687500000+89687500000+89375000000+89375000000+89062500000
2295+89062500000+89062500000+89375000000+89375000000+89687500000+90000000000
2263+90312500000+90625000000+90625000000+90937500000+90937500000+90937500000
2232+91250000000+91250000000+91250000000+90937500000+90937500000+90937500000
2200+90625000000+90625000000+90625000000+90625000000+90625000000+90625000000
2168+90625000000+90625000000+90625000000+90937500000+90937500000+90937500000
2137+90937500000+90937500000+90937500000+90937500000+90937500000+90937500000
2105+90937500000+90937500000+90625000000+90625000000+90312500000+90000000000
2074+89375000000+88125000000+76250000000+45625000000+46875000000+65937500000
2042+61875000000+74062500000+84687500000+82812500000+78750000000+69062500000
2011+55312500000+41250000000+35000000000+32812500000+32500000000+32500000000
1979+35000000000+39687500000+45625000000+47187500000+47812500000+51250000000
1947+59062500000+66250000000+69687500000+71562500000+73750000000+74062500000
1916+57187500000+45625000000+60000000000+67500000000+65312500000+58125000000
1884+47500000000+35000000000+25312500000+24062500000+24062500000+24375000000
1853+20625000000+20625000000+32187500000+39375000000+46875000000+55312500000
1821+64687500000+72187500000+75625000000+77187500000+78125000000+78125000000
1789+76875000000+75000000000+72187500000+71250000000+68125000000+56562500000
1758+44687500000+36250000000+34687500000+37500000000+49687499999+50937500000
1726+53750000000+54375000000+45312500000+36250000000+32187500000+32187500000
1695+36875000000+41562500000+43437499999+48437500000+53750000000+50312500000
1663+45937500000+46250000000+50000000000+51562500000+49375000000+47500000000
1632+47812500000+52500000000+55000000000+54375000000+53437500000+56250000000
1600+60000000000+63125000000+64687500000+66875000000+66875000000+62187500000
1568+57500000000+57187500000+57812500000+59687500000+60937500000+61875000000
1537+61562500000+61562500000+64375000000+66875000000+67500000000+68750000000
1505+69687500000+70937500000+71875000000+72812500000+73437500000+74375000000
1474+74687500000+67500000000+67187500000+72500000000+74062500000+74375000000
1442+74375000000+75312500000+75937500000+76875000000+78125000000+78437500000
1411+78750000000+79062500000+79062500000+79062500000+79375000000+79375000000
1379+79375000000+79375000000+79375000000+79375000000+79062500000+78437500000
1347+77812500000+76875000000+74687500000+70000000000+68125000000+68125000000
1316+70312500000+73750000000+75937500000+76562500000+76875000000+76875000000
1284+76875000000+76250000000+75937500000+73437500000+61562500000+60625000000
1253+70312500000+74062500000+75312500000+75625000000+61562500000+71875000000
1221+77187500000+78750000000+79375000000+79375000000+78750000000+76562500000
1189+75937500000+77187500000+78750000000+79687500000+80625000000+80937500000
1158+81875000000+82187500000+81875000000+77187500000+65000000000+65000000000
1126+74687500000+79062500000+81250000000+82500000000+82812500000+83125000000
1095+84062500000+84687500000+85312500000+85625000000+85937500000+86562500000
1063+86875000000+86875000000+86875000000+86875000000+86562500000+86562500000
1032+86562500000+86562500000+86875000000+87187500000+87812500000+88437500000
1000+89062500000+89687500000+90000000000+89062500000+85312500000+83437500000
968+86562500000+88750000000+89375000000+89062500000+88750000000+88437500000
937+88125000000+87812500000+87500000000+87187500000+85000000000+77187500000
905+64375000000+64375000000+64062500000+41562500000+62812500000+81875000000
874+83750000000+82500000000+81250000000+80625000000+79375000000+76250000000
842+74687500000+75000000000+76250000000+66875000000+51250000000+42812500000
811+16250000000+12500000000+30937500000+30937500000+51562500000+61562500000
779+64375000000+67500000000+73125000000+77187500000+78125000000+75625000000
747+70312500000+62812500000+56250000000+56250000000+60625000000+67812500000
716+47500000000+49687499999+73437500000+80625000000+73750000000+68437500000
684+68437500000+80937500000+80937500000+80937500000+80625000000+80312500000
653+80000000000+79687500000+79375000000+79375000000+79375000000+79375000000
621+79375000000+79687500000+80000000000+80625000000+80937500000+81875000000
589+82812500000+83437500000+83750000000+84062500000+83750000000+83437500000
558+83437500000+83437500000+83125000000+83750000000+85937500000+87500000000
526+85625000000+78437500000+67187500000+69687500000+75625000000+80000000000
495+81875000000+84375000000+87500000000+89687500000+90625000000+92187500000
463+93437500000+94375000000+94687500000+94375000000+93437500000+91562500000
432+89062500000+85312500000+82187500000+78125000000+74687500000+72187500000
400+71250000000
##END=
