##TITLE=1,4-dioxane
##JCAMP-DX=4.24
##DATA TYPE=INFRARED SPECTRUM
##DATE=10/06/2025
##SAMPLING PROCEDURE=ATR
##ORIGIN=SDBS
##XUNITS=1/CM
##YUNITS=TRANSMITTANCE
##RESOLUTION=5.2631578947368425
##FIRSTX=4000.0
##LASTX=400.0
##DELTAX=-5.2631578947368425
##MAXY=94.6875
##MINY=0.0
##XFACTOR=1
##YFACTOR=1
##NPOINTS=685
##FIRSTY=0.0
##XYDATA=(X++(Y..Y))
4000+0+89375000000+89375000000+89375000000+89375000000+89687500000
3968+90312500000+90937500000+91250000000+91250000000+91562500000+91562500000
3937+91562500000+91562500000+91562500000+91562500000+91250000000+91250000000
3905+91250000000+91250000000+91250000000+91250000000+90937500000+90937500000
3874+90625000000+90312500000+90312500000+90000000000+90000000000+90000000000
3842+90312500000+90312500000+90625000000+90312500000+90000000000+90000000000
3811+90000000000+90000000000+90312500000+90625000000+90625000000+90312500000
3779+90000000000+89687500000+89062500000+88750000000+88437500000+88125000000
3747+88125000000+87812500000+87187500000+86250000000+85937500000+85625000000
3716+85000000000+85000000000+85000000000+85000000000+85000000000+85000000000
3684+85000000000+85000000000+85000000000+84687500000+84687500000+84687500000
3653+84687500000+84687500000+84687500000+84687500000+85000000000+85000000000
3621+85000000000+85000000000+85312500000+85312500000+85000000000+84687500000
3589+84375000000+84375000000+84375000000+84375000000+84375000000+84687500000
3558+84687500000+84687500000+84687500000+84375000000+84375000000+84375000000
3526+84375000000+84062500000+83750000000+83750000000+83437500000+83125000000
3495+83125000000+82812500000+82500000000+82500000000+82187500000+82187500000
3463+82187500000+82500000000+82812500000+83125000000+83125000000+83437500000
3432+83437500000+83750000000+83750000000+84375000000+84375000000+84687500000
3400+84687500000+85000000000+85000000000+85312500000+85000000000+85937500000
3368+86250000000+86562500000+85625000000+85937500000+85000000000+85312500000
3337+84687500000+84062500000+82500000000+80937500000+77812500000+74062500000
3305+66875000000+54375000000+37187499999+25000000000+19062500000+17187500000
3274+17500000000+21562500000+30000000000+34687500000+28750000000+24687500000
3242+24687500000+26875000000+23125000000+23125000000+27500000000+23437500000
3211+16250000000+13750000000+14687500000+18437500000+28437500000+39062500000
3179+52500000000+61562500000+67812500000+74687500000+78125000000+77812500000
3147+74375000000+67187500000+62812500000+62812500000+65625000000+69375000000
3116+77187500000+81875000000+80625000000+71562500000+66562500000+66562500000
3084+69687500000+74062500000+79687500000+83750000000+85625000000+87500000000
3053+89062500000+89687500000+90000000000+90312500000+90312500000+89062500000
3021+88750000000+87500000000+86875000000+87500000000+89687500000+90312500000
2989+90312500000+90937500000+91250000000+91562500000+91562500000+91250000000
2958+91250000000+90937500000+90625000000+90625000000+90625000000+90625000000
2926+90937500000+91250000000+91562500000+91562500000+91562500000+91562500000
2895+91250000000+90000000000+88437500000+88437500000+89375000000+90000000000
2863+90312500000+90312500000+90312500000+90312500000+90312500000+90625000000
2832+90625000000+90625000000+90625000000+90312500000+88437500000+87812500000
2800+87187500000+87500000000+90000000000+90625000000+90625000000+90000000000
2768+89062500000+89062500000+89687500000+90000000000+90312500000+90625000000
2737+90937500000+91250000000+91875000000+92812500000+92187500000+91250000000
2705+90312500000+90312500000+90937500000+92187500000+92500000000+91875000000
2674+91562500000+91562500000+91562500000+91875000000+92500000000+92812500000
2642+93125000000+93437500000+92812500000+92187500000+91562500000+90000000000
2611+88750000000+87812500000+85937500000+80625000000+73750000000+71562500000
2579+72500000000+77187500000+80937500000+82500000000+81250000000+78125000000
2547+77187500000+78750000000+82500000000+86250000000+88125000000+89062500000
2516+89687500000+90625000000+90625000000+90937500000+90937500000+91250000000
2484+90000000000+87500000000+85625000000+85625000000+88437500000+90312500000
2453+90312500000+91250000000+91875000000+92187500000+92500000000+92812500000
2421+93125000000+93125000000+93125000000+93437500000+93437500000+93437500000
2389+93750000000+93750000000+93750000000+93750000000+94062500000+94062500000
2358+94062500000+94062500000+94062500000+94062500000+94062500000+94062500000
2326+94062500000+94062500000+94062500000+94062500000+94062500000+94062500000
2295+94062500000+94062500000+94062500000+94062500000+94062500000+94062500000
2263+94062500000+94062500000+94062500000+93437500000+92187500000+89062500000
2232+87500000000+87500000000+88750000000+90937500000+90000000000+89687500000
2200+90312500000+92187500000+93125000000+93437500000+94062500000+94375000000
2168+94687500000+94687500000+94687500000+94687500000+94375000000+94062500000
2137+94062500000+93750000000+93437500000+93125000000+93125000000+92812500000
2105+92812500000+92500000000+92500000000+92500000000+92500000000+92500000000
2074+92500000000+92500000000+93125000000+93125000000+93437500000+93750000000
2042+94062500000+94062500000+94062500000+93750000000+93750000000+93437500000
2011+93437500000+93437500000+93125000000+93125000000+93125000000+93125000000
1979+93125000000+92812500000+92812500000+92500000000+92187500000+91562500000
1947+90937500000+90625000000+90312500000+90000000000+89687500000+88750000000
1916+88125000000+87500000000+85937500000+83750000000+81875000000+79687500000
1884+75937500000+71562500000+65312500000+54375000000+38437500000+26875000000
1853+26250000000+32812500000+32812500000+36250000000+48124999999+65312500000
1821+75000000000+79687500000+82500000000+84375000000+85312500000+85625000000
1789+85625000000+85312500000+84375000000+83125000000+82812500000+82187500000
1758+80312500000+73750000000+63750000000+59375000000+39062500000+35312500000
1726+43125000000+60312500000+74375000000+81250000000+84062500000+85000000000
1695+84062500000+82812500000+80312500000+73750000000+72500000000+73437500000
1663+76250000000+75312500000+72812500000+66250000000+56562500000+44375000000
1632+29687500000+24687500000+25625000000+40625000000+57500000000+65312500000
1600+63125000000+52812500000+32500000000+12812500000+8125000000+9062500000
1568+24375000000+48750000000+64375000000+73125000000+79062500000+81562500000
1537+82812500000+84062500000+84375000000+84687500000+85312500000+86250000000
1505+85937500000+85625000000+85000000000+84062500000+83437500000+82812500000
1474+81562500000+80000000000+77500000000+75937500000+73125000000+70000000000
1442+64687500000+59375000000+50312500000+38125000000+25000000000+11562500000
1411+7500000000+5937500000+4687500000+4687500000+4687500000+6250000000
1379+9687500000+15000000000+20625000000+29062500000+37187499999+35312500000
1347+19062500000+12812500000+14687500000+31562500000+50937500000+62812500000
1316+67500000000+65937500000+58125000000+36250000000+25000000000+25625000000
1284+42187500000+58750000000+70312500000+76250000000+80000000000+81875000000
1253+82812500000+83125000000+83437500000+84062500000+85937500000+87500000000
1221+89062500000+90000000000+90625000000+90937500000+91250000000+91562500000
1189+91250000000+90937500000+90625000000+90312500000+90000000000+89687500000
1158+89062500000+88750000000+88125000000+87187500000+86250000000+85312500000
1126+84687500000+83437500000+82187500000+80625000000+79062500000+75937500000
1095+70000000000+62500000000+49062500000+24062500000+9062500000+8750000000
1063+12187500000+5937500000+4687500000+4687500000+8437500000+19062500000
1032+37500000000+51875000000+60312500000+65937500000+71250000000+75312500000
1000+77500000000+78750000000+80625000000+83437500000+85000000000+85937500000
968+86875000000+87500000000+88125000000+88437500000+89062500000+89375000000
937+89687500000+90000000000+90312500000+90625000000+90937500000+90937500000
905+91250000000+91250000000+91250000000+91562500000+91562500000+91562500000
874+91562500000+91562500000+91250000000+91250000000+90937500000+90937500000
842+90625000000+90625000000+90312500000+90312500000+90000000000+89687500000
811+89687500000+89375000000+89062500000+89062500000+88750000000+88750000000
779+88750000000+88750000000+88750000000+88437500000+88437500000+87812500000
747+86250000000+85000000000+83125000000+82187500000+81562500000+80937500000
716+78750000000+71875000000+61875000000+37500000000+14062500000+11250000000
684+15000000000+49375000000+67812500000+75937500000+78437500000+80625000000
653+82187500000+83437500000+83750000000+84375000000+85000000000+85312500000
621+85625000000+85625000000+86250000000+86562500000+86875000000+87187500000
589+87500000000+87500000000+87500000000+87187500000+86875000000+86250000000
558+85625000000+84687500000+84062500000+83750000000+83437500000+83125000000
526+82812500000+82500000000+82187500000+82187500000+82187500000+82187500000
495+82500000000+82500000000+82500000000+82500000000+82500000000+82187500000
463+81562500000+80312500000+78437500000+75937500000+73437500000+70625000000
432+68125000000+65937500000+65000000000+64375000000+64062500000+64062500000
400+63750000000
##END=
