##TITLE=1,7-octadiene
##JCAMP-DX=4.24
##DATA TYPE=INFRARED SPECTRUM
##DATE=10/06/2025
##SAMPLING PROCEDURE=ATR
##ORIGIN=SDBS
##XUNITS=1/CM
##YUNITS=TRANSMITTANCE
##RESOLUTION=5.2631578947368425
##FIRSTX=4000.0
##LASTX=400.0
##DELTAX=-5.2631578947368425
##MAXY=95.0
##MINY=0.0
##XFACTOR=1
##YFACTOR=1
##NPOINTS=685
##FIRSTY=0.0
##XYDATA=(X++(Y..Y))
4000+0+93125000000+93125000000+93125000000+93437500000+93437500000
3968+93437500000+93750000000+93750000000+93437500000+93437500000+93437500000
3937+93437500000+93750000000+93750000000+93750000000+93750000000+93750000000
3905+93750000000+94062500000+94062500000+94062500000+94062500000+93750000000
3874+93750000000+93750000000+94062500000+94375000000+94687500000+94687500000
3842+94375000000+94062500000+94062500000+93750000000+93750000000+94062500000
3811+94062500000+94062500000+94062500000+94062500000+94062500000+94062500000
3779+94062500000+94375000000+94375000000+94375000000+94375000000+94062500000
3747+94062500000+94062500000+94062500000+94062500000+94062500000+94062500000
3716+94062500000+94062500000+94062500000+94062500000+94062500000+94062500000
3684+94062500000+93750000000+93750000000+93750000000+93437500000+93437500000
3653+93125000000+93125000000+92812500000+92812500000+92812500000+92812500000
3621+92812500000+92812500000+92812500000+93125000000+93437500000+93437500000
3589+93750000000+94062500000+94375000000+94375000000+94375000000+94375000000
3558+94375000000+94375000000+94375000000+94375000000+94375000000+94687500000
3526+94687500000+94687500000+94687500000+94687500000+94375000000+94375000000
3495+94375000000+94375000000+94375000000+94375000000+94687500000+94687500000
3463+94687500000+94375000000+94375000000+94375000000+94375000000+94375000000
3432+94375000000+94375000000+94062500000+94062500000+93750000000+93750000000
3400+93437500000+93125000000+92187500000+90937500000+87500000000+81875000000
3368+61875000000+36562500000+34687500000+51250000000+58125000000+73125000000
3337+81562500000+84375000000+83750000000+80937500000+71250000000+58750000000
3305+52187500000+52812500000+35312500000+31875000000+43437499999+60000000000
3274+49375000000+27812500000+9375000000+4687500000+5000000000+9375000000
3242+19375000000+28750000000+38125000000+45625000000+52187500000+42500000000
3211+26250000000+23750000000+29375000000+43125000000+55937500000+69687500000
3179+80000000000+85937500000+88437500000+89687500000+91250000000+92187500000
3147+92500000000+92812500000+93125000000+93125000000+93437500000+93437500000
3116+93437500000+93437500000+93437500000+93437500000+93125000000+93125000000
3084+93125000000+93125000000+93125000000+93437500000+93437500000+93437500000
3053+93750000000+93750000000+94062500000+94062500000+94062500000+94062500000
3021+94062500000+94062500000+94062500000+94062500000+94062500000+94062500000
2989+94375000000+94375000000+94375000000+94375000000+94375000000+94375000000
2958+94375000000+94687500000+94687500000+94687500000+94687500000+94687500000
2926+94687500000+94687500000+94687500000+94687500000+94687500000+94687500000
2895+94687500000+94687500000+94375000000+94062500000+93750000000+93750000000
2863+93437500000+93437500000+93437500000+93437500000+93437500000+93437500000
2832+93437500000+93125000000+93125000000+93437500000+93437500000+93437500000
2800+93437500000+93750000000+93750000000+93750000000+94062500000+94062500000
2768+94062500000+94062500000+94062500000+94062500000+94062500000+94062500000
2737+94062500000+94062500000+94062500000+94062500000+94062500000+94062500000
2705+94062500000+94062500000+94062500000+94062500000+94062500000+93750000000
2674+93750000000+93750000000+93750000000+93750000000+93437500000+93437500000
2642+93437500000+93437500000+93437500000+93437500000+93437500000+93125000000
2611+92812500000+92500000000+92187500000+92187500000+92187500000+92187500000
2579+92187500000+92187500000+92500000000+92500000000+92812500000+93125000000
2547+93125000000+93437500000+93437500000+93437500000+93437500000+93437500000
2516+93437500000+93437500000+93125000000+93125000000+93125000000+93125000000
2484+92812500000+92812500000+92812500000+92812500000+92812500000+92812500000
2453+92812500000+92812500000+92812500000+92812500000+92812500000+92812500000
2421+92500000000+92187500000+91875000000+90937500000+89687500000+88750000000
2389+86875000000+84375000000+80937500000+79687500000+79687500000+80312500000
2358+82812500000+85937500000+87812500000+89687500000+90625000000+91250000000
2326+91875000000+92187500000+92500000000+92500000000+92812500000+92812500000
2295+92812500000+93125000000+93125000000+92812500000+92812500000+92812500000
2263+92812500000+92500000000+92500000000+92187500000+92187500000+92187500000
2232+91875000000+91875000000+91562500000+91562500000+91250000000+91250000000
2200+91250000000+91250000000+91250000000+91250000000+91250000000+91250000000
2168+91250000000+90625000000+90000000000+89687500000+87812500000+86562500000
2137+82812500000+75937500000+64375000000+34375000000+15312500000+20312500000
2105+55000000000+73437500000+82500000000+85625000000+85937500000+86250000000
2074+87187500000+89375000000+90312500000+90937500000+91562500000+91875000000
2042+92187500000+92187500000+92187500000+91875000000+91875000000+91562500000
2011+91250000000+91250000000+90937500000+90937500000+90937500000+90937500000
1979+90937500000+90937500000+90937500000+91250000000+91250000000+91250000000
1947+91562500000+91562500000+91562500000+91562500000+91562500000+91250000000
1916+91250000000+90937500000+90312500000+90000000000+89375000000+87500000000
1884+84062500000+80937500000+70000000000+59687500000+59687500000+61562500000
1853+61562500000+59687500000+55312500000+52500000000+52500000000+58125000000
1821+66875000000+73437500000+74687500000+66562500000+65937500000+73125000000
1789+81875000000+86562500000+88750000000+89687500000+90000000000+90312500000
1758+90312500000+90000000000+89687500000+89375000000+89062500000+88750000000
1726+88437500000+87187500000+86250000000+85937500000+85937500000+87500000000
1695+88750000000+89375000000+88750000000+88437500000+88437500000+89062500000
1663+89375000000+89062500000+88437500000+87500000000+87500000000+87500000000
1632+87812500000+88750000000+89687500000+90312500000+90312500000+90625000000
1600+90625000000+90625000000+90937500000+91250000000+91562500000+91875000000
1568+92187500000+92500000000+92812500000+92812500000+92500000000+92500000000
1537+92187500000+92187500000+91875000000+91562500000+91250000000+90937500000
1505+90625000000+90625000000+90312500000+90625000000+90625000000+91250000000
1474+91875000000+92812500000+93125000000+93125000000+93125000000+92812500000
1442+92812500000+92500000000+92500000000+92187500000+92187500000+91875000000
1411+91562500000+91562500000+91250000000+91250000000+90937500000+90937500000
1379+90937500000+90937500000+90937500000+90937500000+90937500000+90937500000
1347+90625000000+90625000000+90312500000+90000000000+89687500000+89062500000
1316+88750000000+88437500000+87812500000+87500000000+87187500000+87187500000
1284+86875000000+86250000000+85625000000+84062500000+81875000000+79375000000
1253+76875000000+73750000000+70312500000+65312500000+57500000000+44062500000
1221+32187500000+29687500000+31250000000+44999999999+64687500000+75937500000
1189+81250000000+83437500000+84687500000+85312500000+85625000000+85312500000
1158+84687500000+83437500000+81875000000+79062500000+75000000000+68437500000
1126+60625000000+46875000000+27812500000+11250000000+6250000000+5937500000
1095+10937500000+27187500000+42812500000+57187500000+69062500000+77187500000
1063+82500000000+85000000000+87187500000+88437500000+89062500000+89375000000
1032+89687500000+90312500000+90937500000+91250000000+91562500000+92187500000
1000+92187500000+92187500000+92187500000+92187500000+92187500000+92187500000
968+92187500000+92500000000+92812500000+92812500000+93125000000+93125000000
937+93437500000+93437500000+93437500000+93750000000+93750000000+93750000000
905+93437500000+93125000000+92812500000+92187500000+91562500000+90625000000
874+88750000000+87187500000+86875000000+86875000000+87500000000+88750000000
842+91562500000+93125000000+93750000000+94062500000+94375000000+94062500000
811+93750000000+93437500000+93125000000+93125000000+92812500000+92187500000
779+91875000000+91562500000+90625000000+89062500000+87500000000+86250000000
747+83750000000+80625000000+77500000000+75000000000+72500000000+71562500000
716+71562500000+73125000000+75625000000+79375000000+82812500000+86250000000
684+88437500000+90312500000+91250000000+92187500000+92812500000+93125000000
653+93437500000+93125000000+92500000000+91562500000+90312500000+89687500000
621+89062500000+88750000000+88750000000+89062500000+89687500000+90312500000
589+91250000000+92187500000+92812500000+93437500000+94062500000+94375000000
558+94687500000+94687500000+95000000000+94687500000+94687500000+94375000000
526+94375000000+94375000000+94062500000+93750000000+93750000000+93437500000
495+93437500000+93437500000+93437500000+93437500000+93437500000+93125000000
463+93125000000+93125000000+92812500000+92812500000+93125000000+93125000000
432+93125000000+93125000000+93125000000+93437500000+93437500000+93437500000
400+93750000000
##END=
