##TITLE=1,7-octadiyne
##JCAMP-DX=4.24
##DATA TYPE=INFRARED SPECTRUM
##DATE=10/06/2025
##SAMPLING PROCEDURE=ATR
##ORIGIN=SDBS
##XUNITS=1/CM
##YUNITS=TRANSMITTANCE
##RESOLUTION=5.2631578947368425
##FIRSTX=4000.0
##LASTX=400.0
##DELTAX=-5.2631578947368425
##MAXY=95.0
##MINY=0.0
##XFACTOR=1
##YFACTOR=1
##NPOINTS=685
##FIRSTY=0.0
##XYDATA=(X++(Y..Y))
4000+0+91250000000+91250000000+91562500000+91562500000+91250000000
3968+90625000000+89687500000+88437500000+86875000000+85937500000+85937500000
3937+86875000000+88125000000+90000000000+90937500000+91562500000+91875000000
3905+92187500000+92812500000+93125000000+93125000000+92812500000+92812500000
3874+92812500000+92812500000+93125000000+93125000000+93125000000+93125000000
3842+93125000000+93125000000+92812500000+92812500000+92812500000+92812500000
3811+92812500000+92812500000+92812500000+92812500000+92500000000+92187500000
3779+91562500000+90625000000+90000000000+89375000000+89062500000+89062500000
3747+89062500000+89062500000+88750000000+88125000000+87500000000+86562500000
3716+85937500000+85000000000+83125000000+81250000000+80312500000+79687500000
3684+79062500000+78750000000+78750000000+79062500000+79375000000+79687500000
3653+80312500000+80625000000+80625000000+80625000000+80625000000+80625000000
3621+80312500000+80312500000+80312500000+80000000000+80000000000+80000000000
3589+79687500000+79687500000+79375000000+78750000000+78125000000+77187500000
3558+76250000000+75000000000+72812500000+69062500000+61875000000+48124999999
3526+24375000000+9062500000+5000000000+4687500000+5625000000+9687500000
3495+17500000000+31875000000+45937500000+56875000000+64062500000+70625000000
3463+74687500000+77187500000+78750000000+80312500000+81250000000+82500000000
3432+83125000000+83750000000+84062500000+84375000000+84687500000+84687500000
3400+84687500000+85000000000+85000000000+85312500000+85312500000+85312500000
3368+85312500000+85000000000+85000000000+85000000000+85000000000+84687500000
3337+84375000000+84375000000+84062500000+83437500000+82812500000+81875000000
3305+80312500000+78125000000+74062500000+68125000000+55000000000+35312500000
3274+17812500000+16250000000+16875000000+19375000000+23437500000+28437500000
3242+34375000000+39687500000+52500000000+58750000000+50625000000+37812500000
3211+37187499999+44999999999+60312500000+60625000000+68125000000+76250000000
3179+81875000000+84375000000+85625000000+86562500000+87500000000+87812500000
3147+88125000000+88125000000+88125000000+88437500000+88437500000+88750000000
3116+88750000000+89062500000+89062500000+88750000000+88437500000+88437500000
3084+88437500000+88437500000+88437500000+88437500000+88437500000+88437500000
3053+88750000000+89062500000+89375000000+89687500000+90000000000+90312500000
3021+90312500000+90625000000+90625000000+90937500000+90937500000+91250000000
2989+91562500000+91562500000+91562500000+91562500000+91562500000+91562500000
2958+91875000000+91875000000+92187500000+92187500000+92500000000+92500000000
2926+92500000000+92500000000+92812500000+93125000000+93125000000+93125000000
2895+93125000000+93125000000+93125000000+93125000000+93125000000+93125000000
2863+93125000000+93125000000+93437500000+93437500000+93437500000+93437500000
2832+93750000000+93437500000+93437500000+93437500000+93437500000+93437500000
2800+93437500000+93437500000+93437500000+93437500000+93437500000+93437500000
2768+93437500000+93437500000+93750000000+93750000000+93750000000+93437500000
2737+93437500000+93437500000+93437500000+93125000000+92812500000+92187500000
2705+89687500000+79375000000+59375000000+60937500000+78750000000+89062500000
2674+91562500000+92812500000+93125000000+93437500000+93750000000+94062500000
2642+94062500000+94375000000+94375000000+94375000000+94375000000+94375000000
2611+94375000000+94375000000+94375000000+94375000000+94375000000+94375000000
2579+94375000000+94375000000+94375000000+94375000000+94375000000+94375000000
2547+94375000000+94687500000+94687500000+94687500000+94687500000+94687500000
2516+94687500000+94687500000+94687500000+94687500000+94687500000+94687500000
2484+94687500000+94687500000+94687500000+94687500000+94687500000+94687500000
2453+94687500000+95000000000+95000000000+94687500000+94687500000+94687500000
2421+94687500000+94687500000+94375000000+94375000000+94375000000+94375000000
2389+94375000000+94375000000+94062500000+94062500000+93750000000+93437500000
2358+93125000000+92187500000+91250000000+90312500000+89062500000+87500000000
2326+85937500000+85000000000+84687500000+84687500000+84375000000+83750000000
2295+82812500000+81562500000+79687500000+77812500000+76562500000+74375000000
2263+71562500000+68750000000+65625000000+62500000000+60937500000+60625000000
2232+60625000000+60625000000+60625000000+60625000000+61250000000+63125000000
2200+67187500000+70937500000+74062500000+75937500000+77500000000+78125000000
2168+78125000000+78125000000+78750000000+79687500000+80625000000+80937500000
2137+81250000000+82187500000+82812500000+83437500000+83437500000+83750000000
2105+84062500000+84062500000+84375000000+84687500000+84687500000+85000000000
2074+85000000000+85312500000+85625000000+85625000000+86250000000+87187500000
2042+88750000000+89375000000+90312500000+90937500000+91250000000+91562500000
2011+91562500000+92500000000+93125000000+93437500000+93437500000+93125000000
1979+93125000000+92500000000+92187500000+91562500000+91250000000+91250000000
1947+90937500000+90937500000+90937500000+90625000000+90625000000+89375000000
1916+88750000000+88750000000+88750000000+88125000000+87500000000+85625000000
1884+83437500000+80312500000+71562500000+56250000000+51875000000+54062500000
1853+59375000000+55625000000+55312500000+57500000000+48437500000+43750000000
1821+44375000000+55937500000+67187500000+71875000000+74687500000+75937500000
1789+76875000000+77500000000+77812500000+78125000000+77812500000+77187500000
1758+76562500000+75937500000+75000000000+72812500000+72187500000+72500000000
1726+72500000000+72187500000+70000000000+68750000000+69062500000+68437500000
1695+65625000000+58750000000+50937500000+50625000000+55312500000+61250000000
1663+63750000000+61250000000+61250000000+61875000000+61562500000+61250000000
1632+60625000000+60000000000+58750000000+57500000000+55625000000+55312500000
1600+55625000000+56250000000+56875000000+57187500000+57500000000+58125000000
1568+59062500000+60000000000+60937500000+62187500000+63437500000+65000000000
1537+66250000000+67812500000+70000000000+71250000000+71875000000+72187500000
1505+72187500000+72187500000+73750000000+74375000000+73750000000+73437500000
1474+72812500000+72500000000+72187500000+71562500000+70937500000+70312500000
1442+70312500000+70937500000+73125000000+75937500000+78125000000+80000000000
1411+81250000000+82812500000+84062500000+84687500000+85000000000+85000000000
1379+85000000000+84687500000+84375000000+83750000000+83125000000+81875000000
1347+80312500000+78750000000+77500000000+76875000000+76875000000+77187500000
1316+77500000000+77812500000+78437500000+79062500000+79687500000+79375000000
1284+78125000000+77187500000+76562500000+76562500000+76562500000+77500000000
1253+78437500000+79375000000+80625000000+81875000000+82812500000+83437500000
1221+84375000000+85000000000+85625000000+85000000000+84687500000+84375000000
1189+84375000000+84375000000+84687500000+85312500000+86250000000+87187500000
1158+88437500000+89062500000+89062500000+89062500000+89062500000+89375000000
1126+89687500000+89687500000+89375000000+88437500000+88125000000+87500000000
1095+86875000000+86875000000+86875000000+87187500000+87812500000+88437500000
1063+89062500000+89687500000+90625000000+91250000000+91562500000+91562500000
1032+91250000000+91250000000+91250000000+91250000000+91250000000+91562500000
1000+91875000000+91875000000+92187500000+92187500000+92187500000+92187500000
968+92187500000+91875000000+91562500000+91250000000+91250000000+91250000000
937+91562500000+91875000000+92187500000+92187500000+91562500000+90625000000
905+89062500000+89062500000+88750000000+88125000000+87812500000+87500000000
874+87187500000+86562500000+84687500000+83437500000+83125000000+82812500000
842+82500000000+81875000000+80937500000+78750000000+75312500000+71875000000
811+68125000000+64375000000+58750000000+52812500000+46250000000+41250000000
779+35000000000+30625000000+25625000000+21250000000+17812500000+15000000000
747+13750000000+13125000000+12500000000+11562500000+11250000000+10937500000
716+11250000000+12187500000+14062500000+18125000000+23437500000+31250000000
684+40312499999+51250000000+61562500000+69062500000+73750000000+77500000000
653+80312500000+83125000000+84375000000+85625000000+86562500000+87500000000
621+87187500000+86562500000+85937500000+85937500000+85937500000+86875000000
589+87187500000+88125000000+88437500000+86875000000+80937500000+76562500000
558+76562500000+76562500000+76250000000+76250000000+75937500000+77500000000
526+80937500000+83125000000+85000000000+86875000000+88750000000+89375000000
495+90312500000+90937500000+91562500000+91875000000+92187500000+92500000000
463+92812500000+93125000000+93125000000+92500000000+91875000000+90625000000
432+89062500000+87812500000+87187500000+86562500000+85937500000+85937500000
400+85625000000
##END=
