##TITLE=1-acetamidotricyclo[3.3.1.1[3,7]]decane
##JCAMP-DX=4.24
##DATA TYPE=INFRARED SPECTRUM
##DATE=10/06/2025
##SAMPLING PROCEDURE=ATR
##ORIGIN=SDBS
##XUNITS=1/CM
##YUNITS=TRANSMITTANCE
##RESOLUTION=5.2631578947368425
##FIRSTX=4000.0
##LASTX=400.0
##DELTAX=-5.2631578947368425
##MAXY=95.0
##MINY=0.0
##XFACTOR=1
##YFACTOR=1
##NPOINTS=685
##FIRSTY=0.0
##XYDATA=(X++(Y..Y))
4000+0+94687500000+94687500000+94687500000+94375000000+94687500000
3968+94687500000+94687500000+94687500000+94687500000+94375000000+94062500000
3937+94062500000+94062500000+94062500000+93750000000+93437500000+93437500000
3905+93125000000+93125000000+93125000000+93125000000+92812500000+92812500000
3874+92812500000+92812500000+92812500000+92812500000+92812500000+92500000000
3842+92187500000+92187500000+91875000000+91875000000+91875000000+91875000000
3811+91875000000+91875000000+91875000000+91875000000+91562500000+91562500000
3779+91562500000+91562500000+91250000000+91250000000+90937500000+90937500000
3747+90937500000+90625000000+90625000000+90625000000+90625000000+90312500000
3716+90312500000+90312500000+90000000000+90000000000+90000000000+89687500000
3684+89687500000+89375000000+89375000000+89375000000+89062500000+88750000000
3653+88437500000+88437500000+88125000000+87812500000+87500000000+87500000000
3621+87500000000+87187500000+86875000000+86875000000+86562500000+86250000000
3589+85937500000+85625000000+85312500000+84687500000+84062500000+83125000000
3558+81562500000+80000000000+76875000000+71562500000+62812500000+49687499999
3526+38749999999+38749999999+43125000000+47812500000+49062500000+49062500000
3495+49687499999+52812500000+58437500000+63750000000+66562500000+68750000000
3463+70000000000+70625000000+70937500000+71250000000+71562500000+72500000000
3432+73437500000+75000000000+76562500000+77812500000+78750000000+79375000000
3400+79687500000+80000000000+80312500000+80625000000+80000000000+79062500000
3368+76562500000+74375000000+73437500000+73437500000+74375000000+75312500000
3337+77812500000+79687500000+80937500000+80937500000+79062500000+76562500000
3305+73750000000+68125000000+57812500000+44062500000+31250000000+23750000000
3274+21250000000+21250000000+13125000000+6562500000+5000000000+4687500000
3242+4687500000+5625000000+11562500000+15937500000+28437500000+26562500000
3211+19687500000+15625000000+15625000000+24375000000+53750000000+66875000000
3179+72500000000+75625000000+77812500000+79687500000+80937500000+83437500000
3147+84687500000+85312500000+85625000000+85937500000+85625000000+85625000000
3116+85625000000+85625000000+86250000000+86562500000+86875000000+86250000000
3084+83750000000+83750000000+84062500000+83437500000+83750000000+85625000000
3053+86250000000+86562500000+86875000000+87187500000+87500000000+87500000000
3021+87812500000+88125000000+88125000000+88437500000+88437500000+88750000000
2989+89062500000+89375000000+89375000000+89687500000+89687500000+89687500000
2958+90000000000+90312500000+90312500000+90312500000+90312500000+90312500000
2926+90312500000+90312500000+90312500000+90312500000+90312500000+90312500000
2895+90312500000+90312500000+90625000000+90625000000+90625000000+90625000000
2863+90625000000+90625000000+90625000000+90937500000+90937500000+90937500000
2832+90937500000+90937500000+90937500000+90937500000+90937500000+91250000000
2800+91250000000+91562500000+91562500000+91562500000+91562500000+91875000000
2768+91875000000+91875000000+91875000000+92187500000+92187500000+92187500000
2737+92500000000+92500000000+92500000000+92500000000+92500000000+92500000000
2705+92500000000+92500000000+92812500000+92812500000+92812500000+92812500000
2674+92812500000+92812500000+92812500000+93125000000+93125000000+93125000000
2642+93125000000+93125000000+93125000000+93125000000+93125000000+93125000000
2611+93437500000+93437500000+93437500000+93437500000+93437500000+93750000000
2579+93750000000+93750000000+93750000000+93750000000+93750000000+93750000000
2547+93750000000+93750000000+93750000000+93750000000+93750000000+93750000000
2516+93750000000+93750000000+93750000000+93750000000+93750000000+93750000000
2484+94062500000+94062500000+94062500000+94062500000+94375000000+94375000000
2453+94375000000+94375000000+94375000000+94375000000+94375000000+94375000000
2421+94375000000+94375000000+94375000000+94375000000+94375000000+94375000000
2389+94375000000+94375000000+94687500000+94687500000+94687500000+94687500000
2358+94687500000+94687500000+94687500000+95000000000+95000000000+95000000000
2326+94687500000+94687500000+94687500000+94687500000+94687500000+94687500000
2295+94687500000+94687500000+94687500000+94687500000+94687500000+94687500000
2263+94687500000+94687500000+94375000000+94375000000+94062500000+94062500000
2232+93750000000+93437500000+93125000000+92812500000+92500000000+92187500000
2200+90937500000+88750000000+88125000000+87812500000+86562500000+83750000000
2168+78125000000+67187500000+66562500000+63750000000+60000000000+51875000000
2137+43125000000+33125000000+27187500000+27187500000+30312500000+35625000000
2105+39687500000+41250000000+44375000000+45625000000+52500000000+59062500000
2074+65000000000+69062500000+72500000000+75000000000+77187500000+78437500000
2042+79062500000+77812500000+75625000000+71875000000+67500000000+63125000000
2011+59687500000+56250000000+52500000000+48437500000+43750000000+41874999999
1979+41874999999+43437499999+45937500000+54062500000+62187500000+67500000000
1947+71250000000+75000000000+77187500000+78750000000+79687500000+80625000000
1916+81250000000+81875000000+81250000000+80625000000+79375000000+75000000000
1884+70625000000+62187500000+53750000000+52500000000+49687499999+45625000000
1853+45312500000+46875000000+52500000000+56562500000+59375000000+61875000000
1821+68125000000+72812500000+75625000000+78125000000+79687500000+80937500000
1789+81250000000+81562500000+82187500000+81875000000+80000000000+74687500000
1758+69062500000+60625000000+55312500000+49687499999+49062500000+56875000000
1726+51562500000+49375000000+66562500000+75937500000+71875000000+59062500000
1695+63437500000+79687500000+82187500000+83125000000+82812500000+81250000000
1663+77812500000+73750000000+65625000000+54687500000+53750000000+58437500000
1632+69687500000+72500000000+72187500000+72500000000+74062500000+76562500000
1600+78750000000+80937500000+80000000000+77187500000+77187500000+82500000000
1568+85625000000+87500000000+88125000000+89062500000+89687500000+90312500000
1537+90625000000+90937500000+90937500000+90625000000+90312500000+89687500000
1505+89062500000+89062500000+89062500000+89062500000+89062500000+88437500000
1474+88437500000+90312500000+90312500000+90312500000+90312500000+90312500000
1442+90312500000+90000000000+89375000000+88125000000+82812500000+76562500000
1411+78125000000+87500000000+90000000000+90937500000+91250000000+89062500000
1379+87500000000+80937500000+81250000000+81875000000+75625000000+83750000000
1347+89375000000+90312500000+90937500000+90937500000+91250000000+91250000000
1316+91250000000+90937500000+90625000000+90000000000+89687500000+88750000000
1284+86875000000+84062500000+83437500000+83750000000+82500000000+82500000000
1253+86250000000+88437500000+89375000000+89687500000+89062500000+81250000000
1221+78750000000+85625000000+90937500000+91250000000+91562500000+91875000000
1189+92187500000+92187500000+92500000000+92500000000+92812500000+92500000000
1158+92187500000+92187500000+92187500000+92187500000+92187500000+92500000000
1126+92812500000+93125000000+93125000000+92812500000+92812500000+92500000000
1095+92500000000+92812500000+92812500000+92812500000+93125000000+93125000000
1063+93437500000+93750000000+93750000000+94062500000+94062500000+94062500000
1032+94062500000+94375000000+94375000000+94375000000+94375000000+94687500000
1000+94687500000+94375000000+94375000000+94375000000+94062500000+87187500000
968+82500000000+88437500000+91875000000+93437500000+93750000000+93750000000
937+93750000000+93437500000+93437500000+93125000000+93125000000+92812500000
905+92812500000+92500000000+92187500000+91875000000+91562500000+90625000000
874+89062500000+85625000000+81562500000+81875000000+81875000000+81250000000
842+80937500000+80937500000+82187500000+84375000000+86250000000+87187500000
811+85937500000+82500000000+78750000000+78750000000+79375000000+84375000000
779+87500000000+87812500000+85937500000+85937500000+89687500000+91875000000
747+92500000000+93125000000+93125000000+93437500000+93750000000+93750000000
716+93750000000+93750000000+93437500000+92812500000+91562500000+86562500000
684+79687500000+77187500000+71250000000+71250000000+73437500000+80000000000
653+85937500000+88750000000+90000000000+91250000000+91875000000+92812500000
621+93125000000+93437500000+92812500000+90937500000+75937500000+74687500000
589+77187500000+89062500000+92812500000+93750000000+94375000000+94687500000
558+94375000000+94062500000+93750000000+93437500000+93125000000+92812500000
526+92500000000+92500000000+92187500000+91875000000+91250000000+90625000000
495+90000000000+89687500000+89375000000+89375000000+89375000000+89375000000
463+89062500000+88437500000+87500000000+86875000000+85937500000+85000000000
432+83750000000+81562500000+79687500000+77187500000+74687500000+73125000000
400+72500000000
##END=
