##TITLE=1-acetylimidazole
##JCAMP-DX=4.24
##DATA TYPE=INFRARED SPECTRUM
##DATE=10/06/2025
##SAMPLING PROCEDURE=ATR
##ORIGIN=SDBS
##XUNITS=1/CM
##YUNITS=TRANSMITTANCE
##RESOLUTION=5.2631578947368425
##FIRSTX=4000.0
##LASTX=400.0
##DELTAX=-5.2631578947368425
##MAXY=95.0
##MINY=0.0
##XFACTOR=1
##YFACTOR=1
##NPOINTS=685
##FIRSTY=0.0
##XYDATA=(X++(Y..Y))
4000+0+88125000000+88125000000+88125000000+88437500000+88437500000
3968+88750000000+89062500000+89375000000+89687500000+90625000000+91250000000
3937+91562500000+91875000000+92187500000+92187500000+92187500000+92187500000
3905+92500000000+92812500000+93125000000+93437500000+93750000000+93750000000
3874+93750000000+93750000000+93750000000+94062500000+94062500000+94375000000
3842+94062500000+94062500000+94062500000+94062500000+94375000000+94375000000
3811+94062500000+93750000000+92812500000+91875000000+91250000000+89687500000
3779+85312500000+81250000000+76250000000+70000000000+65312500000+60312500000
3747+56562500000+52812500000+50312500000+47812500000+46250000000+44062500000
3716+41562500000+39375000000+37500000000+35000000000+32500000000+30625000000
3684+28125000000+25937500000+24062500000+22500000000+20625000000+19375000000
3653+18125000000+16875000000+15937500000+15000000000+14062500000+13125000000
3621+12500000000+11875000000+11250000000+10625000000+10312500000+10000000000
3589+9375000000+9375000000+9062500000+8750000000+8750000000+8437500000
3558+8437500000+8437500000+8437500000+8125000000+8125000000+8125000000
3526+7812500000+7812500000+7500000000+7500000000+7187500000+7187500000
3495+6875000000+6562500000+6562500000+6250000000+5937500000+5937500000
3463+5937500000+5625000000+5625000000+5625000000+5312500000+5312500000
3432+5312500000+5000000000+4687500000+4687500000+4687500000+4687500000
3400+4687500000+4687500000+5000000000+5312500000+5937500000+6875000000
3368+7500000000+8437500000+9375000000+10312500000+10312500000+10000000000
3337+9687500000+10000000000+10312500000+10937500000+11562500000+12500000000
3305+13125000000+14375000000+15312500000+16250000000+16562500000+15937500000
3274+15000000000+14375000000+14375000000+14375000000+15000000000+15937500000
3242+17500000000+19375000000+21562500000+22187500000+20937500000+19375000000
3211+18125000000+17812500000+17812500000+18125000000+18750000000+19375000000
3179+21562500000+22812500000+24375000000+25312500000+26562500000+27812500000
3147+29062500000+30312500000+31250000000+32500000000+33750000000+34375000000
3116+35000000000+34687500000+34375000000+34062500000+34375000000+35000000000
3084+36250000000+37187499999+38125000000+38749999999+39062500000+38749999999
3053+38125000000+36875000000+36250000000+35937500000+35937500000+36562500000
3021+38125000000+38749999999+40312499999+42500000000+44062500000+45312500000
2989+46250000000+46562499999+47500000000+48437500000+48750000000+49687499999
2958+50312500000+51250000000+52812500000+53750000000+54687500000+55312500000
2926+55937500000+56562500000+58125000000+59062500000+59375000000+60000000000
2895+62187500000+63125000000+63437500000+64375000000+66562500000+67812500000
2863+68750000000+70000000000+71250000000+72500000000+73750000000+75000000000
2832+76250000000+77500000000+78437500000+79375000000+80000000000+80312500000
2800+80937500000+81562500000+81875000000+82500000000+83125000000+83750000000
2768+84062500000+84375000000+84375000000+84375000000+84375000000+84375000000
2737+84687500000+84687500000+84687500000+84375000000+84062500000+83750000000
2705+83437500000+83125000000+82500000000+81562500000+80625000000+80000000000
2674+79062500000+78437500000+77812500000+77187500000+76562500000+75937500000
2642+75000000000+74062500000+73437500000+73125000000+72500000000+72187500000
2611+72187500000+72187500000+72187500000+72187500000+72500000000+72812500000
2579+73125000000+73437500000+73750000000+74062500000+74375000000+74687500000
2547+75000000000+75312500000+75625000000+76250000000+76562500000+77187500000
2516+77500000000+78125000000+78437500000+79062500000+79375000000+80000000000
2484+80625000000+81250000000+81562500000+81875000000+82500000000+83437500000
2453+84375000000+85000000000+85625000000+86250000000+87187500000+87812500000
2421+88437500000+89062500000+89375000000+89687500000+90000000000+90625000000
2389+90937500000+91250000000+91562500000+91875000000+92187500000+92500000000
2358+93125000000+93437500000+93437500000+93750000000+94062500000+94375000000
2326+94375000000+94687500000+94687500000+94687500000+95000000000+94687500000
2295+94687500000+94062500000+93437500000+93125000000+92500000000+92187500000
2263+91250000000+90312500000+89062500000+87812500000+85625000000+83750000000
2232+82500000000+80937500000+79375000000+76875000000+75000000000+73437500000
2200+71562500000+70000000000+68437500000+66250000000+64375000000+62500000000
2168+60625000000+59687500000+58437500000+56562500000+55625000000+54687500000
2137+53437500000+52500000000+51875000000+51250000000+50312500000+50000000000
2105+49687499999+49062500000+48437500000+47187500000+45312500000+42812500000
2074+40312499999+37187499999+34687500000+32500000000+30937500000+29687500000
2042+28750000000+26562500000+24062500000+21875000000+20625000000+19687500000
2011+19375000000+19375000000+20000000000+20937500000+22500000000+23750000000
1979+25000000000+25625000000+25625000000+25937500000+27812500000+31250000000
1947+35625000000+39687500000+42187500000+43437499999+43750000000+42812500000
1916+41874999999+40625000000+39375000000+38749999999+39062500000+40625000000
1884+44999999999+49375000000+51250000000+52500000000+52187500000+50937500000
1853+48124999999+44687500000+41250000000+38749999999+37187499999+35625000000
1821+34687500000+33437500000+32187500000+30000000000+28125000000+27500000000
1789+27500000000+29375000000+32812500000+38125000000+42500000000+47812500000
1758+52500000000+56875000000+61562500000+65625000000+69375000000+72500000000
1726+75625000000+78125000000+79375000000+77812500000+72500000000+69375000000
1695+67187500000+57812500000+44062500000+42500000000+44999999999+62187500000
1663+72500000000+79375000000+83125000000+85000000000+86562500000+87500000000
1632+88750000000+89375000000+89687500000+90312500000+90312500000+89687500000
1600+87500000000+80625000000+66562500000+57500000000+57187500000+70625000000
1568+80312500000+82500000000+84062500000+86250000000+88437500000+90000000000
1537+90937500000+91250000000+91875000000+92500000000+92500000000+91875000000
1505+91250000000+90625000000+90000000000+89687500000+89062500000+88125000000
1474+87187500000+86562500000+86250000000+86250000000+86250000000+86562500000
1442+86875000000+86562500000+85000000000+80312500000+78437500000+78437500000
1411+79375000000+81250000000+83125000000+84375000000+85937500000+85000000000
1379+80937500000+73125000000+61875000000+53437500000+52812500000+54687500000
1347+61875000000+65000000000+60625000000+49687499999+30000000000+18125000000
1316+16875000000+17500000000+33750000000+58125000000+70312500000+76250000000
1284+81250000000+84375000000+85937500000+85000000000+82500000000+79687500000
1253+77812500000+77500000000+78125000000+80937500000+84375000000+86562500000
1221+88750000000+90312500000+91562500000+92187500000+92812500000+93437500000
1189+93750000000+93750000000+93437500000+92500000000+91250000000+89062500000
1158+86250000000+81875000000+76250000000+67812500000+59375000000+57187500000
1126+57500000000+59375000000+62187500000+63125000000+64375000000+67187500000
1095+71250000000+68750000000+66250000000+64062500000+61562500000+59375000000
1063+58125000000+56875000000+55312500000+54062500000+53437500000+51875000000
1032+49375000000+47187500000+44375000000+40625000000+36562500000+33750000000
1000+31875000000+31250000000+31250000000+31562500000+33437500000+36250000000
968+40625000000+44062500000+46250000000+47812500000+48750000000+48750000000
937+48437500000+47500000000+45625000000+43750000000+40312499999+36562500000
905+32500000000+29375000000+27187500000+25312500000+24687500000+25000000000
874+25937500000+30000000000+36250000000+42812500000+47187500000+50625000000
842+53437500000+55312500000+56250000000+56875000000+57500000000+57812500000
811+58437500000+58125000000+57812500000+57187500000+56250000000+55312500000
779+52187500000+47500000000+34062500000+24375000000+23437500000+25312500000
747+31875000000+39375000000+43437499999+46562499999+45937500000+45625000000
716+46562499999+50937500000+41874999999+37187499999+37187499999+41562500000
684+48437500000+53437500000+56562500000+58750000000+60312500000+61875000000
653+63125000000+64375000000+65312500000+66562500000+67500000000+68750000000
621+69687500000+70625000000+71562500000+72812500000+73750000000+74687500000
589+75937500000+76562500000+76875000000+76875000000+76875000000+76875000000
558+76875000000+76875000000+77187500000+77500000000+78125000000+78437500000
526+78437500000+78437500000+78437500000+78437500000+79062500000+80000000000
495+81875000000+83750000000+85625000000+87187500000+88750000000+90312500000
463+91250000000+91875000000+91562500000+90937500000+90312500000+89062500000
432+87500000000+85625000000+83750000000+81562500000+79687500000+78125000000
400+77500000000
##END=
