##TITLE=1-bromo-2-chloroethane
##JCAMP-DX=4.24
##DATA TYPE=INFRARED SPECTRUM
##DATE=10/06/2025
##SAMPLING PROCEDURE=ATR
##ORIGIN=SDBS
##XUNITS=1/CM
##YUNITS=TRANSMITTANCE
##RESOLUTION=5.2631578947368425
##FIRSTX=4000.0
##LASTX=400.0
##DELTAX=-5.2631578947368425
##MAXY=95.0
##MINY=0.0
##XFACTOR=1
##YFACTOR=1
##NPOINTS=685
##FIRSTY=0.0
##XYDATA=(X++(Y..Y))
4000+0+92187500000+92500000000+92812500000+93437500000+93750000000
3968+93437500000+93437500000+93437500000+93437500000+93437500000+93750000000
3937+94062500000+94062500000+94375000000+94062500000+94062500000+94062500000
3905+94062500000+94375000000+94375000000+94375000000+94375000000+94375000000
3874+94062500000+93750000000+93750000000+93750000000+93750000000+93437500000
3842+93437500000+93437500000+93437500000+93750000000+93750000000+94062500000
3811+94062500000+93750000000+93437500000+93437500000+93125000000+92812500000
3779+92500000000+92500000000+92500000000+92812500000+93125000000+93437500000
3747+93750000000+93750000000+93437500000+93437500000+93125000000+92812500000
3716+92812500000+92812500000+93125000000+93437500000+93750000000+94062500000
3684+94062500000+94062500000+94375000000+94375000000+94375000000+94375000000
3653+94687500000+94687500000+94687500000+94687500000+94687500000+94687500000
3621+94687500000+94687500000+94687500000+94687500000+94687500000+94687500000
3589+94375000000+94375000000+94375000000+94375000000+94375000000+94375000000
3558+94375000000+94375000000+94375000000+94375000000+94375000000+94375000000
3526+94375000000+94375000000+94375000000+94375000000+94375000000+94062500000
3495+94062500000+94062500000+94062500000+94062500000+93750000000+93750000000
3463+93750000000+93750000000+93750000000+93437500000+93437500000+93437500000
3432+93437500000+93437500000+93125000000+93125000000+93125000000+92812500000
3400+92500000000+92187500000+91875000000+91875000000+91562500000+91250000000
3368+90625000000+90000000000+89375000000+88750000000+87812500000+86562500000
3337+84687500000+84062500000+84062500000+84375000000+84062500000+82812500000
3305+80937500000+75000000000+63750000000+64687500000+66250000000+61875000000
3274+63437500000+65000000000+72812500000+81875000000+85625000000+87500000000
3242+89375000000+90312500000+90937500000+90625000000+87187500000+85312500000
3211+87500000000+87812500000+89687500000+90000000000+90312500000+90625000000
3179+92500000000+93750000000+94062500000+94375000000+94375000000+94375000000
3147+94375000000+94375000000+94375000000+94062500000+93750000000+92187500000
3116+92187500000+93125000000+93750000000+94062500000+93750000000+93750000000
3084+94062500000+94375000000+94375000000+94062500000+94062500000+94062500000
3053+94062500000+94375000000+94375000000+94375000000+94687500000+94687500000
3021+94687500000+94687500000+94375000000+94375000000+94375000000+94375000000
2989+94375000000+94375000000+94375000000+94375000000+94375000000+93750000000
2958+93437500000+92500000000+92187500000+92812500000+93437500000+93437500000
2926+93437500000+93437500000+93437500000+93437500000+93125000000+92812500000
2895+92500000000+92187500000+91250000000+91250000000+91875000000+92187500000
2863+92500000000+92812500000+93125000000+93125000000+93437500000+93437500000
2832+93750000000+94062500000+94062500000+93437500000+92812500000+92187500000
2800+92187500000+93437500000+94062500000+94375000000+94375000000+94062500000
2768+93750000000+93125000000+92812500000+92500000000+92500000000+92500000000
2737+92500000000+92500000000+92812500000+93125000000+93750000000+94375000000
2705+94375000000+94375000000+94375000000+94375000000+94062500000+94062500000
2674+94062500000+94062500000+94375000000+94375000000+94375000000+94375000000
2642+94375000000+94375000000+94062500000+94062500000+94062500000+94062500000
2611+94062500000+94375000000+94375000000+94375000000+94687500000+94687500000
2579+94687500000+94687500000+94687500000+95000000000+95000000000+94687500000
2547+94687500000+94687500000+94687500000+94375000000+94375000000+94375000000
2516+94062500000+94062500000+94062500000+94062500000+94062500000+94375000000
2484+94375000000+94375000000+94687500000+94687500000+94687500000+94687500000
2453+94687500000+94687500000+94687500000+94687500000+94687500000+94687500000
2421+94687500000+94687500000+94687500000+94687500000+94687500000+94687500000
2389+94687500000+94687500000+94375000000+94375000000+94375000000+94375000000
2358+94375000000+94375000000+94687500000+94687500000+94687500000+94687500000
2326+94687500000+94687500000+94687500000+94687500000+94687500000+94687500000
2295+94687500000+94375000000+94375000000+94375000000+94375000000+94375000000
2263+94062500000+94062500000+94062500000+94062500000+94062500000+94062500000
2232+94062500000+94375000000+94375000000+94375000000+94687500000+94687500000
2200+94687500000+94687500000+94687500000+94687500000+94687500000+94687500000
2168+94687500000+94687500000+94687500000+94687500000+94687500000+94687500000
2137+94687500000+94687500000+94687500000+94687500000+94687500000+94687500000
2105+94687500000+94687500000+94687500000+94687500000+94375000000+93750000000
2074+93437500000+93125000000+93125000000+93125000000+93125000000+93437500000
2042+93437500000+93437500000+93750000000+93750000000+94062500000+94062500000
2011+94062500000+94062500000+94062500000+94062500000+94062500000+93750000000
1979+93750000000+93750000000+93437500000+93437500000+93437500000+93125000000
1947+92812500000+92500000000+92187500000+91875000000+91250000000+90625000000
1916+90312500000+89375000000+89062500000+88750000000+88437500000+87812500000
1884+87187500000+85937500000+83750000000+80625000000+75625000000+69687500000
1853+58750000000+43750000000+40000000000+38749999999+38749999999+45312500000
1821+45312500000+44062500000+31562500000+34375000000+62187500000+76875000000
1789+81875000000+85312500000+87500000000+89062500000+89687500000+90312500000
1758+90625000000+90625000000+90937500000+91250000000+91250000000+91562500000
1726+91562500000+91562500000+91562500000+91562500000+90937500000+90625000000
1695+89375000000+87812500000+86250000000+85312500000+84375000000+83750000000
1663+81875000000+78437500000+70000000000+53437500000+45937500000+47812500000
1632+63125000000+68750000000+67187500000+71562500000+78437500000+75937500000
1600+64687500000+33437500000+9687500000+10000000000+30312500000+60625000000
1568+75312500000+80000000000+81875000000+81875000000+81250000000+82187500000
1537+80937500000+77500000000+69687500000+54687500000+20625000000+4687500000
1505+5000000000+26250000000+52500000000+66875000000+69375000000+76875000000
1474+84375000000+87187500000+88437500000+89062500000+90000000000+90937500000
1442+91562500000+91875000000+92187500000+92500000000+92187500000+90937500000
1411+90000000000+87812500000+85937500000+85937500000+88437500000+85937500000
1379+82812500000+82812500000+86562500000+90000000000+91562500000+92187500000
1347+92500000000+92812500000+92812500000+92500000000+92187500000+91875000000
1316+91562500000+90625000000+84687500000+80625000000+83750000000+89687500000
1284+91562500000+91875000000+92187500000+90312500000+81875000000+79375000000
1253+81875000000+87812500000+90937500000+92187500000+92812500000+93125000000
1221+93125000000+93437500000+93125000000+92812500000+92500000000+92187500000
1189+91875000000+91562500000+91250000000+90937500000+90625000000+90625000000
1158+90000000000+89375000000+88750000000+87187500000+84062500000+76875000000
1126+64062500000+54062500000+54062500000+64062500000+76250000000+83125000000
1095+87187500000+89375000000+90000000000+89687500000+89062500000+87187500000
1063+85937500000+85625000000+84687500000+81875000000+75000000000+54375000000
1032+29062500000+28125000000+40000000000+62812500000+79375000000+86250000000
1000+89062500000+90312500000+91250000000+91875000000+92187500000+92187500000
968+92500000000+92812500000+92812500000+92500000000+92187500000+91875000000
937+91250000000+90312500000+88437500000+86875000000+83750000000+80000000000
905+75937500000+72812500000+71562500000+71562500000+72500000000+74375000000
874+73437500000+67500000000+54687500000+39687500000+26875000000+24375000000
842+25312500000+33437500000+46562499999+60625000000+69062500000+77187500000
811+81875000000+84375000000+85937500000+85937500000+84375000000+80937500000
779+73125000000+57500000000+36250000000+27812500000+29687500000+42500000000
747+56875000000+60937500000+50312500000+34062500000+14687500000+7812500000
716+7500000000+8750000000+15000000000+31875000000+52812500000+67187500000
684+75937500000+82187500000+84687500000+87187500000+88437500000+89375000000
653+89375000000+88125000000+82812500000+64062500000+41250000000+40937500000
621+52187500000+75312500000+85625000000+89375000000+91250000000+92500000000
589+93125000000+93750000000+94062500000+94375000000+94375000000+94375000000
558+94375000000+94375000000+94062500000+94062500000+94062500000+93750000000
526+93750000000+93750000000+93750000000+93437500000+93437500000+93437500000
495+93125000000+93125000000+92812500000+92812500000+92812500000+92812500000
463+92812500000+92500000000+92500000000+92187500000+91562500000+90937500000
432+90312500000+89687500000+89062500000+88437500000+87812500000+87187500000
400+87187500000
##END=
