##TITLE=1-bromodecane
##JCAMP-DX=4.24
##DATA TYPE=INFRARED SPECTRUM
##DATE=10/06/2025
##SAMPLING PROCEDURE=ATR
##ORIGIN=SDBS
##XUNITS=1/CM
##YUNITS=TRANSMITTANCE
##RESOLUTION=5.2631578947368425
##FIRSTX=4000.0
##LASTX=400.0
##DELTAX=-5.2631578947368425
##MAXY=95.0
##MINY=0.0
##XFACTOR=1
##YFACTOR=1
##NPOINTS=685
##FIRSTY=0.0
##XYDATA=(X++(Y..Y))
4000+0+94062500000+94062500000+94062500000+94375000000+94375000000
3968+94375000000+94375000000+94375000000+94375000000+94687500000+94687500000
3937+94375000000+94375000000+94375000000+94375000000+94375000000+94375000000
3905+94375000000+94375000000+94375000000+94375000000+94062500000+94062500000
3874+94062500000+94062500000+94375000000+94375000000+94375000000+94375000000
3842+94375000000+94375000000+94375000000+94062500000+94062500000+94062500000
3811+94062500000+94375000000+94375000000+94375000000+94062500000+94062500000
3779+94062500000+94062500000+94062500000+94062500000+93750000000+93437500000
3747+93437500000+93125000000+92812500000+92812500000+92812500000+92812500000
3716+92812500000+93125000000+93125000000+93437500000+93750000000+94062500000
3684+94062500000+94062500000+93750000000+93437500000+93437500000+93125000000
3653+93125000000+93125000000+92812500000+92812500000+92812500000+92812500000
3621+92500000000+92500000000+92187500000+92187500000+91875000000+91875000000
3589+91562500000+91562500000+91562500000+91250000000+91250000000+91250000000
3558+91250000000+90937500000+90937500000+90937500000+90937500000+90937500000
3526+90625000000+90625000000+90625000000+90625000000+90625000000+90312500000
3495+90312500000+90312500000+90312500000+90312500000+90312500000+90312500000
3463+90312500000+90312500000+90312500000+90312500000+90312500000+90312500000
3432+90312500000+90625000000+90625000000+90625000000+90937500000+90937500000
3400+91250000000+91562500000+91562500000+91875000000+91875000000+91875000000
3368+91875000000+91875000000+91562500000+91250000000+90937500000+90312500000
3337+89687500000+89375000000+87812500000+85312500000+80625000000+77187500000
3305+76875000000+75625000000+68125000000+54375000000+30937500000+19062500000
3274+18437500000+19062500000+9375000000+5000000000+4687500000+5312500000
3242+12812500000+21250000000+28437500000+34687500000+35937500000+30312500000
3211+18437500000+12500000000+13750000000+33125000000+55000000000+67812500000
3179+76562500000+80937500000+83437500000+85000000000+86875000000+88125000000
3147+89375000000+89687500000+90312500000+90625000000+90312500000+90000000000
3116+90000000000+90312500000+90625000000+90937500000+90625000000+90312500000
3084+90000000000+90312500000+90312500000+90625000000+90937500000+91250000000
3053+91562500000+91875000000+92187500000+92187500000+92500000000+92812500000
3021+92812500000+93125000000+93437500000+93437500000+93750000000+93750000000
2989+94062500000+94062500000+94062500000+94375000000+94375000000+94375000000
2958+94375000000+94375000000+94375000000+94687500000+94687500000+94687500000
2926+94687500000+94687500000+94375000000+94375000000+94375000000+94375000000
2895+94375000000+94375000000+94375000000+94375000000+94062500000+94062500000
2863+94062500000+94062500000+94062500000+94062500000+94062500000+94062500000
2832+94062500000+94062500000+94375000000+94375000000+94375000000+94375000000
2800+94375000000+94375000000+94375000000+94062500000+94062500000+94375000000
2768+94375000000+94375000000+94375000000+94375000000+94375000000+94375000000
2737+94375000000+94375000000+94375000000+94375000000+94375000000+94375000000
2705+94687500000+94687500000+94687500000+94687500000+94687500000+94687500000
2674+94687500000+94687500000+94687500000+94687500000+94375000000+94375000000
2642+94375000000+94375000000+94375000000+94375000000+94375000000+94687500000
2611+94687500000+94687500000+94687500000+94687500000+94687500000+94687500000
2579+94687500000+94687500000+94687500000+94687500000+94687500000+94687500000
2547+94687500000+94687500000+94687500000+94687500000+94687500000+94687500000
2516+95000000000+95000000000+95000000000+95000000000+95000000000+94687500000
2484+94687500000+94687500000+94687500000+94687500000+95000000000+95000000000
2453+95000000000+95000000000+94687500000+94687500000+94687500000+94687500000
2421+94687500000+94687500000+94687500000+94687500000+94687500000+94687500000
2389+94687500000+94687500000+94687500000+94687500000+94687500000+94687500000
2358+94687500000+94687500000+94687500000+94687500000+94375000000+94375000000
2326+94375000000+94375000000+94375000000+94375000000+94375000000+94687500000
2295+94687500000+94375000000+94375000000+94375000000+94375000000+94375000000
2263+94375000000+94375000000+94375000000+94375000000+94062500000+94062500000
2232+94062500000+94062500000+94062500000+94062500000+94062500000+94062500000
2200+94062500000+94062500000+94062500000+94062500000+94062500000+94062500000
2168+94062500000+94062500000+94062500000+94062500000+94375000000+94375000000
2137+94375000000+94375000000+94375000000+94375000000+94375000000+94062500000
2105+94062500000+94062500000+94062500000+94062500000+94062500000+94062500000
2074+94375000000+94375000000+94375000000+94375000000+94375000000+94375000000
2042+94375000000+94375000000+94375000000+94375000000+94375000000+94375000000
2011+94375000000+94375000000+94375000000+94062500000+94062500000+94062500000
1979+93750000000+93437500000+93437500000+93125000000+93125000000+92812500000
1947+92812500000+92500000000+92187500000+91875000000+91562500000+90937500000
1916+90625000000+90312500000+89687500000+88437500000+86250000000+82500000000
1884+74375000000+57187500000+44375000000+44375000000+47812500000+49062500000
1853+51562500000+59375000000+65312500000+65625000000+65000000000+67812500000
1821+70937500000+73125000000+82187500000+86250000000+88125000000+89062500000
1789+89375000000+89687500000+89687500000+89375000000+88437500000+86875000000
1758+83437500000+74687500000+73125000000+78125000000+81875000000+83437500000
1726+84687500000+85000000000+84687500000+84687500000+85625000000+85625000000
1695+85312500000+86250000000+87812500000+88750000000+87812500000+86875000000
1663+85625000000+84375000000+82187500000+80625000000+80000000000+79062500000
1632+78750000000+79062500000+79687500000+78437500000+77187500000+75312500000
1600+71875000000+70937500000+71875000000+72500000000+68125000000+67812500000
1568+68437500000+68125000000+68437500000+73750000000+79375000000+78750000000
1537+75625000000+74687500000+76875000000+80625000000+80312500000+80625000000
1505+84062500000+87187500000+86875000000+87500000000+89687500000+90625000000
1474+90937500000+91250000000+91562500000+91875000000+91875000000+91875000000
1442+91875000000+91875000000+92187500000+92187500000+92500000000+92500000000
1411+92500000000+92187500000+91562500000+90937500000+90625000000+90625000000
1379+90625000000+90937500000+90937500000+90937500000+90937500000+90937500000
1347+90312500000+90000000000+89375000000+89062500000+88437500000+88437500000
1316+88125000000+88125000000+87812500000+87812500000+87812500000+87812500000
1284+87812500000+87812500000+87812500000+88125000000+88437500000+88750000000
1253+89062500000+89375000000+89687500000+90000000000+90625000000+90937500000
1221+91250000000+91562500000+91875000000+91875000000+91875000000+91875000000
1189+91562500000+91250000000+91250000000+90937500000+90937500000+90937500000
1158+91250000000+91562500000+91562500000+91875000000+91875000000+91875000000
1126+92187500000+92187500000+92187500000+92187500000+91875000000+91875000000
1095+91250000000+90937500000+90625000000+90625000000+90312500000+90312500000
1063+90312500000+90625000000+90625000000+90937500000+90937500000+91250000000
1032+91562500000+91562500000+91875000000+91875000000+91875000000+92187500000
1000+92187500000+92187500000+91875000000+91875000000+91562500000+91250000000
968+90937500000+90937500000+90937500000+90937500000+91250000000+91250000000
937+91250000000+91250000000+90937500000+90937500000+90937500000+90625000000
905+90625000000+90312500000+90000000000+89062500000+87187500000+85937500000
874+85000000000+84375000000+82812500000+80937500000+77812500000+75000000000
842+70000000000+70000000000+76875000000+83437500000+87812500000+90937500000
811+92187500000+93125000000+93437500000+93750000000+93750000000+93750000000
779+93437500000+93437500000+93125000000+92187500000+90000000000+86562500000
747+80000000000+72500000000+71875000000+72500000000+76562500000+83750000000
716+88750000000+90625000000+91875000000+92500000000+93437500000+93750000000
684+94062500000+94375000000+94375000000+94062500000+93750000000+93437500000
653+92500000000+91250000000+88437500000+84687500000+79062500000+74062500000
621+73125000000+75312500000+82812500000+89062500000+91250000000+93125000000
589+94062500000+94375000000+94375000000+94687500000+94375000000+94375000000
558+94062500000+94062500000+93437500000+93125000000+92812500000+92187500000
526+91875000000+91562500000+91250000000+91250000000+91250000000+91250000000
495+91562500000+91875000000+92187500000+92187500000+92187500000+91875000000
463+91562500000+90625000000+89375000000+87812500000+86250000000+84375000000
432+82500000000+80625000000+79062500000+77500000000+76562500000+75625000000
400+75000000000
##END=
