##TITLE=1-chloropentane
##JCAMP-DX=4.24
##DATA TYPE=INFRARED SPECTRUM
##DATE=10/06/2025
##SAMPLING PROCEDURE=ATR
##ORIGIN=SDBS
##XUNITS=1/CM
##YUNITS=TRANSMITTANCE
##RESOLUTION=5.2631578947368425
##FIRSTX=4000.0
##LASTX=400.0
##DELTAX=-5.2631578947368425
##MAXY=95.0
##MINY=0.0
##XFACTOR=1
##YFACTOR=1
##NPOINTS=685
##FIRSTY=0.0
##XYDATA=(X++(Y..Y))
4000+0+87500000000+87500000000+87500000000+87500000000+87500000000
3968+87812500000+87812500000+88125000000+88437500000+88437500000+88750000000
3937+88750000000+88750000000+88750000000+88750000000+88437500000+88750000000
3905+88750000000+88750000000+88750000000+89062500000+89062500000+89062500000
3874+89062500000+89062500000+89062500000+89062500000+89375000000+89375000000
3842+89375000000+89375000000+89375000000+89375000000+89375000000+89375000000
3811+89687500000+89687500000+89687500000+89687500000+89375000000+89375000000
3779+89375000000+89375000000+89687500000+89687500000+89687500000+90000000000
3747+90000000000+90000000000+90312500000+90312500000+90312500000+90312500000
3716+90312500000+90625000000+90625000000+90937500000+90937500000+90937500000
3684+91250000000+91250000000+91250000000+91250000000+91250000000+91250000000
3653+91250000000+91250000000+90937500000+90937500000+90937500000+90937500000
3621+90937500000+90937500000+90937500000+91250000000+91250000000+91250000000
3589+91250000000+91250000000+91250000000+91250000000+91250000000+91250000000
3558+91250000000+91250000000+91562500000+91562500000+91875000000+91875000000
3526+91875000000+91875000000+91875000000+91875000000+91875000000+91875000000
3495+91875000000+91875000000+91875000000+91875000000+91875000000+91562500000
3463+91250000000+90937500000+90625000000+90625000000+90625000000+90625000000
3432+90625000000+90625000000+90625000000+90625000000+90625000000+90625000000
3400+90625000000+90625000000+90312500000+90312500000+90000000000+89687500000
3368+89375000000+89062500000+88437500000+87500000000+86875000000+85625000000
3337+84375000000+82812500000+80937500000+77500000000+70937500000+60000000000
3305+45625000000+41250000000+33750000000+18750000000+6875000000+4687500000
3274+4687500000+8125000000+6562500000+6562500000+7812500000+11250000000
3242+16250000000+21875000000+26250000000+28125000000+14375000000+13750000000
3211+15312500000+15937500000+29375000000+42500000000+56875000000+66875000000
3179+74062500000+78750000000+81250000000+82812500000+84687500000+86250000000
3147+87812500000+88750000000+89375000000+88750000000+87187500000+86562500000
3116+86562500000+87500000000+89062500000+90312500000+90625000000+90000000000
3084+89062500000+89062500000+89375000000+90000000000+90937500000+90937500000
3053+91250000000+91562500000+91875000000+92187500000+92812500000+92812500000
3021+93125000000+93125000000+93125000000+93125000000+93437500000+93437500000
2989+93437500000+93437500000+93437500000+93750000000+93750000000+93750000000
2958+94062500000+94062500000+94062500000+94062500000+94062500000+94062500000
2926+94062500000+93750000000+93750000000+93437500000+93437500000+93437500000
2895+93437500000+93437500000+93437500000+93437500000+93437500000+93437500000
2863+93437500000+93437500000+93437500000+93437500000+93437500000+93437500000
2832+93750000000+93750000000+93750000000+93750000000+93750000000+93750000000
2800+93750000000+93750000000+93750000000+93750000000+93750000000+93750000000
2768+93750000000+93750000000+93750000000+93750000000+93750000000+93750000000
2737+94062500000+94062500000+94062500000+94062500000+94375000000+94375000000
2705+94375000000+94375000000+94375000000+94375000000+94375000000+94375000000
2674+94375000000+94375000000+94375000000+94375000000+94375000000+94062500000
2642+94062500000+94062500000+94375000000+94375000000+94375000000+94687500000
2611+94687500000+94687500000+94687500000+94687500000+95000000000+94687500000
2579+94687500000+94687500000+94687500000+94687500000+94687500000+94687500000
2547+94687500000+94687500000+94687500000+94687500000+94687500000+94687500000
2516+94687500000+94687500000+94687500000+94687500000+94687500000+94687500000
2484+94687500000+94687500000+94687500000+94687500000+94687500000+94687500000
2453+94687500000+95000000000+94687500000+94687500000+94687500000+94687500000
2421+94687500000+94687500000+94687500000+94687500000+94687500000+94687500000
2389+94687500000+94687500000+94687500000+94687500000+94687500000+94687500000
2358+94687500000+94687500000+94687500000+94687500000+94687500000+94687500000
2326+94687500000+94687500000+94687500000+94687500000+94687500000+94687500000
2295+94687500000+94687500000+94375000000+94375000000+94375000000+94375000000
2263+94062500000+94062500000+94062500000+94062500000+94062500000+94062500000
2232+94062500000+94062500000+94062500000+94062500000+94062500000+93750000000
2200+93750000000+93750000000+93750000000+93750000000+93750000000+93750000000
2168+93750000000+93750000000+93750000000+93750000000+93750000000+93750000000
2137+93750000000+93750000000+93750000000+93750000000+93750000000+93437500000
2105+93437500000+93437500000+93437500000+93437500000+93437500000+93437500000
2074+93437500000+93437500000+93437500000+93437500000+93437500000+93437500000
2042+93437500000+93437500000+93437500000+93437500000+93125000000+93125000000
2011+93125000000+92812500000+92812500000+92812500000+92500000000+92187500000
1979+92187500000+91875000000+91562500000+90937500000+90625000000+90312500000
1947+90000000000+89375000000+89062500000+88437500000+87500000000+86250000000
1916+85312500000+84062500000+82187500000+79062500000+74687500000+67812500000
1884+54687500000+37500000000+28750000000+29062500000+31250000000+32187500000
1853+33750000000+37812500000+37500000000+44999999999+54062500000+57187500000
1821+57500000000+66562500000+75625000000+80000000000+82500000000+83437500000
1789+84375000000+85000000000+84375000000+83125000000+80312500000+73750000000
1758+58750000000+53750000000+56562500000+70937500000+76875000000+80625000000
1726+81875000000+81250000000+80625000000+79375000000+73125000000+70000000000
1695+69687500000+71875000000+76250000000+76250000000+66562500000+54687500000
1663+52812500000+50312500000+49062500000+49062500000+50000000000+55625000000
1632+59687500000+54062500000+49687499999+48124999999+49687499999+52187500000
1600+58125000000+65312500000+65312500000+73125000000+80937500000+84687500000
1568+86562500000+87500000000+86875000000+83750000000+76250000000+75000000000
1537+80312500000+87500000000+88437500000+88750000000+88750000000+89375000000
1505+90312500000+91250000000+90937500000+90937500000+90937500000+90937500000
1474+90937500000+90937500000+90937500000+91250000000+91562500000+91875000000
1442+92187500000+92812500000+93125000000+93125000000+93125000000+92812500000
1411+92500000000+92187500000+91562500000+90312500000+88125000000+85937500000
1379+84062500000+83750000000+85625000000+85937500000+86250000000+86562500000
1347+87187500000+87500000000+87500000000+87500000000+87500000000+87812500000
1316+88125000000+88437500000+88750000000+88437500000+87500000000+83437500000
1284+74687500000+71875000000+72187500000+74687500000+77500000000+79062500000
1253+80625000000+84375000000+86250000000+87500000000+88750000000+89375000000
1221+89375000000+85625000000+84375000000+84375000000+85312500000+85312500000
1189+86250000000+86875000000+88125000000+89062500000+89687500000+90000000000
1158+89375000000+87812500000+85625000000+80625000000+75000000000+69375000000
1126+64062500000+63125000000+66250000000+75625000000+79687500000+81562500000
1095+85000000000+86562500000+86250000000+86250000000+86562500000+86875000000
1063+87187500000+87500000000+88125000000+88437500000+88437500000+87812500000
1032+87187500000+85937500000+83437500000+79375000000+78750000000+79375000000
1000+80937500000+84687500000+87812500000+89375000000+89687500000+89687500000
968+89375000000+89062500000+88437500000+87500000000+84687500000+80000000000
937+71875000000+71875000000+77500000000+82500000000+83437500000+81875000000
905+79375000000+77812500000+75625000000+70625000000+60000000000+53437500000
874+53437500000+50937500000+42187500000+30625000000+28125000000+29687500000
842+34687500000+43125000000+51562500000+58125000000+65000000000+74062500000
811+79375000000+82500000000+84687500000+85625000000+85937500000+85312500000
779+84687500000+83437500000+77812500000+70312500000+54375000000+37500000000
747+31250000000+31562500000+38749999999+53437500000+65625000000+76250000000
716+81875000000+84375000000+86562500000+88750000000+90312500000+90625000000
684+91250000000+91875000000+91875000000+91875000000+91875000000+91562500000
653+91562500000+91562500000+91562500000+91562500000+91875000000+92187500000
621+92500000000+92812500000+93125000000+93750000000+93750000000+94062500000
589+94062500000+94062500000+94062500000+94062500000+94062500000+94062500000
558+93750000000+93125000000+91875000000+90937500000+89687500000+88750000000
526+88437500000+88437500000+88437500000+89062500000+89687500000+89375000000
495+88750000000+88125000000+87812500000+87812500000+87812500000+88437500000
463+89375000000+89687500000+89062500000+87187500000+85000000000+82187500000
432+79687500000+77812500000+76875000000+76250000000+75937500000+75625000000
400+75625000000
##END=
