##TITLE=1-hexene
##JCAMP-DX=4.24
##DATA TYPE=INFRARED SPECTRUM
##DATE=10/06/2025
##SAMPLING PROCEDURE=ATR
##ORIGIN=SDBS
##XUNITS=1/CM
##YUNITS=TRANSMITTANCE
##RESOLUTION=5.2631578947368425
##FIRSTX=4000.0
##LASTX=400.0
##DELTAX=-5.2631578947368425
##MAXY=95.0
##MINY=0.0
##XFACTOR=1
##YFACTOR=1
##NPOINTS=685
##FIRSTY=0.0
##XYDATA=(X++(Y..Y))
4000+0+86562500000+86875000000+86875000000+87187500000+87500000000
3968+87500000000+87812500000+88125000000+88437500000+88437500000+88750000000
3937+88750000000+89062500000+89062500000+89375000000+89375000000+89375000000
3905+89375000000+89375000000+89375000000+89375000000+89375000000+89375000000
3874+89375000000+89375000000+89375000000+89687500000+89687500000+90000000000
3842+90000000000+90000000000+90312500000+90312500000+90312500000+90312500000
3811+90312500000+90312500000+90000000000+90000000000+90000000000+90000000000
3779+90312500000+90312500000+90312500000+90312500000+90312500000+90312500000
3747+90312500000+90312500000+90312500000+90625000000+90625000000+90937500000
3716+90937500000+90937500000+90937500000+90937500000+90937500000+90937500000
3684+90937500000+90937500000+90937500000+90937500000+90937500000+91250000000
3653+91250000000+91250000000+91250000000+91250000000+91250000000+91250000000
3621+91250000000+90937500000+90937500000+91250000000+91250000000+91250000000
3589+91562500000+91562500000+91250000000+91250000000+91250000000+91250000000
3558+91250000000+91250000000+91562500000+91562500000+91562500000+91250000000
3526+91250000000+91250000000+91250000000+91250000000+91250000000+90937500000
3495+90937500000+90937500000+90937500000+90625000000+90625000000+90312500000
3463+89687500000+89375000000+89062500000+88750000000+88437500000+88437500000
3432+88125000000+88125000000+87812500000+87812500000+87812500000+87500000000
3400+87187500000+86562500000+85000000000+82500000000+77812500000+69062500000
3368+46875000000+29375000000+28750000000+41562500000+48437500000+59687500000
3337+68750000000+71562500000+70000000000+65000000000+53437500000+41874999999
3305+35000000000+30937500000+17187500000+13437500000+6875000000+5937500000
3274+6250000000+10000000000+6250000000+4687500000+4687500000+5625000000
3242+9375000000+13750000000+17812500000+19687500000+12187500000+12187500000
3211+12500000000+12500000000+16250000000+26250000000+37812500000+49062500000
3179+60937500000+68750000000+74062500000+77187500000+79687500000+81875000000
3147+83437500000+84062500000+85000000000+85000000000+83125000000+82187500000
3116+83125000000+86250000000+87187500000+87812500000+87500000000+86250000000
3084+85625000000+85625000000+85625000000+86562500000+87187500000+87812500000
3053+88437500000+89062500000+89375000000+89687500000+89687500000+89687500000
3021+90000000000+90312500000+90625000000+90625000000+90937500000+91250000000
2989+91562500000+91875000000+91875000000+92187500000+92500000000+92812500000
2958+93125000000+93125000000+93437500000+93437500000+93437500000+93437500000
2926+93125000000+93125000000+93125000000+93125000000+93437500000+93437500000
2895+93437500000+93437500000+93125000000+93125000000+93125000000+93125000000
2863+93125000000+93125000000+93125000000+93125000000+93437500000+93437500000
2832+93437500000+93437500000+93750000000+93750000000+93750000000+93750000000
2800+93750000000+93437500000+93437500000+93750000000+93750000000+93750000000
2768+93437500000+93437500000+93437500000+93750000000+93750000000+94062500000
2737+94062500000+94062500000+94062500000+94375000000+94375000000+94375000000
2705+94687500000+94687500000+94687500000+94687500000+94375000000+94375000000
2674+94062500000+94062500000+94062500000+94062500000+94375000000+94062500000
2642+94062500000+94062500000+94062500000+94062500000+94375000000+94375000000
2611+94375000000+94062500000+93750000000+92812500000+91875000000+91562500000
2579+91562500000+91875000000+92500000000+93437500000+93750000000+94375000000
2547+94375000000+94687500000+94687500000+94687500000+94687500000+94687500000
2516+94687500000+94687500000+94687500000+94375000000+94375000000+94062500000
2484+94062500000+94062500000+94062500000+94062500000+94062500000+94062500000
2453+94062500000+94375000000+94375000000+94375000000+94375000000+94062500000
2421+93750000000+93437500000+93125000000+92500000000+91562500000+90312500000
2389+88437500000+85625000000+82187500000+78437500000+75000000000+74375000000
2358+75937500000+80937500000+85625000000+89062500000+91250000000+92187500000
2326+93125000000+93750000000+94062500000+94375000000+94687500000+94687500000
2295+94687500000+94687500000+95000000000+95000000000+94687500000+94687500000
2263+94687500000+94375000000+94375000000+94375000000+94375000000+94375000000
2232+94375000000+94062500000+94062500000+94062500000+94062500000+94062500000
2200+93750000000+93750000000+93437500000+93437500000+93125000000+92500000000
2168+91875000000+90937500000+90312500000+88437500000+86875000000+84062500000
2137+79375000000+71875000000+59687500000+32500000000+20625000000+23437500000
2105+44999999999+63750000000+75312500000+80625000000+82812500000+84375000000
2074+85937500000+89062500000+90937500000+91562500000+92187500000+92500000000
2042+92812500000+92812500000+92812500000+92812500000+92500000000+92187500000
2011+91875000000+91562500000+90937500000+90625000000+90312500000+90000000000
1979+89687500000+89687500000+90000000000+90312500000+90625000000+90937500000
1947+91562500000+91562500000+90937500000+90312500000+88750000000+86875000000
1916+85625000000+83437500000+80937500000+76875000000+72812500000+64687500000
1884+51875000000+36250000000+27812500000+27812500000+29062500000+29062500000
1853+30937500000+37500000000+40937500000+39062500000+39062500000+43750000000
1821+51875000000+60000000000+64687500000+59375000000+58750000000+63125000000
1789+70937500000+76562500000+79062500000+79687500000+77500000000+72187500000
1758+59062500000+47812500000+47812500000+63125000000+74687500000+79687500000
1726+81875000000+83125000000+83750000000+83437500000+79375000000+77187500000
1695+78750000000+84062500000+85625000000+85625000000+85625000000+85937500000
1663+85937500000+85937500000+84375000000+82812500000+80937500000+80312500000
1632+80625000000+82812500000+83750000000+85937500000+87812500000+89062500000
1600+90000000000+90625000000+90625000000+90312500000+89062500000+86562500000
1568+84375000000+84687500000+87187500000+88750000000+89375000000+90000000000
1537+89062500000+88437500000+88125000000+88125000000+88750000000+90000000000
1505+90937500000+91875000000+92500000000+93125000000+93437500000+93750000000
1474+93125000000+91875000000+90937500000+90625000000+90625000000+90312500000
1442+89687500000+89062500000+88125000000+87500000000+86250000000+85625000000
1411+85937500000+87812500000+89375000000+89687500000+88750000000+86250000000
1379+82812500000+79375000000+79062500000+79687500000+82500000000+85000000000
1347+87187500000+88125000000+88437500000+88437500000+88125000000+87812500000
1316+87500000000+87187500000+86562500000+85625000000+84687500000+82500000000
1284+79062500000+75312500000+74687500000+74687500000+74687500000+75625000000
1253+76250000000+74062500000+69375000000+61875000000+52187500000+37500000000
1221+24062500000+20937500000+23437500000+36562500000+52500000000+62500000000
1189+69375000000+73125000000+75937500000+77812500000+78750000000+78437500000
1158+76875000000+74375000000+71562500000+66562500000+59375000000+50312500000
1126+44062500000+36875000000+26562500000+15625000000+9062500000+8125000000
1095+9062500000+16875000000+29687500000+42187500000+50312500000+58125000000
1063+66875000000+72812500000+76562500000+80000000000+83437500000+85312500000
1032+86875000000+87812500000+88437500000+88750000000+89062500000+89062500000
1000+88750000000+88437500000+87812500000+87500000000+87500000000+87812500000
968+88125000000+88437500000+88437500000+88437500000+86875000000+86250000000
937+85312500000+85312500000+85312500000+86562500000+88125000000+89687500000
905+90312500000+90000000000+89062500000+87187500000+83437500000+76875000000
874+70625000000+69687500000+69687500000+70000000000+70625000000+72500000000
842+79687500000+84687500000+87187500000+89375000000+90312500000+91250000000
811+91562500000+91875000000+91875000000+91875000000+91562500000+91250000000
779+90312500000+89687500000+88437500000+86875000000+84375000000+82187500000
747+79687500000+77187500000+73125000000+68750000000+63437500000+59687500000
716+58750000000+59062500000+60625000000+65625000000+72187500000+78125000000
684+81875000000+85312500000+87500000000+89375000000+90312500000+91250000000
653+91875000000+92187500000+92187500000+91562500000+90625000000+89062500000
621+85312500000+82812500000+80937500000+80937500000+81250000000+83125000000
589+85312500000+87187500000+89687500000+91250000000+92500000000+93437500000
558+94062500000+94375000000+94687500000+94687500000+94687500000+94375000000
526+94062500000+93750000000+93125000000+92187500000+91250000000+90312500000
495+89375000000+88750000000+88750000000+88750000000+88750000000+89062500000
463+89375000000+89687500000+90000000000+90312500000+90625000000+90625000000
432+90625000000+89687500000+88437500000+86562500000+85000000000+83750000000
400+83125000000
##END=
