##TITLE=1-phenyl-1-butyne
##JCAMP-DX=4.24
##DATA TYPE=INFRARED SPECTRUM
##DATE=10/06/2025
##SAMPLING PROCEDURE=ATR
##ORIGIN=SDBS
##XUNITS=1/CM
##YUNITS=TRANSMITTANCE
##RESOLUTION=5.2631578947368425
##FIRSTX=4000.0
##LASTX=400.0
##DELTAX=-5.2631578947368425
##MAXY=94.6875
##MINY=0.0
##XFACTOR=1
##YFACTOR=1
##NPOINTS=685
##FIRSTY=0.0
##XYDATA=(X++(Y..Y))
4000+0+82812500000+82812500000+83125000000+83437500000+83750000000
3968+83437500000+83437500000+83125000000+83125000000+83125000000+83125000000
3937+83125000000+83125000000+83125000000+83437500000+83437500000+83125000000
3905+83125000000+83125000000+83437500000+84062500000+84062500000+84062500000
3874+84062500000+83750000000+83750000000+83750000000+83750000000+83750000000
3842+83750000000+83437500000+83437500000+83437500000+83437500000+83125000000
3811+83125000000+83125000000+83437500000+83437500000+83437500000+83750000000
3779+84062500000+83750000000+83750000000+83437500000+83437500000+83437500000
3747+83437500000+83750000000+83750000000+83750000000+83437500000+83437500000
3716+83437500000+83750000000+84062500000+84062500000+83437500000+83437500000
3684+83125000000+83125000000+83125000000+83125000000+83125000000+83125000000
3653+83125000000+83125000000+83125000000+83125000000+83125000000+83437500000
3621+83437500000+83437500000+83437500000+83750000000+84062500000+84062500000
3589+83750000000+83750000000+83750000000+83750000000+83437500000+83437500000
3558+83437500000+83437500000+83437500000+83437500000+83437500000+83750000000
3526+83750000000+83750000000+83750000000+83750000000+83750000000+83750000000
3495+83437500000+83437500000+83437500000+83125000000+83437500000+83437500000
3463+83437500000+83437500000+83437500000+83437500000+83437500000+83437500000
3432+83437500000+83437500000+83437500000+83437500000+83125000000+82812500000
3400+82812500000+83125000000+83125000000+81562500000+76250000000+75937500000
3368+71250000000+60000000000+60000000000+65937500000+60625000000+59687500000
3337+64375000000+64062500000+62500000000+65625000000+65937500000+73437500000
3305+67187500000+51250000000+27500000000+23125000000+26562500000+52187500000
3274+66250000000+54062500000+39375000000+44062500000+54062500000+49687499999
3242+52500000000+60625000000+63125000000+61562500000+54687500000+57500000000
3211+72500000000+75312500000+69062500000+69062500000+77187500000+80937500000
3179+83125000000+83437500000+84375000000+86562500000+86875000000+86875000000
3147+86875000000+86875000000+86875000000+86875000000+86875000000+87187500000
3116+87187500000+87500000000+87812500000+87812500000+88125000000+88125000000
3084+88125000000+88437500000+88437500000+89062500000+89375000000+88125000000
3053+86875000000+86875000000+87187500000+87500000000+87812500000+88125000000
3021+88437500000+88750000000+89062500000+89062500000+89062500000+89375000000
2989+89375000000+89687500000+89375000000+89062500000+88750000000+88750000000
2958+89062500000+89062500000+89375000000+89687500000+90312500000+90312500000
2926+90000000000+90000000000+90000000000+90312500000+90312500000+90312500000
2895+90312500000+90000000000+90000000000+90000000000+90000000000+90000000000
2863+90000000000+90312500000+90312500000+90312500000+90312500000+90312500000
2832+90625000000+90937500000+90625000000+90312500000+90312500000+90000000000
2800+90000000000+90000000000+89375000000+84375000000+71875000000+71562500000
2768+80312500000+87187500000+85625000000+85625000000+88125000000+90625000000
2737+91250000000+91250000000+91250000000+91250000000+91250000000+91250000000
2705+91562500000+91875000000+91875000000+92187500000+92187500000+92500000000
2674+92187500000+92187500000+91875000000+91875000000+92187500000+92187500000
2642+92187500000+92500000000+92187500000+92187500000+92187500000+92187500000
2611+92187500000+92187500000+91875000000+91562500000+91250000000+90312500000
2579+89687500000+89062500000+88750000000+88437500000+88125000000+86875000000
2547+86250000000+85937500000+86250000000+87500000000+89375000000+90625000000
2516+91562500000+91875000000+92187500000+92187500000+92187500000+91875000000
2484+91250000000+90312500000+89375000000+88750000000+88437500000+87812500000
2453+87187500000+86875000000+86875000000+87187500000+88125000000+89687500000
2421+90625000000+90937500000+91250000000+91562500000+91875000000+91875000000
2389+91875000000+91562500000+90937500000+90625000000+90625000000+90000000000
2358+89375000000+89062500000+88750000000+88437500000+88437500000+89062500000
2326+90000000000+90937500000+91250000000+91562500000+91562500000+91562500000
2295+91250000000+90312500000+89375000000+88437500000+87812500000+87500000000
2263+87500000000+87812500000+88125000000+88437500000+89062500000+89687500000
2232+90000000000+90000000000+90000000000+90000000000+90000000000+90000000000
2200+90000000000+90312500000+90000000000+89687500000+89375000000+88125000000
2168+86250000000+84687500000+84687500000+85000000000+85937500000+86875000000
2137+88125000000+88750000000+89375000000+89687500000+90000000000+90000000000
2105+90000000000+90000000000+90000000000+90000000000+90000000000+89687500000
2074+87500000000+82187500000+70312500000+48750000000+47500000000+65625000000
2042+77812500000+83437500000+87187500000+84687500000+74375000000+74062500000
2011+84062500000+87187500000+89375000000+90000000000+90000000000+89687500000
1979+89687500000+89375000000+89062500000+89062500000+89062500000+88750000000
1947+88125000000+87500000000+86562500000+85000000000+83437500000+77500000000
1916+66250000000+26562500000+15000000000+24375000000+58125000000+72187500000
1884+80312500000+79687500000+74062500000+62187500000+61250000000+63437500000
1853+60312500000+60625000000+50312500000+40937500000+54375000000+62812500000
1821+66562500000+75312500000+80312500000+84062500000+86250000000+87187500000
1789+87500000000+87812500000+88125000000+87812500000+86562500000+83437500000
1758+82187500000+80625000000+77812500000+77812500000+83437500000+86250000000
1726+87812500000+88750000000+89062500000+89375000000+89375000000+88750000000
1695+87812500000+85312500000+78125000000+62812500000+28750000000+25000000000
1663+36250000000+67500000000+80000000000+84062500000+87500000000+88750000000
1632+89375000000+89375000000+89062500000+88125000000+85312500000+85312500000
1600+87812500000+89375000000+88750000000+88125000000+88125000000+89375000000
1568+90625000000+90937500000+91250000000+91562500000+92187500000+92500000000
1537+92812500000+92812500000+93125000000+93437500000+93437500000+93437500000
1505+93437500000+93437500000+93125000000+92812500000+91875000000+90625000000
1474+87500000000+86875000000+88750000000+90625000000+89687500000+87187500000
1442+86250000000+87500000000+90312500000+91875000000+92187500000+92812500000
1411+92812500000+92812500000+92812500000+92812500000+92500000000+92187500000
1379+91562500000+91250000000+90937500000+90625000000+90312500000+89375000000
1347+87500000000+84375000000+81562500000+76875000000+57187500000+55312500000
1316+64687500000+70937500000+82187500000+88125000000+90937500000+91562500000
1284+90937500000+89687500000+85937500000+80312500000+80625000000+86562500000
1253+88125000000+83125000000+80937500000+84062500000+89375000000+91250000000
1221+91875000000+92812500000+93125000000+93125000000+93437500000+93437500000
1189+93437500000+93437500000+93750000000+94062500000+94062500000+94375000000
1158+94687500000+94687500000+94687500000+93750000000+92500000000+91562500000
1126+90312500000+88125000000+81562500000+70312500000+67812500000+71250000000
1095+82500000000+88125000000+90625000000+90937500000+91562500000+91875000000
1063+91875000000+91875000000+91875000000+92187500000+92187500000+92187500000
1032+92187500000+91875000000+91562500000+91562500000+91562500000+91875000000
1000+92187500000+92187500000+92187500000+92500000000+92500000000+92187500000
968+91875000000+91562500000+90937500000+90312500000+90312500000+90000000000
937+89062500000+86562500000+82812500000+82187500000+82812500000+82187500000
905+72187500000+47187500000+14062500000+4687500000+4687500000+14062500000
874+43750000000+68750000000+78750000000+82187500000+84062500000+85937500000
842+86875000000+86562500000+85937500000+84687500000+80625000000+69062500000
811+50312500000+22500000000+7812500000+7812500000+27812500000+60937500000
779+75625000000+82500000000+81250000000+80937500000+82812500000+85625000000
747+87187500000+87812500000+88125000000+88125000000+88437500000+88437500000
716+88437500000+88750000000+89062500000+89062500000+89375000000+89687500000
684+89687500000+89687500000+89375000000+89375000000+89062500000+88750000000
653+88437500000+88437500000+88437500000+88750000000+89375000000+90312500000
621+90625000000+90937500000+90312500000+89062500000+85625000000+76875000000
589+69375000000+68750000000+67812500000+68125000000+68750000000+73125000000
558+77812500000+81562500000+83437500000+84375000000+84375000000+83437500000
526+82187500000+81875000000+81250000000+81250000000+81250000000+81875000000
495+82812500000+83750000000+84687500000+85312500000+85625000000+85625000000
463+85625000000+85312500000+84375000000+82500000000+80625000000+77812500000
432+75312500000+73437500000+72187500000+71250000000+70937500000+70625000000
400+70312500000
##END=
