##TITLE=1-phenyl-1-nonyne
##JCAMP-DX=4.24
##DATA TYPE=INFRARED SPECTRUM
##DATE=10/06/2025
##SAMPLING PROCEDURE=ATR
##ORIGIN=SDBS
##XUNITS=1/CM
##YUNITS=TRANSMITTANCE
##RESOLUTION=5.2631578947368425
##FIRSTX=4000.0
##LASTX=400.0
##DELTAX=-5.2631578947368425
##MAXY=94.6875
##MINY=0.0
##XFACTOR=1
##YFACTOR=1
##NPOINTS=685
##FIRSTY=0.0
##XYDATA=(X++(Y..Y))
4000+0+93125000000+93125000000+93125000000+93125000000+93125000000
3968+93125000000+93125000000+93437500000+93437500000+93437500000+93750000000
3937+93750000000+93437500000+93437500000+93125000000+93125000000+93125000000
3905+93125000000+93437500000+93750000000+93750000000+93750000000+93750000000
3874+93750000000+93750000000+93750000000+93750000000+93750000000+93437500000
3842+93437500000+93437500000+93437500000+93437500000+93437500000+93125000000
3811+93125000000+93125000000+93125000000+93125000000+93125000000+93125000000
3779+92812500000+92812500000+92812500000+92500000000+92500000000+92500000000
3747+92500000000+92187500000+91875000000+91875000000+91562500000+91562500000
3716+91250000000+90937500000+90937500000+90625000000+90312500000+89687500000
3684+89375000000+89062500000+89062500000+88750000000+88437500000+88437500000
3653+88125000000+87812500000+87500000000+87187500000+87187500000+86875000000
3621+86562500000+86562500000+86250000000+86250000000+85937500000+85937500000
3589+85625000000+85625000000+85625000000+85312500000+85312500000+85312500000
3558+85000000000+84687500000+84687500000+84375000000+84375000000+84062500000
3526+84062500000+83750000000+83437500000+83437500000+83125000000+83125000000
3495+82812500000+82500000000+82500000000+82187500000+81875000000+81250000000
3463+80937500000+80312500000+80000000000+79375000000+79062500000+78750000000
3432+78750000000+78437500000+78125000000+77812500000+77500000000+77187500000
3400+77187500000+76562500000+75625000000+73437500000+70625000000+70312500000
3368+65625000000+60937500000+61250000000+59687500000+58125000000+58437500000
3337+61562500000+60000000000+59687500000+61250000000+62187500000+66250000000
3305+64687500000+61562500000+55000000000+42812500000+23437500000+13125000000
3274+11250000000+13125000000+8125000000+4687500000+5312500000+7812500000
3242+14062500000+19687500000+25937500000+33125000000+30312500000+25312500000
3211+17187500000+15000000000+18750000000+37812500000+53125000000+61875000000
3179+68750000000+72812500000+75000000000+77187500000+79062500000+79687500000
3147+81250000000+81875000000+82187500000+82500000000+82500000000+82500000000
3116+82500000000+83125000000+83437500000+83125000000+82500000000+81562500000
3084+80937500000+80625000000+80625000000+80937500000+81562500000+81875000000
3053+82812500000+83437500000+84062500000+84375000000+84375000000+84375000000
3021+85000000000+85312500000+85625000000+85625000000+85312500000+85312500000
2989+85625000000+85937500000+86562500000+87187500000+87500000000+88125000000
2958+88750000000+89062500000+89687500000+90000000000+90312500000+90625000000
2926+90937500000+91250000000+91562500000+91562500000+91875000000+92187500000
2895+92187500000+92187500000+92500000000+92500000000+92812500000+92812500000
2863+92812500000+92812500000+92812500000+92812500000+93125000000+93125000000
2832+93125000000+93125000000+93125000000+93125000000+93125000000+93125000000
2800+92500000000+91875000000+91562500000+87812500000+85937500000+84375000000
2768+84375000000+84375000000+74687500000+70937500000+72812500000+84062500000
2737+90312500000+91875000000+92812500000+93125000000+93437500000+94062500000
2705+94062500000+94375000000+94375000000+94375000000+94375000000+94687500000
2674+94687500000+94687500000+94687500000+94687500000+94687500000+94687500000
2642+94687500000+94687500000+94375000000+94375000000+94375000000+94375000000
2611+94375000000+94375000000+94062500000+93750000000+93437500000+93125000000
2579+92500000000+91875000000+91562500000+91250000000+90937500000+90625000000
2547+90312500000+90000000000+90000000000+90312500000+91562500000+92500000000
2516+92812500000+93125000000+93125000000+93125000000+93125000000+92812500000
2484+92812500000+92500000000+92187500000+91875000000+91562500000+91250000000
2453+90625000000+90312500000+90312500000+90312500000+90937500000+91875000000
2421+92500000000+93125000000+93125000000+93125000000+92812500000+92500000000
2389+92187500000+91875000000+91250000000+90625000000+90000000000+89687500000
2358+89375000000+89062500000+88125000000+87187500000+86562500000+86562500000
2326+85937500000+84687500000+83125000000+81875000000+80000000000+77187500000
2295+75000000000+74062500000+74062500000+74062500000+72812500000+69687500000
2263+66250000000+63125000000+61562500000+60000000000+59062500000+57500000000
2232+56250000000+54375000000+50625000000+44375000000+39687500000+36250000000
2200+36250000000+39062500000+44375000000+48437500000+54687500000+60625000000
2168+60625000000+59375000000+59375000000+60312500000+63750000000+68750000000
2137+73437500000+77187500000+79687500000+81250000000+83125000000+84687500000
2105+86250000000+87187500000+87812500000+87812500000+88125000000+88437500000
2074+86562500000+80312500000+70000000000+62500000000+61875000000+74375000000
2042+83437500000+81875000000+83125000000+86875000000+83437500000+83437500000
2011+88437500000+90625000000+92187500000+92187500000+92500000000+92187500000
1979+92187500000+91875000000+90937500000+90625000000+90625000000+90625000000
1947+90312500000+89062500000+87500000000+85312500000+84062500000+80312500000
1916+72500000000+49687499999+34375000000+39375000000+70000000000+78437500000
1884+75625000000+60312500000+48750000000+49375000000+50312500000+49687499999
1853+50000000000+52500000000+49687499999+47187500000+60625000000+65000000000
1821+65000000000+66250000000+70312500000+71250000000+71250000000+72187500000
1789+74062500000+76250000000+78750000000+80312500000+80937500000+79062500000
1758+74375000000+67500000000+67187500000+71875000000+74375000000+75000000000
1726+75937500000+75625000000+74062500000+73437500000+73437500000+73437500000
1695+72500000000+70000000000+68437500000+68750000000+69687500000+64687500000
1663+64375000000+70000000000+71250000000+70625000000+68125000000+64375000000
1632+60000000000+57500000000+56562500000+56562500000+57812500000+60000000000
1600+63125000000+65312500000+66562500000+68125000000+68750000000+69687500000
1568+70312500000+70625000000+71562500000+72500000000+73125000000+73750000000
1537+74062500000+74687500000+75000000000+75000000000+75000000000+75000000000
1505+75000000000+75937500000+76250000000+76875000000+76250000000+74062500000
1474+70312500000+70000000000+71875000000+75312500000+75625000000+75312500000
1442+75312500000+77187500000+79687500000+81250000000+82500000000+81875000000
1411+80000000000+78125000000+77812500000+77812500000+76875000000+76250000000
1379+76250000000+77187500000+78125000000+79062500000+80312500000+81250000000
1347+80625000000+79062500000+77187500000+74062500000+62812500000+61250000000
1316+70937500000+76562500000+80625000000+83125000000+84062500000+83750000000
1284+83125000000+81562500000+79062500000+74062500000+71562500000+73750000000
1253+77812500000+79375000000+80625000000+81562500000+81250000000+81250000000
1221+81875000000+83750000000+85000000000+85312500000+85625000000+85625000000
1189+85000000000+84375000000+83750000000+83125000000+82812500000+82500000000
1158+82500000000+82500000000+82500000000+82500000000+82812500000+83125000000
1126+82812500000+81875000000+79375000000+74687500000+71562500000+71875000000
1095+80000000000+84687500000+86562500000+87187500000+88125000000+88437500000
1063+88750000000+88750000000+89062500000+89062500000+89375000000+89375000000
1032+89375000000+89687500000+89687500000+89687500000+89687500000+90000000000
1000+90312500000+90625000000+90625000000+91250000000+91562500000+91562500000
968+91562500000+91562500000+90000000000+87500000000+86562500000+86875000000
937+87187500000+88125000000+88125000000+86250000000+85625000000+83750000000
905+76250000000+60312500000+33750000000+17812500000+17500000000+32812500000
874+61250000000+75312500000+80000000000+79062500000+76562500000+73125000000
842+72812500000+71562500000+63125000000+62500000000+67500000000+69375000000
811+57500000000+41250000000+22500000000+22812500000+44687500000+71562500000
779+82812500000+86562500000+86562500000+85625000000+85625000000+85625000000
747+88437500000+91250000000+91250000000+91562500000+92187500000+92500000000
716+93125000000+93125000000+93437500000+93437500000+93125000000+93125000000
684+93125000000+93125000000+92812500000+92500000000+92187500000+91875000000
653+91875000000+91562500000+91250000000+91250000000+90937500000+90937500000
621+90625000000+90625000000+90625000000+90937500000+90937500000+90937500000
589+90625000000+89687500000+87500000000+80000000000+72187500000+74062500000
558+84687500000+89375000000+89687500000+90000000000+90625000000+90937500000
526+90625000000+90625000000+90625000000+90937500000+91250000000+91562500000
495+91875000000+92500000000+93125000000+93437500000+94062500000+94375000000
463+94687500000+94687500000+94687500000+94062500000+93125000000+91875000000
432+90312500000+88437500000+87187500000+85937500000+84687500000+84062500000
400+83750000000
##END=
