##TITLE=1-piperidineethanol
##JCAMP-DX=4.24
##DATA TYPE=INFRARED SPECTRUM
##DATE=10/06/2025
##SAMPLING PROCEDURE=ATR
##ORIGIN=SDBS
##XUNITS=1/CM
##YUNITS=TRANSMITTANCE
##RESOLUTION=5.2631578947368425
##FIRSTX=4000.0
##LASTX=400.0
##DELTAX=-5.2631578947368425
##MAXY=95.0
##MINY=0.0
##XFACTOR=1
##YFACTOR=1
##NPOINTS=685
##FIRSTY=0.0
##XYDATA=(X++(Y..Y))
4000+0+93437500000+93437500000+93437500000+93437500000+93437500000
3968+93125000000+93125000000+93125000000+93125000000+93125000000+93125000000
3937+93125000000+92812500000+92812500000+92812500000+92812500000+92812500000
3905+92812500000+92812500000+92812500000+92812500000+92500000000+92187500000
3874+92187500000+91875000000+91875000000+91875000000+91875000000+91875000000
3842+91875000000+91562500000+91562500000+91250000000+91250000000+90937500000
3811+90937500000+90625000000+90625000000+90625000000+90000000000+89062500000
3779+88437500000+87812500000+87187500000+86875000000+86250000000+85000000000
3747+84062500000+82812500000+81250000000+79375000000+78125000000+76250000000
3716+74062500000+71875000000+69687500000+67187500000+65000000000+62500000000
3684+59687500000+56875000000+53750000000+51875000000+49062500000+45937500000
3653+43437499999+41250000000+39062500000+37187499999+35000000000+33125000000
3621+31875000000+30312500000+29375000000+28437500000+27500000000+26562500000
3589+25937500000+25625000000+25312500000+25000000000+25000000000+24687500000
3558+24687500000+24687500000+25000000000+25000000000+25000000000+25312500000
3526+25625000000+25625000000+25937500000+26250000000+26250000000+26562500000
3495+26562500000+26875000000+26875000000+27187500000+27500000000+27812500000
3463+28125000000+28437500000+28750000000+29375000000+29687500000+30312500000
3432+30937500000+31562500000+32187500000+33125000000+33750000000+34375000000
3400+35312500000+36250000000+37187499999+38125000000+39062500000+40312499999
3368+41250000000+42500000000+43750000000+44999999999+45937500000+47187500000
3337+48437500000+49687499999+50312500000+51250000000+52187500000+52500000000
3305+51562500000+49687499999+45937500000+40312499999+30937500000+21250000000
3274+11875000000+6875000000+4687500000+4687500000+6250000000+8437500000
3242+13750000000+19062500000+22812500000+23750000000+25000000000+24062500000
3211+19062500000+17187500000+18125000000+24375000000+26250000000+23125000000
3179+20625000000+19062500000+18750000000+19062500000+20625000000+23437500000
3147+26875000000+27500000000+28437500000+30000000000+33125000000+36250000000
3116+38749999999+43437499999+47187500000+48750000000+50000000000+50312500000
3084+52187500000+53750000000+54375000000+59062500000+62500000000+62812500000
3053+66250000000+68437500000+69062500000+69687500000+70625000000+71562500000
3021+72812500000+74062500000+75937500000+76875000000+77500000000+78125000000
2989+78437500000+78750000000+79375000000+79687500000+80000000000+80000000000
2958+80625000000+81250000000+82187500000+82500000000+83437500000+84062500000
2926+84687500000+85000000000+85000000000+85312500000+85625000000+85937500000
2895+86250000000+86562500000+86875000000+87187500000+87500000000+87500000000
2863+87812500000+87812500000+87812500000+88125000000+88125000000+88125000000
2832+88125000000+88125000000+88437500000+88437500000+88750000000+88750000000
2800+88750000000+88750000000+88437500000+88437500000+88437500000+88437500000
2768+88750000000+89062500000+89375000000+89687500000+89687500000+90000000000
2737+90000000000+90312500000+90312500000+90312500000+90625000000+90937500000
2705+90937500000+91250000000+91250000000+91250000000+91250000000+91562500000
2674+91562500000+91875000000+91875000000+91875000000+92187500000+92187500000
2642+92500000000+92812500000+93125000000+93125000000+93437500000+93437500000
2611+93750000000+93750000000+93750000000+94062500000+94062500000+94062500000
2579+94062500000+94062500000+94062500000+94062500000+94062500000+94062500000
2547+94062500000+94062500000+94062500000+94062500000+94062500000+94062500000
2516+94062500000+94062500000+94062500000+94062500000+94062500000+94062500000
2484+94062500000+94062500000+94062500000+94062500000+94062500000+94062500000
2453+94062500000+94062500000+94062500000+94375000000+94375000000+94375000000
2421+94375000000+94375000000+94375000000+94375000000+94687500000+94687500000
2389+94687500000+94687500000+94687500000+95000000000+95000000000+94687500000
2358+94687500000+94687500000+94687500000+94375000000+94375000000+94375000000
2326+94375000000+94375000000+94062500000+94062500000+94062500000+94062500000
2295+94062500000+94062500000+94062500000+94062500000+94062500000+94062500000
2263+93750000000+93750000000+93437500000+93125000000+92812500000+92187500000
2232+91875000000+91562500000+90937500000+90000000000+89375000000+88437500000
2200+87500000000+86875000000+85937500000+84687500000+83125000000+81250000000
2168+79375000000+77812500000+76250000000+74687500000+73750000000+73437500000
2137+73437500000+74375000000+75937500000+76875000000+77812500000+79062500000
2105+80625000000+81875000000+82500000000+83437500000+84062500000+84687500000
2074+85312500000+85625000000+85937500000+86250000000+86250000000+86562500000
2042+86562500000+86562500000+86562500000+86562500000+86875000000+86875000000
2011+86875000000+87187500000+87500000000+87812500000+88125000000+88437500000
1979+88437500000+88125000000+87500000000+86250000000+86250000000+86250000000
1947+87500000000+87500000000+86875000000+85937500000+85000000000+84062500000
1916+82812500000+81875000000+79375000000+75625000000+71562500000+66875000000
1884+59687500000+52187500000+48750000000+49687499999+48437500000+41874999999
1853+41562500000+42812500000+38437500000+38437500000+43750000000+49375000000
1821+55937500000+61250000000+63750000000+65937500000+66875000000+67187500000
1789+67187500000+66875000000+66562500000+65625000000+64062500000+63437500000
1758+63437500000+64062500000+64062500000+64375000000+64375000000+64687500000
1726+63750000000+60312500000+55312500000+54062500000+54687500000+62500000000
1695+68125000000+70000000000+67500000000+63125000000+62187500000+62187500000
1663+60937500000+57187500000+51250000000+45937500000+45937500000+55937500000
1632+67812500000+70000000000+70625000000+68437500000+65625000000+61562500000
1600+60937500000+61562500000+63750000000+65000000000+66875000000+72500000000
1568+73437500000+73437500000+74375000000+76562500000+80000000000+82500000000
1537+83437500000+83437500000+83437500000+83125000000+81875000000+80625000000
1505+78750000000+77812500000+77500000000+77500000000+80000000000+82812500000
1474+84375000000+85000000000+83125000000+79687500000+71250000000+57187500000
1442+54062500000+54687500000+63750000000+79062500000+78437500000+63750000000
1411+46250000000+39687500000+39062500000+39062500000+40625000000+50000000000
1379+62187500000+70000000000+75937500000+70000000000+60937500000+50000000000
1347+47187500000+47500000000+50000000000+47812500000+46875000000+45312500000
1316+42187500000+34375000000+26562500000+22812500000+22500000000+23125000000
1284+27812500000+28750000000+32812500000+36875000000+43437499999+55937500000
1253+67500000000+75000000000+72187500000+70625000000+72187500000+76875000000
1221+69062500000+65625000000+68437500000+80000000000+88125000000+90937500000
1189+93125000000+91875000000+82500000000+78750000000+84687500000+89062500000
1158+89375000000+87812500000+85000000000+81250000000+78750000000+76562500000
1126+75625000000+75937500000+79375000000+82812500000+85000000000+87500000000
1095+89687500000+91250000000+93125000000+90937500000+86250000000+78125000000
1063+73750000000+73750000000+76875000000+73125000000+70625000000+71250000000
1032+74375000000+79687500000+82500000000+84687500000+85000000000+90000000000
1000+92500000000+93437500000+93750000000+92812500000+91875000000+90937500000
968+89062500000+87500000000+86875000000+86875000000+86250000000+85000000000
937+81875000000+75625000000+73750000000+73750000000+75312500000+77500000000
905+77187500000+71875000000+62500000000+59062500000+60937500000+71250000000
874+75625000000+78125000000+80000000000+80937500000+81562500000+81875000000
842+82187500000+82187500000+81875000000+81875000000+81562500000+81562500000
811+81250000000+81250000000+80937500000+80937500000+80937500000+80937500000
779+80937500000+80937500000+81250000000+81250000000+81250000000+81250000000
747+81250000000+81250000000+81562500000+81562500000+81562500000+81562500000
716+81875000000+81875000000+82187500000+82187500000+82500000000+82500000000
684+82500000000+82500000000+82500000000+82500000000+82812500000+83125000000
653+83437500000+83750000000+84062500000+84375000000+85000000000+85312500000
621+85625000000+86250000000+86875000000+87500000000+87812500000+88125000000
589+88125000000+88125000000+88125000000+87812500000+87812500000+88125000000
558+88437500000+89062500000+89687500000+90625000000+91250000000+91250000000
526+91250000000+91250000000+91250000000+91250000000+91562500000+91875000000
495+92500000000+93125000000+93750000000+93750000000+93125000000+92187500000
463+90937500000+89375000000+88125000000+86875000000+85937500000+85000000000
432+84687500000+83437500000+82500000000+81250000000+80000000000+79062500000
400+78437500000
##END=
