##TITLE=2,2,2-trichloroethyl 2-(2-benzothiazolyl)dithio-alpha-isopropenyl-4-oxo-3-phenylacetamido-1-azetidineacetate
##JCAMP-DX=4.24
##DATA TYPE=INFRARED SPECTRUM
##DATE=10/06/2025
##SAMPLING PROCEDURE=ATR
##ORIGIN=SDBS
##XUNITS=1/CM
##YUNITS=TRANSMITTANCE
##RESOLUTION=5.2631578947368425
##FIRSTX=4000.0
##LASTX=400.0
##DELTAX=-5.2631578947368425
##MAXY=94.375
##MINY=0.0
##XFACTOR=1
##YFACTOR=1
##NPOINTS=685
##FIRSTY=0.0
##XYDATA=(X++(Y..Y))
4000+0+65625000000+65625000000+65625000000+65625000000+65937500000
3968+66250000000+66562500000+67187500000+67500000000+67500000000+67500000000
3937+67812500000+68437500000+68437500000+68125000000+68125000000+68125000000
3905+68750000000+69687500000+69687500000+69062500000+68437500000+68125000000
3874+68125000000+68125000000+68125000000+68125000000+68125000000+68125000000
3842+67812500000+68125000000+68437500000+69062500000+70000000000+70000000000
3811+69687500000+69687500000+69687500000+70000000000+70000000000+70000000000
3779+70000000000+69375000000+69062500000+69062500000+69375000000+69062500000
3747+69062500000+69375000000+69687500000+69687500000+69687500000+69687500000
3716+69375000000+68750000000+68437500000+68125000000+67812500000+67500000000
3684+67187500000+66875000000+66250000000+66250000000+66250000000+66562500000
3653+66875000000+66875000000+66875000000+66875000000+66562500000+66250000000
3621+66250000000+66562500000+66562500000+66562500000+66562500000+66250000000
3589+65937500000+65937500000+65625000000+65625000000+65625000000+65625000000
3558+65937500000+66250000000+65937500000+65625000000+62500000000+62187500000
3526+65312500000+64687500000+63750000000+63125000000+62187500000+60625000000
3495+57187500000+54375000000+52500000000+52187500000+52187500000+53437500000
3463+55312500000+56875000000+57500000000+57812500000+58125000000+59062500000
3432+60000000000+60937500000+62187500000+62500000000+60312500000+64062500000
3400+64375000000+66250000000+66562500000+65937500000+64375000000+64687500000
3368+64375000000+61250000000+57812500000+56562500000+56562500000+58125000000
3337+59687500000+60937500000+59687500000+60625000000+59687500000+58437500000
3305+54375000000+50937500000+41874999999+31875000000+20625000000+13750000000
3274+11875000000+12812500000+9687500000+5937500000+4687500000+5000000000
3242+7812500000+11250000000+14687500000+18125000000+20625000000+17812500000
3211+15312500000+11562500000+11562500000+20000000000+35000000000+45625000000
3179+53750000000+57187500000+60312500000+62500000000+63750000000+65625000000
3147+66875000000+67500000000+68437500000+68750000000+68125000000+67812500000
3116+67812500000+68125000000+68750000000+69062500000+69062500000+69062500000
3084+68750000000+68750000000+68750000000+69062500000+69375000000+69375000000
3053+70000000000+70312500000+70625000000+70625000000+71250000000+71562500000
3021+71875000000+72187500000+72500000000+72812500000+72812500000+73125000000
2989+73125000000+73125000000+73125000000+73437500000+73750000000+73750000000
2958+74062500000+74375000000+74375000000+74062500000+74062500000+74062500000
2926+74375000000+74375000000+74687500000+74687500000+74687500000+74687500000
2895+74687500000+75000000000+75312500000+75937500000+76875000000+77187500000
2863+77500000000+77500000000+77187500000+77187500000+76875000000+76875000000
2832+76875000000+76562500000+76250000000+75625000000+75625000000+75312500000
2800+75312500000+75625000000+75625000000+75937500000+76250000000+75937500000
2768+75937500000+75937500000+76250000000+76562500000+76562500000+76250000000
2737+75937500000+75937500000+75937500000+76250000000+76562500000+76562500000
2705+76875000000+76875000000+76875000000+76875000000+76875000000+76875000000
2674+76875000000+77187500000+77187500000+76875000000+76875000000+76875000000
2642+77187500000+77187500000+77187500000+77187500000+77187500000+77187500000
2611+77500000000+77500000000+77500000000+77812500000+77812500000+78125000000
2579+78125000000+77812500000+77812500000+77812500000+77812500000+77812500000
2547+77812500000+78125000000+78125000000+78437500000+78437500000+78750000000
2516+78750000000+78750000000+78750000000+78750000000+78750000000+78750000000
2484+78750000000+78750000000+78750000000+78750000000+78125000000+78125000000
2453+78437500000+78437500000+78125000000+78437500000+78437500000+78437500000
2421+78750000000+78750000000+78750000000+78750000000+78750000000+79062500000
2389+79062500000+79062500000+79062500000+79062500000+78750000000+78437500000
2358+77812500000+77812500000+75937500000+75000000000+72500000000+68750000000
2326+65312500000+54062500000+44999999999+38125000000+35312500000+35937500000
2295+41562500000+40937500000+33750000000+33125000000+38125000000+45937500000
2263+50937500000+56875000000+61562500000+64062500000+65937500000+67187500000
2232+67500000000+69375000000+70000000000+72812500000+70937500000+70937500000
2200+71875000000+70937500000+70312500000+69687500000+69687500000+70000000000
2168+69687500000+69062500000+67812500000+64375000000+64062500000+57812500000
2137+47812500000+46250000000+50312500000+54687500000+62187500000+66250000000
2105+70312500000+71250000000+71875000000+72500000000+74062500000+74687500000
2074+75000000000+75312500000+75625000000+75937500000+75937500000+75937500000
2042+75937500000+75937500000+75937500000+76250000000+73750000000+70000000000
2011+67812500000+62812500000+62187500000+60312500000+60000000000+60000000000
1979+62500000000+65625000000+68125000000+68125000000+68125000000+68750000000
1947+71250000000+71250000000+70000000000+69375000000+71562500000+67187500000
1916+66562500000+67500000000+69687500000+71250000000+70000000000+66875000000
1884+61250000000+48750000000+37812500000+33437500000+30000000000+30625000000
1853+32812500000+38749999999+44375000000+47812500000+52812500000+54062500000
1821+50937500000+42812500000+46562499999+58437500000+63125000000+63125000000
1789+64062500000+67500000000+70312500000+70937500000+65625000000+61250000000
1758+55312500000+46250000000+42812500000+43437499999+48437500000+48124999999
1726+50625000000+55937500000+56250000000+56250000000+56250000000+58125000000
1695+58750000000+56250000000+56250000000+57187500000+60312500000+62500000000
1663+63437500000+63750000000+63125000000+64375000000+66562500000+67812500000
1632+68437500000+68437500000+68125000000+68125000000+62187500000+58437500000
1600+58125000000+60312500000+64062500000+65625000000+66250000000+65937500000
1568+65312500000+64375000000+62500000000+61250000000+61562500000+63750000000
1537+63750000000+65000000000+65625000000+65937500000+65937500000+66562500000
1505+67187500000+67500000000+67812500000+68125000000+68125000000+67812500000
1474+67500000000+66875000000+65312500000+63437500000+60000000000+55312500000
1442+46250000000+43125000000+43437499999+41250000000+38749999999+40312499999
1411+51250000000+57812500000+60937500000+63437500000+66562500000+68750000000
1379+69687500000+69062500000+66250000000+61562500000+58750000000+58750000000
1347+60625000000+61562500000+62812500000+62812500000+64062500000+65000000000
1316+66250000000+67187500000+68437500000+69687500000+70312500000+70312500000
1284+70625000000+70312500000+70000000000+69687500000+69062500000+67187500000
1253+61250000000+61250000000+62187500000+49375000000+53125000000+64062500000
1221+70000000000+71875000000+72187500000+72812500000+73125000000+73125000000
1189+73125000000+73437500000+73750000000+74062500000+74687500000+75000000000
1158+75312500000+75625000000+75312500000+74687500000+72500000000+69062500000
1126+71875000000+71250000000+71250000000+71562500000+72187500000+72812500000
1095+73750000000+74687500000+75312500000+75937500000+76562500000+76875000000
1063+77187500000+77500000000+77500000000+77187500000+77187500000+76875000000
1032+76875000000+76875000000+77187500000+77187500000+77500000000+76875000000
1000+75937500000+75000000000+73750000000+73125000000+72812500000+72812500000
968+73125000000+74375000000+75000000000+75937500000+77187500000+77812500000
937+78437500000+78437500000+78125000000+77187500000+75937500000+74375000000
905+71562500000+62500000000+57500000000+59375000000+57187500000+56875000000
874+57500000000+61250000000+65000000000+66875000000+57187500000+57812500000
842+62187500000+64375000000+65312500000+59062500000+53437500000+56562500000
811+63437500000+67187500000+71250000000+73750000000+75625000000+76562500000
779+76250000000+76250000000+75937500000+77500000000+78750000000+79687500000
747+80312500000+80937500000+81250000000+81562500000+81250000000+80625000000
716+79687500000+78750000000+77812500000+77500000000+77500000000+77812500000
684+78437500000+79687500000+80625000000+80312500000+79687500000+78750000000
653+77500000000+76875000000+76562500000+76562500000+76875000000+77500000000
621+78125000000+79375000000+80625000000+81562500000+82500000000+83125000000
589+83437500000+83125000000+82812500000+82812500000+82812500000+82812500000
558+83125000000+83750000000+84375000000+85000000000+85000000000+84687500000
526+84062500000+83437500000+82500000000+82187500000+81875000000+81875000000
495+82187500000+83125000000+84062500000+85000000000+86562500000+88750000000
463+91250000000+93125000000+94375000000+90937500000+87187500000+81562500000
432+76875000000+74375000000+73750000000+73750000000+74687500000+75937500000
400+77500000000
##END=
