##TITLE=2,2,2-trichloroethyl 3-bromomethyl-3-methyl-7-oxo-6-phenylacetamido-4-thia-1-azabicyclo[3.2.0]heptane-2-carboxylate
##JCAMP-DX=4.24
##DATA TYPE=INFRARED SPECTRUM
##DATE=10/06/2025
##SAMPLING PROCEDURE=ATR
##ORIGIN=SDBS
##XUNITS=1/CM
##YUNITS=TRANSMITTANCE
##RESOLUTION=5.2631578947368425
##FIRSTX=4000.0
##LASTX=400.0
##DELTAX=-5.2631578947368425
##MAXY=94.6875
##MINY=0.0
##XFACTOR=1
##YFACTOR=1
##NPOINTS=685
##FIRSTY=0.0
##XYDATA=(X++(Y..Y))
4000+0+77187500000+77500000000+77812500000+78437500000+78437500000
3968+78750000000+78750000000+79062500000+79375000000+80000000000+80312500000
3937+80625000000+80937500000+81250000000+81250000000+81875000000+82500000000
3905+83125000000+83750000000+84062500000+84375000000+84687500000+85000000000
3874+85312500000+85625000000+86250000000+86875000000+87500000000+87812500000
3842+88125000000+88437500000+88750000000+88750000000+88750000000+89062500000
3811+89375000000+89687500000+89687500000+89375000000+89062500000+88125000000
3779+86562500000+83750000000+80937500000+76875000000+71875000000+67812500000
3747+64375000000+59687500000+55937500000+51562500000+48124999999+44375000000
3716+40937500000+38125000000+35937500000+32812500000+30000000000+28125000000
3684+25937500000+24062500000+21562500000+20000000000+18437500000+16875000000
3653+15312500000+14375000000+13125000000+11875000000+10937500000+10000000000
3621+9375000000+8437500000+7812500000+7187500000+6562500000+6250000000
3589+5937500000+5625000000+5312500000+5312500000+5000000000+5000000000
3558+5000000000+5000000000+5000000000+5000000000+5000000000+5000000000
3526+5000000000+5000000000+5000000000+5000000000+4687500000+4687500000
3495+4687500000+4687500000+4687500000+4687500000+4687500000+4687500000
3463+5000000000+5312500000+5625000000+5937500000+6250000000+6562500000
3432+6875000000+7500000000+7812500000+8125000000+8437500000+8750000000
3400+9062500000+9062500000+9062500000+9062500000+8750000000+8437500000
3368+7812500000+7812500000+6875000000+6562500000+6562500000+6875000000
3337+7187500000+6562500000+5937500000+6250000000+7187500000+7187500000
3305+7187500000+6562500000+6250000000+5937500000+5625000000+5625000000
3274+5312500000+4687500000+4687500000+4687500000+4687500000+4687500000
3242+5312500000+5625000000+5937500000+5937500000+5937500000+5937500000
3211+6562500000+6875000000+7500000000+7812500000+8125000000+8437500000
3179+8750000000+9375000000+9687500000+10000000000+10312500000+10937500000
3147+11562500000+11875000000+12500000000+12812500000+13125000000+13437500000
3116+13750000000+13750000000+14062500000+14062500000+14375000000+14375000000
3084+15312500000+15625000000+15937500000+16250000000+16250000000+16562500000
3053+16562500000+16562500000+16875000000+17187500000+17500000000+18125000000
3021+18437500000+18750000000+19375000000+19687500000+20000000000+20312500000
2989+20625000000+20937500000+21250000000+21562500000+21875000000+22187500000
2958+22812500000+23125000000+23750000000+24687500000+25937500000+26875000000
2926+28125000000+29687500000+31250000000+32812500000+34375000000+35937500000
2895+37187499999+38437500000+39687500000+40937500000+42812500000+44062500000
2863+45625000000+47500000000+49062500000+50625000000+52187500000+54062500000
2832+55937500000+57500000000+59062500000+60937500000+63125000000+64687500000
2800+66250000000+67812500000+69062500000+70625000000+71875000000+73437500000
2768+74687500000+75937500000+77187500000+78750000000+79687500000+80312500000
2737+81562500000+82500000000+83437500000+84375000000+85312500000+86250000000
2705+86875000000+87500000000+87812500000+88125000000+88437500000+88437500000
2674+88750000000+89062500000+89062500000+89062500000+89062500000+88750000000
2642+88437500000+87812500000+87500000000+87187500000+86875000000+86250000000
2611+85625000000+85312500000+84687500000+84375000000+83750000000+83437500000
2579+83125000000+82500000000+82187500000+81875000000+81562500000+81562500000
2547+81562500000+81875000000+82500000000+83125000000+83750000000+84375000000
2516+84687500000+85000000000+85312500000+85625000000+85625000000+85625000000
2484+85937500000+86250000000+86250000000+86875000000+87187500000+88125000000
2453+88750000000+89375000000+90312500000+90937500000+91562500000+92187500000
2421+92812500000+93437500000+94062500000+94375000000+94687500000+94687500000
2389+94687500000+94375000000+94062500000+93437500000+92500000000+91250000000
2358+89687500000+87187500000+83125000000+78437500000+74375000000+70625000000
2326+68437500000+66562500000+64062500000+59687500000+52812500000+43437499999
2295+34375000000+25625000000+18750000000+14375000000+11562500000+9062500000
2263+7187500000+6250000000+5937500000+5625000000+5625000000+5937500000
2232+6562500000+7500000000+9062500000+11250000000+13125000000+14687500000
2200+17187500000+19687500000+22187500000+23750000000+24375000000+23125000000
2168+20937500000+17812500000+14375000000+11562500000+9062500000+7500000000
2137+5937500000+5000000000+4687500000+4375000000+4375000000+4375000000
2105+4687500000+5000000000+5312500000+6250000000+7500000000+8437500000
2074+10000000000+11875000000+12500000000+12500000000+13125000000+15625000000
2042+17812500000+16562500000+16562500000+18125000000+17187500000+15312500000
2011+13437500000+11562500000+10312500000+9062500000+8125000000+7812500000
1979+7812500000+7812500000+8125000000+9062500000+10000000000+11562500000
1947+14062500000+16875000000+20000000000+22812500000+26875000000+26250000000
1916+14375000000+13750000000+25937500000+37812500000+43750000000+45625000000
1884+43437499999+39375000000+34062500000+29062500000+22812500000+14687500000
1853+14062500000+19375000000+20000000000+19062500000+17812500000+15937500000
1821+14375000000+14062500000+13750000000+13437500000+12187500000+11875000000
1789+11250000000+10625000000+10625000000+10937500000+11250000000+11562500000
1758+12187500000+13437500000+14062500000+14687500000+14687500000+14687500000
1726+14375000000+14375000000+14687500000+15937500000+17187500000+18437500000
1695+20312500000+21250000000+21875000000+22187500000+21250000000+20312500000
1663+19687500000+19062500000+18750000000+18750000000+18750000000+18750000000
1632+18437500000+18125000000+17500000000+17187500000+16250000000+15625000000
1600+14687500000+13437500000+12187500000+11562500000+10937500000+10937500000
1568+10625000000+10625000000+10312500000+10312500000+10312500000+10312500000
1537+10625000000+10625000000+11250000000+12187500000+13125000000+14375000000
1505+15312500000+16250000000+17187500000+19375000000+21875000000+23437500000
1474+24062500000+25312500000+25625000000+25625000000+25625000000+26250000000
1442+27500000000+27812500000+29375000000+31875000000+34062500000+35312500000
1411+38125000000+40937500000+44062500000+46875000000+49062500000+45937500000
1379+41562500000+33437500000+26250000000+21250000000+20312500000+20312500000
1347+22187500000+26875000000+30937500000+30000000000+28750000000+27187500000
1316+26875000000+26875000000+27187500000+29062500000+30312500000+30937500000
1284+31250000000+30312500000+27500000000+25937500000+26562500000+30625000000
1253+31875000000+32812500000+35625000000+40000000000+43750000000+44999999999
1221+46875000000+48750000000+51250000000+54375000000+58125000000+61875000000
1189+64062500000+65000000000+66875000000+69375000000+71562500000+72500000000
1158+72812500000+72187500000+71562500000+70937500000+70312500000+70000000000
1126+70000000000+70000000000+70625000000+71562500000+72812500000+74375000000
1095+77500000000+80625000000+82500000000+83750000000+84062500000+85000000000
1063+86250000000+87187500000+88125000000+88750000000+88437500000+86562500000
1032+83750000000+79687500000+76562500000+73437500000+72812500000+72812500000
1000+72187500000+68750000000+61562500000+51875000000+43125000000+34062500000
968+30312500000+30000000000+30625000000+35312500000+43750000000+54375000000
937+63125000000+66562500000+64375000000+61250000000+57812500000+55312500000
905+52500000000+46875000000+44687500000+44687500000+45937500000+49062500000
874+48750000000+43750000000+35625000000+28437500000+21250000000+15312500000
842+11875000000+10625000000+10625000000+11875000000+14375000000+16875000000
811+19687500000+20625000000+22812500000+37812500000+45312500000+48437500000
779+49687499999+49375000000+49062500000+48437500000+48124999999+47812500000
747+47812500000+48750000000+50000000000+50312500000+51250000000+50937500000
716+50000000000+49687499999+49062500000+48750000000+48437500000+48437500000
684+48437500000+48437500000+48750000000+49062500000+48750000000+48437500000
653+47187500000+45312500000+41874999999+35000000000+26250000000+25937500000
621+28437500000+36875000000+43125000000+45625000000+46250000000+45312500000
589+44375000000+43437499999+43125000000+42812500000+43125000000+43437499999
558+44375000000+45625000000+47187500000+49062500000+50312500000+51562500000
526+52500000000+52812500000+53125000000+53437500000+53750000000+54687500000
495+55937500000+57500000000+59062500000+60937500000+62500000000+64062500000
463+65312500000+65937500000+66875000000+67812500000+69687500000+71250000000
432+73750000000+75000000000+75625000000+74687500000+73750000000+73125000000
400+73125000000
##END=
