##TITLE=2,2,4-trimethyl-3-hydroxy-3-pentenoic acid beta-lactone
##JCAMP-DX=4.24
##DATA TYPE=INFRARED SPECTRUM
##DATE=10/06/2025
##SAMPLING PROCEDURE=ATR
##ORIGIN=SDBS
##XUNITS=1/CM
##YUNITS=TRANSMITTANCE
##RESOLUTION=5.2631578947368425
##FIRSTX=4000.0
##LASTX=400.0
##DELTAX=-5.2631578947368425
##MAXY=94.6875
##MINY=0.0
##XFACTOR=1
##YFACTOR=1
##NPOINTS=685
##FIRSTY=0.0
##XYDATA=(X++(Y..Y))
4000+0+87187500000+87187500000+87187500000+87187500000+87500000000
3968+87500000000+87500000000+87500000000+87500000000+87500000000+87812500000
3937+88125000000+87812500000+87500000000+87500000000+87812500000+87812500000
3905+88125000000+88125000000+88125000000+88125000000+88125000000+88125000000
3874+88437500000+88437500000+88437500000+88750000000+88750000000+88750000000
3842+88750000000+88125000000+87500000000+86875000000+86562500000+86250000000
3811+86250000000+85937500000+85625000000+85312500000+85312500000+85312500000
3779+85312500000+85937500000+86250000000+86875000000+87187500000+87500000000
3747+88125000000+88125000000+86250000000+84687500000+83750000000+84062500000
3716+84687500000+85937500000+86875000000+87500000000+87812500000+88125000000
3684+88437500000+89375000000+90000000000+90312500000+90625000000+90625000000
3653+90625000000+90937500000+90937500000+91250000000+91562500000+91875000000
3621+91875000000+92187500000+92187500000+92187500000+92187500000+92187500000
3589+92187500000+92187500000+92187500000+92187500000+92500000000+92500000000
3558+92500000000+92500000000+92500000000+92187500000+92187500000+91875000000
3526+91875000000+91875000000+91875000000+91875000000+91875000000+91875000000
3495+91875000000+91875000000+91875000000+91562500000+91562500000+91562500000
3463+91250000000+90937500000+90625000000+90312500000+89687500000+89687500000
3432+89375000000+89375000000+89687500000+90000000000+90000000000+89687500000
3400+89687500000+89375000000+89062500000+89062500000+88750000000+88750000000
3368+88437500000+88125000000+87500000000+87500000000+87187500000+86562500000
3337+85937500000+85625000000+84375000000+82187500000+77500000000+70000000000
3305+53125000000+30625000000+16562500000+13750000000+14062500000+28125000000
3274+38749999999+27500000000+21250000000+20625000000+24687500000+25000000000
3242+29062500000+41250000000+50312500000+44375000000+34687500000+34687500000
3211+40312499999+41250000000+57500000000+73125000000+79375000000+82187500000
3179+83437500000+84062500000+86562500000+89062500000+90625000000+91250000000
3147+90937500000+90625000000+90937500000+88750000000+84062500000+82812500000
3116+84687500000+90312500000+92812500000+93437500000+93125000000+93125000000
3084+92812500000+91250000000+90000000000+89375000000+90000000000+91875000000
3053+93437500000+93750000000+94062500000+94062500000+94062500000+94375000000
3021+94687500000+94687500000+94687500000+94375000000+94375000000+94375000000
2989+94375000000+94062500000+94062500000+94375000000+94375000000+94375000000
2958+94687500000+94687500000+94687500000+94687500000+94687500000+94375000000
2926+94062500000+93750000000+93437500000+93437500000+93437500000+93437500000
2895+93750000000+94062500000+93750000000+93437500000+93125000000+93125000000
2863+92812500000+92812500000+92500000000+92500000000+92187500000+92187500000
2832+91875000000+92187500000+92500000000+92812500000+93125000000+93125000000
2800+92812500000+92812500000+92812500000+93125000000+93437500000+93125000000
2768+92500000000+92187500000+92187500000+92812500000+93750000000+94062500000
2737+94375000000+94062500000+93437500000+93125000000+92812500000+91875000000
2705+90625000000+89375000000+87500000000+87187500000+87187500000+89375000000
2674+90312500000+89687500000+87500000000+82812500000+74062500000+69062500000
2642+68125000000+69062500000+75625000000+80937500000+85625000000+88750000000
2611+89375000000+88437500000+86875000000+86250000000+85937500000+85937500000
2579+85937500000+86250000000+86250000000+86562500000+86875000000+86562500000
2547+85937500000+85000000000+83750000000+82187500000+79062500000+75625000000
2516+70937500000+65000000000+58750000000+53125000000+47187500000+40625000000
2484+34375000000+29687500000+25312500000+20937500000+16875000000+13750000000
2453+10625000000+8125000000+5937500000+5625000000+5625000000+7187500000
2421+11562500000+16875000000+21875000000+25000000000+25625000000+24687500000
2389+21875000000+19062500000+15625000000+13750000000+13125000000+13437500000
2358+16562500000+23750000000+32500000000+41874999999+48437500000+53437500000
2326+58750000000+64062500000+68437500000+70000000000+69687500000+68125000000
2295+65312500000+58437500000+53750000000+46875000000+36250000000+22812500000
2263+10937500000+5312500000+4687500000+5000000000+10312500000+20937500000
2232+36875000000+49062500000+52187500000+51875000000+55937500000+62812500000
2200+66250000000+68437500000+72187500000+75937500000+79375000000+81562500000
2168+82500000000+83125000000+83125000000+83437500000+84687500000+86250000000
2137+87187500000+87500000000+87812500000+88125000000+88437500000+88125000000
2105+88125000000+87812500000+87500000000+87500000000+87187500000+86250000000
2074+85625000000+85000000000+85000000000+85625000000+86875000000+88437500000
2042+89687500000+90312500000+90937500000+90937500000+90937500000+90937500000
2011+90625000000+90625000000+90625000000+90625000000+90625000000+90312500000
1979+90312500000+90312500000+90312500000+90000000000+90000000000+90000000000
1947+89687500000+89375000000+89062500000+87812500000+86250000000+84375000000
1916+82187500000+78750000000+75000000000+72187500000+70625000000+66250000000
1884+56250000000+43125000000+31250000000+30625000000+33750000000+35312500000
1853+28750000000+28437500000+33437500000+45937500000+54062500000+60312500000
1821+66562500000+71562500000+75625000000+78125000000+79687500000+80937500000
1789+80312500000+78750000000+73437500000+55937500000+45937500000+53437500000
1758+58750000000+63125000000+52500000000+50625000000+39062500000+45312500000
1726+71250000000+77500000000+77812500000+79062500000+81562500000+84375000000
1695+85937500000+87187500000+87500000000+88125000000+87500000000+86250000000
1663+84375000000+80625000000+70625000000+55312500000+54687500000+60937500000
1632+70625000000+74062500000+75312500000+76562500000+79062500000+80000000000
1600+80312500000+81250000000+82500000000+83437500000+82500000000+81250000000
1568+77187500000+65312500000+58750000000+60000000000+69375000000+68437500000
1537+65000000000+64375000000+64687500000+67812500000+69062500000+65937500000
1505+57187500000+46875000000+42500000000+43750000000+53125000000+61250000000
1474+64062500000+63750000000+64062500000+65937500000+65625000000+62812500000
1442+56562500000+49375000000+37500000000+25937500000+17812500000+13125000000
1411+12187500000+12812500000+16875000000+19062500000+15625000000+12500000000
1379+12187500000+13437500000+20000000000+31875000000+45312500000+54687500000
1347+63125000000+69375000000+73437500000+75000000000+75937500000+77187500000
1316+80312500000+82500000000+84062500000+84687500000+84687500000+84375000000
1284+83750000000+83437500000+82812500000+82500000000+82187500000+82187500000
1253+81875000000+80937500000+78125000000+74375000000+66875000000+53437500000
1221+47187500000+43125000000+34375000000+32812500000+36562500000+47187500000
1189+49375000000+37812500000+37500000000+47187500000+58750000000+61250000000
1158+58437500000+51875000000+45312500000+37500000000+27187500000+17187500000
1126+12187500000+9062500000+7812500000+7812500000+10000000000+14687500000
1095+23437500000+33125000000+44375000000+54062500000+63437500000+70000000000
1063+75000000000+77812500000+80312500000+82187500000+83125000000+83437500000
1032+83750000000+85000000000+86250000000+87187500000+87812500000+88437500000
1000+88750000000+89062500000+89062500000+89062500000+88750000000+88125000000
968+86562500000+84062500000+78125000000+67500000000+54062500000+42812500000
937+29062500000+24687500000+26562500000+48124999999+65937500000+75937500000
905+80312500000+82500000000+83437500000+84062500000+82500000000+77812500000
874+67812500000+67812500000+80312500000+88125000000+89687500000+90937500000
842+91875000000+92187500000+92187500000+92187500000+92187500000+91875000000
811+91875000000+91250000000+86562500000+70937500000+70937500000+87500000000
779+90937500000+92500000000+93125000000+92500000000+91562500000+90625000000
747+89687500000+85937500000+63437500000+46875000000+57812500000+83750000000
716+86562500000+88437500000+89687500000+90625000000+86875000000+75625000000
684+69375000000+74062500000+86875000000+90625000000+91875000000+91875000000
653+90937500000+90000000000+88125000000+83125000000+74062500000+73125000000
621+75000000000+81875000000+86562500000+89375000000+91250000000+92812500000
589+94062500000+94687500000+94687500000+94687500000+94375000000+94062500000
558+93750000000+93125000000+93125000000+92812500000+92812500000+92500000000
526+92500000000+92187500000+92187500000+92187500000+92187500000+92500000000
495+92812500000+93125000000+93437500000+93750000000+93437500000+93125000000
463+92187500000+91250000000+90312500000+89062500000+88125000000+86875000000
432+85312500000+84062500000+82812500000+81875000000+80937500000+80312500000
400+80312500000
##END=
