##TITLE=2,2,4-trimethyl-1,3-pentanediol
##JCAMP-DX=4.24
##DATA TYPE=INFRARED SPECTRUM
##DATE=10/06/2025
##SAMPLING PROCEDURE=ATR
##ORIGIN=SDBS
##XUNITS=1/CM
##YUNITS=TRANSMITTANCE
##RESOLUTION=5.2631578947368425
##FIRSTX=4000.0
##LASTX=400.0
##DELTAX=-5.2631578947368425
##MAXY=94.6875
##MINY=0.0
##XFACTOR=1
##YFACTOR=1
##NPOINTS=685
##FIRSTY=0.0
##XYDATA=(X++(Y..Y))
4000+0+88437500000+88437500000+88437500000+88437500000+88437500000
3968+88437500000+88437500000+88437500000+88437500000+88437500000+88125000000
3937+88125000000+88125000000+88125000000+88125000000+88125000000+88125000000
3905+88125000000+88125000000+87812500000+87812500000+87812500000+87812500000
3874+88125000000+88125000000+88125000000+87812500000+87812500000+87812500000
3842+87500000000+87500000000+87500000000+87500000000+87500000000+87500000000
3811+87187500000+87187500000+87187500000+86875000000+86875000000+86875000000
3779+86562500000+86250000000+85937500000+85625000000+85312500000+85000000000
3747+84687500000+84375000000+83750000000+83125000000+82500000000+81875000000
3716+81250000000+80625000000+79687500000+78437500000+77187500000+75937500000
3684+74062500000+71875000000+69687500000+67500000000+64375000000+60937500000
3653+56875000000+53437500000+49375000000+45312500000+41250000000+37187499999
3621+32500000000+27812500000+23125000000+19687500000+15625000000+11875000000
3589+8437500000+6562500000+5625000000+5625000000+5937500000+7500000000
3558+8750000000+9687500000+10000000000+10000000000+10000000000+10625000000
3526+11875000000+14375000000+17187500000+21562500000+26562500000+31250000000
3495+35000000000+39375000000+43437499999+47187500000+50312500000+54062500000
3463+57187500000+60312500000+62500000000+65000000000+67187500000+69062500000
3432+70625000000+72500000000+74375000000+75937500000+76875000000+78125000000
3400+79375000000+80000000000+80937500000+81562500000+82187500000+82812500000
3368+83125000000+83437500000+83437500000+83750000000+83750000000+83437500000
3337+83125000000+82500000000+80937500000+78437500000+72812500000+59687500000
3305+44687500000+41562500000+28125000000+9062500000+10000000000+16875000000
3274+27187500000+36250000000+30937500000+26250000000+31875000000+37187499999
3242+25312500000+36875000000+32187500000+30000000000+31250000000+39062500000
3211+55000000000+65000000000+70312500000+72187500000+72812500000+73750000000
3179+76250000000+77812500000+78750000000+79687500000+80625000000+80937500000
3147+81250000000+81250000000+81562500000+81875000000+82500000000+82500000000
3116+81250000000+80937500000+81250000000+81250000000+81562500000+81875000000
3084+82500000000+83437500000+84062500000+84375000000+84375000000+84375000000
3053+84062500000+84062500000+84687500000+85625000000+86250000000+85937500000
3021+85625000000+85937500000+86250000000+86875000000+87500000000+88125000000
2989+88750000000+89375000000+89687500000+90000000000+90000000000+89687500000
2958+89687500000+89687500000+89687500000+89687500000+89687500000+89687500000
2926+89687500000+90000000000+90000000000+90000000000+90312500000+90312500000
2895+90312500000+90625000000+90625000000+90625000000+90625000000+90625000000
2863+90937500000+90937500000+90937500000+90937500000+90937500000+90937500000
2832+91250000000+91250000000+91250000000+91250000000+91250000000+91250000000
2800+91562500000+91562500000+91562500000+91562500000+91875000000+91875000000
2768+91875000000+91875000000+91875000000+91875000000+91875000000+91875000000
2737+91875000000+91875000000+91875000000+91875000000+91875000000+91875000000
2705+91875000000+91875000000+91875000000+92187500000+92187500000+92187500000
2674+92187500000+92187500000+91875000000+91875000000+91875000000+91875000000
2642+91875000000+91875000000+92187500000+92187500000+92187500000+92187500000
2611+92187500000+92187500000+92187500000+92187500000+92187500000+92187500000
2579+92187500000+92187500000+92187500000+92187500000+92187500000+92500000000
2547+92500000000+92500000000+92187500000+92187500000+92187500000+92187500000
2516+92187500000+92187500000+92187500000+92187500000+92187500000+92500000000
2484+92500000000+92500000000+92500000000+92500000000+92812500000+92812500000
2453+92812500000+92812500000+92812500000+92812500000+92812500000+92812500000
2421+92812500000+92812500000+92812500000+92812500000+92812500000+92812500000
2389+92812500000+92812500000+92812500000+92812500000+92812500000+92812500000
2358+92812500000+92812500000+92812500000+92812500000+92812500000+92812500000
2326+92812500000+92812500000+92812500000+92812500000+92812500000+92500000000
2295+92500000000+92500000000+92500000000+92812500000+92812500000+92812500000
2263+92812500000+92812500000+92812500000+92500000000+92500000000+92500000000
2232+92500000000+92187500000+92187500000+92187500000+92187500000+92187500000
2200+92187500000+92187500000+92187500000+92187500000+92187500000+92187500000
2168+91875000000+91875000000+91875000000+91875000000+91875000000+91562500000
2137+91562500000+91562500000+91562500000+91250000000+91250000000+91250000000
2105+91250000000+91250000000+91250000000+91250000000+91250000000+91250000000
2074+91562500000+91562500000+91562500000+91562500000+91562500000+91562500000
2042+91562500000+91562500000+91562500000+91562500000+91562500000+91562500000
2011+91250000000+91250000000+90937500000+90937500000+90625000000+90625000000
1979+90312500000+90312500000+89687500000+89375000000+89062500000+88750000000
1947+88437500000+87812500000+87187500000+86875000000+85937500000+85312500000
1916+84062500000+81875000000+78750000000+72500000000+61875000000+39687500000
1884+33750000000+37187499999+44999999999+44062500000+49062500000+59375000000
1853+65000000000+68437500000+70312500000+70625000000+70312500000+69062500000
1821+65937500000+62500000000+62187500000+62812500000+66875000000+70625000000
1789+73125000000+76250000000+79062500000+79375000000+73750000000+70000000000
1758+65625000000+48437500000+47812500000+50000000000+51562500000+56562500000
1726+46562499999+50000000000+52812500000+67500000000+59062500000+58125000000
1695+62187500000+70937500000+75000000000+73750000000+64375000000+56250000000
1663+56562500000+61250000000+60937500000+65000000000+67812500000+69687500000
1632+68750000000+69687500000+75000000000+77187500000+80000000000+83125000000
1600+84375000000+85625000000+86250000000+86562500000+86875000000+87187500000
1568+87500000000+87187500000+86875000000+86250000000+85625000000+85000000000
1537+83125000000+81875000000+80312500000+74375000000+72500000000+72812500000
1505+74375000000+80000000000+83437500000+85312500000+85937500000+84687500000
1474+79687500000+77812500000+79687500000+83750000000+81562500000+75312500000
1442+75312500000+80625000000+84687500000+86875000000+87500000000+87500000000
1411+86562500000+84687500000+80937500000+69375000000+49062500000+48750000000
1379+61875000000+72500000000+67500000000+65937500000+74687500000+81250000000
1347+84062500000+85312500000+85937500000+85937500000+85625000000+85000000000
1316+84062500000+82187500000+79062500000+73750000000+66875000000+53125000000
1284+25625000000+5000000000+4687500000+8437500000+39062500000+51562500000
1253+34375000000+35312500000+59375000000+51875000000+17500000000+12500000000
1221+30625000000+58750000000+57500000000+32500000000+33750000000+62500000000
1189+55625000000+25625000000+24375000000+36562500000+36562500000+46250000000
1158+61875000000+73437500000+75625000000+71875000000+75937500000+83750000000
1126+85312500000+80000000000+79687500000+85312500000+88125000000+85625000000
1095+76250000000+76875000000+86562500000+87812500000+80625000000+76562500000
1063+81250000000+88437500000+90937500000+91875000000+92187500000+92500000000
1032+92812500000+92812500000+92812500000+92812500000+92812500000+92500000000
1000+92187500000+90937500000+87500000000+88125000000+91875000000+92500000000
968+92812500000+92812500000+92812500000+92500000000+92187500000+92187500000
937+91875000000+91562500000+91250000000+90937500000+90312500000+89375000000
905+87500000000+77500000000+68437500000+69062500000+82187500000+85625000000
874+86250000000+85937500000+85625000000+85000000000+84062500000+83125000000
842+81875000000+80937500000+79375000000+77812500000+75625000000+74062500000
811+71875000000+69687500000+67187500000+65312500000+63125000000+61562500000
779+61250000000+61250000000+61562500000+62812500000+64687500000+66562500000
747+68437500000+70000000000+71250000000+67187500000+63437500000+64375000000
716+71250000000+73750000000+75000000000+75937500000+76562500000+76875000000
684+76875000000+76875000000+76562500000+76250000000+75312500000+74375000000
653+72812500000+71875000000+70625000000+70000000000+70000000000+70000000000
621+70625000000+71562500000+73125000000+75000000000+77812500000+80937500000
589+83437500000+85000000000+86250000000+87187500000+87812500000+87500000000
558+85625000000+80937500000+72500000000+69375000000+69375000000+72187500000
526+75937500000+80625000000+83437500000+85000000000+85937500000+86562500000
495+87500000000+88437500000+89062500000+89687500000+90312500000+90937500000
463+91562500000+91875000000+92187500000+92500000000+92812500000+93125000000
432+93437500000+93750000000+94062500000+94375000000+94375000000+94687500000
400+94687500000
##END=
