##TITLE=2,2-dimethyl-3-ethylpentane
##JCAMP-DX=4.24
##DATA TYPE=INFRARED SPECTRUM
##DATE=10/06/2025
##SAMPLING PROCEDURE=ATR
##ORIGIN=SDBS
##XUNITS=1/CM
##YUNITS=TRANSMITTANCE
##RESOLUTION=5.2631578947368425
##FIRSTX=4000.0
##LASTX=400.0
##DELTAX=-5.2631578947368425
##MAXY=95.0
##MINY=0.0
##XFACTOR=1
##YFACTOR=1
##NPOINTS=685
##FIRSTY=0.0
##XYDATA=(X++(Y..Y))
4000+0+92500000000+92500000000+92500000000+92187500000+92187500000
3968+92187500000+92187500000+92187500000+92500000000+92500000000+92187500000
3937+92187500000+91875000000+91562500000+91250000000+91250000000+91250000000
3905+91562500000+91875000000+91875000000+91875000000+91875000000+91875000000
3874+91562500000+91562500000+91562500000+91562500000+91562500000+91562500000
3842+91562500000+91562500000+91562500000+91250000000+91250000000+91250000000
3811+90937500000+90937500000+90937500000+90937500000+90937500000+90625000000
3779+90625000000+90625000000+90625000000+90625000000+90625000000+90937500000
3747+90937500000+90937500000+90937500000+90937500000+90625000000+90937500000
3716+90937500000+90937500000+90937500000+90937500000+90937500000+90937500000
3684+90625000000+90625000000+90625000000+90312500000+90312500000+90312500000
3653+90312500000+90312500000+90312500000+90312500000+90312500000+90312500000
3621+90000000000+90000000000+89687500000+89687500000+89375000000+89375000000
3589+89062500000+89062500000+89062500000+88750000000+88750000000+88437500000
3558+88437500000+88437500000+88437500000+88437500000+88437500000+88125000000
3526+88125000000+88125000000+87812500000+87812500000+87812500000+87500000000
3495+87187500000+87187500000+86875000000+86562500000+86562500000+86250000000
3463+85937500000+85625000000+85625000000+85312500000+85312500000+85000000000
3432+85000000000+85000000000+85000000000+85000000000+85312500000+85625000000
3400+86250000000+86562500000+86875000000+87187500000+87500000000+87187500000
3368+87187500000+86875000000+86875000000+86250000000+85625000000+85000000000
3337+83750000000+82500000000+80312500000+77500000000+72812500000+67812500000
3305+57187500000+41250000000+24375000000+10312500000+5312500000+4687500000
3274+5312500000+8437500000+11250000000+12500000000+16562500000+20937500000
3242+26250000000+26875000000+27812500000+24375000000+15000000000+15000000000
3211+20937500000+33750000000+39062500000+53750000000+65312500000+71250000000
3179+76250000000+79375000000+80625000000+83125000000+85312500000+85937500000
3147+86250000000+86562500000+85625000000+85937500000+86250000000+84375000000
3116+83750000000+85000000000+86562500000+87187500000+87812500000+88437500000
3084+89062500000+89375000000+89375000000+89375000000+89375000000+89375000000
3053+89687500000+90000000000+90000000000+89687500000+89687500000+89687500000
3021+89687500000+90000000000+90312500000+90625000000+90937500000+91250000000
2989+91562500000+91875000000+92187500000+92500000000+92500000000+92500000000
2958+92500000000+92500000000+92500000000+92500000000+92500000000+92500000000
2926+92500000000+92500000000+92500000000+92187500000+92187500000+91875000000
2895+91875000000+91875000000+91562500000+91562500000+91562500000+91562500000
2863+91875000000+91875000000+91875000000+92187500000+92187500000+92187500000
2832+92500000000+92500000000+92500000000+92500000000+92500000000+92812500000
2800+93125000000+93125000000+93125000000+93437500000+93437500000+93437500000
2768+93437500000+93437500000+93437500000+93750000000+93750000000+93750000000
2737+93750000000+93750000000+93750000000+93437500000+93750000000+93750000000
2705+93750000000+94062500000+94062500000+94062500000+94062500000+94062500000
2674+94062500000+94062500000+93750000000+94062500000+94062500000+94062500000
2642+94062500000+94062500000+94062500000+94062500000+94062500000+94062500000
2611+94062500000+94062500000+94062500000+94062500000+94062500000+94062500000
2579+94062500000+94062500000+94375000000+94375000000+94375000000+94375000000
2547+94375000000+94375000000+94375000000+94375000000+94375000000+94375000000
2516+94375000000+94062500000+94062500000+94062500000+94375000000+94375000000
2484+94375000000+94375000000+94375000000+94375000000+94375000000+94375000000
2453+94375000000+94375000000+94375000000+94375000000+94375000000+94375000000
2421+94375000000+94375000000+94375000000+94375000000+94375000000+94375000000
2389+94375000000+94375000000+94375000000+94375000000+94375000000+94375000000
2358+94375000000+94375000000+94375000000+94375000000+94375000000+94375000000
2326+94375000000+94375000000+94375000000+94375000000+94375000000+94375000000
2295+94375000000+94062500000+94062500000+94062500000+94062500000+94062500000
2263+94375000000+94375000000+94375000000+94375000000+94375000000+94375000000
2232+94062500000+94062500000+94062500000+93750000000+93750000000+93750000000
2200+93437500000+93437500000+93437500000+93437500000+93437500000+93437500000
2168+93437500000+93437500000+93125000000+93125000000+93125000000+93125000000
2137+93125000000+93125000000+93125000000+93125000000+93125000000+93125000000
2105+93125000000+93437500000+93437500000+93437500000+93750000000+93750000000
2074+93750000000+93750000000+93750000000+93750000000+93750000000+93750000000
2042+93750000000+93437500000+93437500000+93125000000+93125000000+93125000000
2011+92812500000+92812500000+92812500000+92500000000+92187500000+92187500000
1979+91875000000+91562500000+91562500000+91250000000+90937500000+90937500000
1947+90312500000+89687500000+88750000000+86875000000+85625000000+82500000000
1916+79375000000+74687500000+66562500000+54687500000+43437499999+34062500000
1884+31250000000+31875000000+34687500000+36250000000+43750000000+49687499999
1853+53437500000+58437500000+63437500000+68437500000+73437500000+78437500000
1821+82187500000+83750000000+84687500000+85312500000+85000000000+84062500000
1789+82500000000+77187500000+65625000000+46562499999+45625000000+62812500000
1758+57500000000+46250000000+44375000000+54687500000+42187500000+26250000000
1726+34062500000+65625000000+75937500000+81875000000+85000000000+86875000000
1695+88750000000+90000000000+90625000000+90937500000+90937500000+90625000000
1663+90000000000+88125000000+85000000000+84375000000+85312500000+88125000000
1632+90000000000+90937500000+91250000000+91250000000+91562500000+91875000000
1600+91875000000+91875000000+91562500000+90625000000+89687500000+88125000000
1568+85625000000+81250000000+74375000000+71875000000+71875000000+75625000000
1537+79375000000+79375000000+77812500000+78437500000+81875000000+85937500000
1505+85312500000+80312500000+74687500000+74687500000+82500000000+88125000000
1474+90937500000+91875000000+92500000000+93125000000+93125000000+93125000000
1442+92187500000+90937500000+88125000000+87500000000+87812500000+89062500000
1411+91250000000+92187500000+91875000000+91875000000+92187500000+93125000000
1379+93750000000+94062500000+94062500000+93437500000+92500000000+90000000000
1347+85937500000+85937500000+87812500000+90937500000+92500000000+93125000000
1316+93750000000+93750000000+93750000000+93750000000+93437500000+93125000000
1284+92812500000+92187500000+91562500000+90312500000+88750000000+85937500000
1253+85937500000+86250000000+87187500000+88750000000+89687500000+90937500000
1221+92500000000+93750000000+94375000000+94687500000+94687500000+95000000000
1189+94687500000+94687500000+94375000000+94375000000+94062500000+93437500000
1158+93125000000+92500000000+92187500000+91250000000+89687500000+85937500000
1126+83750000000+78125000000+65312500000+65000000000+73750000000+80937500000
1095+84687500000+84687500000+88750000000+91250000000+92500000000+93125000000
1063+93437500000+93437500000+93750000000+94062500000+94062500000+93750000000
1032+93125000000+91875000000+90937500000+90937500000+91562500000+93125000000
1000+94062500000+94062500000+94375000000+94375000000+94062500000+94062500000
968+93750000000+93437500000+93125000000+93125000000+92500000000+91250000000
937+89062500000+87500000000+87187500000+87500000000+85312500000+82187500000
905+82187500000+86250000000+89687500000+91250000000+91875000000+92187500000
874+92187500000+91875000000+90625000000+89687500000+89062500000+89062500000
842+89062500000+89687500000+90312500000+91250000000+91875000000+92187500000
811+92187500000+92187500000+92500000000+92500000000+92500000000+92812500000
779+92812500000+92812500000+92812500000+93125000000+93125000000+93125000000
747+93125000000+93125000000+93125000000+93125000000+92812500000+92812500000
716+92812500000+92812500000+92812500000+92812500000+92812500000+92812500000
684+92812500000+92812500000+92500000000+92187500000+92187500000+92187500000
653+92187500000+92187500000+92187500000+92187500000+92187500000+92187500000
621+92500000000+92500000000+92812500000+92812500000+92812500000+92812500000
589+92812500000+92500000000+92500000000+92187500000+91875000000+91562500000
558+90937500000+90625000000+90312500000+90000000000+89375000000+89062500000
526+88125000000+87812500000+87187500000+86875000000+86562500000+86562500000
495+86562500000+86562500000+86875000000+86875000000+87187500000+87500000000
463+87812500000+88125000000+87500000000+86250000000+85000000000+82500000000
432+80000000000+77187500000+75312500000+73125000000+71562500000+70625000000
400+69687500000
##END=
