##TITLE=2,2-dimethylbutane
##JCAMP-DX=4.24
##DATA TYPE=INFRARED SPECTRUM
##DATE=10/06/2025
##SAMPLING PROCEDURE=ATR
##ORIGIN=SDBS
##XUNITS=1/CM
##YUNITS=TRANSMITTANCE
##RESOLUTION=5.2631578947368425
##FIRSTX=4000.0
##LASTX=400.0
##DELTAX=-5.2631578947368425
##MAXY=95.0
##MINY=0.0
##XFACTOR=1
##YFACTOR=1
##NPOINTS=685
##FIRSTY=0.0
##XYDATA=(X++(Y..Y))
4000+0+94375000000+94375000000+94062500000+94062500000+94062500000
3968+93750000000+93750000000+93750000000+93750000000+94062500000+94375000000
3937+94375000000+94375000000+94062500000+94062500000+94062500000+94062500000
3905+94062500000+94062500000+94375000000+94375000000+94375000000+94375000000
3874+94375000000+94375000000+94375000000+94375000000+94375000000+94375000000
3842+94375000000+94687500000+94687500000+94687500000+95000000000+94687500000
3811+94687500000+94687500000+94687500000+94687500000+94687500000+94687500000
3779+94687500000+94687500000+94687500000+94687500000+94687500000+94687500000
3747+94687500000+94687500000+94687500000+94687500000+94687500000+94687500000
3716+94687500000+94687500000+94687500000+94687500000+94687500000+94687500000
3684+94375000000+94375000000+94375000000+94375000000+94375000000+94375000000
3653+94375000000+94375000000+94375000000+94375000000+94062500000+94062500000
3621+93750000000+93750000000+93750000000+93750000000+93750000000+93750000000
3589+93750000000+93750000000+93750000000+93437500000+93125000000+92812500000
3558+92812500000+92812500000+93125000000+93125000000+93125000000+93125000000
3526+93125000000+93125000000+93125000000+93125000000+93125000000+93125000000
3495+93125000000+93125000000+92812500000+92187500000+91562500000+91250000000
3463+90625000000+90625000000+90312500000+90312500000+90312500000+90625000000
3432+90625000000+90625000000+90625000000+90937500000+90937500000+91250000000
3400+91562500000+91875000000+91875000000+92187500000+92187500000+92187500000
3368+91562500000+90937500000+90312500000+90000000000+90000000000+90000000000
3337+89687500000+89062500000+87812500000+85937500000+83125000000+79062500000
3305+71250000000+57812500000+35000000000+13437500000+5625000000+4687500000
3274+4687500000+7187500000+11562500000+15937500000+21562500000+21562500000
3242+18750000000+19375000000+25312500000+25312500000+24375000000+24375000000
3211+25937500000+34687500000+42187500000+60937500000+71562500000+75937500000
3179+82187500000+84375000000+84687500000+85312500000+87500000000+89687500000
3147+89687500000+90625000000+91562500000+90000000000+90000000000+90937500000
3116+90937500000+89375000000+89687500000+91250000000+91562500000+91875000000
3084+92500000000+92187500000+91562500000+91250000000+92187500000+93125000000
3053+93125000000+93125000000+93437500000+93437500000+93750000000+94062500000
3021+94062500000+94062500000+94062500000+94375000000+94375000000+94375000000
2989+94375000000+94375000000+94375000000+94687500000+94687500000+94687500000
2958+94687500000+94687500000+94687500000+94375000000+94375000000+94375000000
2926+94062500000+94062500000+94062500000+94062500000+94062500000+93750000000
2895+93750000000+93750000000+93750000000+94062500000+94062500000+94062500000
2863+94062500000+94375000000+94375000000+94375000000+94375000000+94375000000
2832+94687500000+94687500000+94375000000+94062500000+94062500000+94375000000
2800+94687500000+94687500000+94687500000+94687500000+94375000000+94375000000
2768+94687500000+94687500000+94687500000+94687500000+94687500000+94687500000
2737+94687500000+94687500000+94687500000+94687500000+94687500000+95000000000
2705+95000000000+95000000000+94687500000+94687500000+94687500000+94687500000
2674+94375000000+94375000000+94375000000+94375000000+94687500000+94687500000
2642+94687500000+94687500000+94687500000+94687500000+94375000000+94375000000
2611+94375000000+94687500000+94687500000+94687500000+94687500000+94375000000
2579+94375000000+94375000000+94375000000+94375000000+94375000000+94375000000
2547+94375000000+94375000000+94062500000+94062500000+94062500000+94062500000
2516+94062500000+94062500000+94062500000+94375000000+94375000000+94375000000
2484+94375000000+94375000000+94375000000+94375000000+94375000000+94062500000
2453+94062500000+94062500000+94062500000+94062500000+94062500000+94062500000
2421+94062500000+94062500000+94062500000+94375000000+94375000000+94375000000
2389+94375000000+94062500000+94062500000+94062500000+94062500000+94062500000
2358+94062500000+94062500000+94062500000+94062500000+94062500000+94062500000
2326+94062500000+94062500000+94062500000+94062500000+94062500000+94062500000
2295+94062500000+94062500000+94062500000+94062500000+94062500000+94062500000
2263+93750000000+93750000000+93750000000+93750000000+93750000000+93750000000
2232+93437500000+93437500000+93437500000+93437500000+93437500000+93437500000
2200+93437500000+93750000000+93750000000+93750000000+93750000000+93437500000
2168+93437500000+92812500000+92187500000+91875000000+91562500000+91250000000
2137+90625000000+90625000000+90625000000+90625000000+90937500000+91250000000
2105+91250000000+90625000000+89687500000+88750000000+88750000000+89062500000
2074+89062500000+89062500000+89375000000+90312500000+91562500000+92500000000
2042+92812500000+92812500000+92812500000+93125000000+93125000000+93125000000
2011+93125000000+93125000000+93125000000+93125000000+93125000000+93125000000
1979+92812500000+92812500000+92812500000+92500000000+92187500000+91875000000
1947+91250000000+90625000000+90000000000+89375000000+87812500000+85000000000
1916+82812500000+78437500000+72812500000+64687500000+59375000000+50000000000
1884+44375000000+44062500000+39687500000+39375000000+41874999999+51875000000
1853+63125000000+71250000000+75000000000+78125000000+80625000000+83437500000
1821+85312500000+86250000000+86875000000+87187500000+87187500000+86250000000
1789+85000000000+83125000000+78750000000+70625000000+67187500000+70937500000
1758+65000000000+58750000000+58750000000+64062500000+50625000000+37812500000
1726+39062500000+63437500000+78750000000+85312500000+87500000000+89062500000
1695+89375000000+89062500000+89062500000+89375000000+89375000000+90625000000
1663+90000000000+89687500000+89687500000+89687500000+90312500000+91875000000
1632+92812500000+93125000000+93125000000+93125000000+93125000000+92812500000
1600+92500000000+91875000000+90625000000+88750000000+84687500000+83125000000
1568+84062500000+87500000000+89375000000+89062500000+86250000000+81875000000
1537+75625000000+69062500000+63750000000+64062500000+70312500000+76562500000
1505+81562500000+84687500000+86875000000+88437500000+90000000000+90937500000
1474+92187500000+92812500000+92812500000+93125000000+93125000000+93437500000
1442+93437500000+93437500000+93437500000+93437500000+93125000000+92187500000
1411+91875000000+91562500000+91562500000+91562500000+91875000000+92187500000
1379+92187500000+92500000000+92812500000+92812500000+92500000000+92187500000
1347+91250000000+89687500000+87187500000+84375000000+84062500000+87187500000
1316+90312500000+91250000000+91562500000+91875000000+91875000000+91562500000
1284+91562500000+91250000000+91250000000+90625000000+88750000000+85312500000
1253+80937500000+80937500000+85937500000+89375000000+89375000000+86875000000
1221+84375000000+84687500000+87500000000+87812500000+88437500000+90312500000
1189+91250000000+91875000000+91875000000+92187500000+92187500000+92500000000
1158+92812500000+92812500000+93125000000+93125000000+92500000000+91250000000
1126+90625000000+90937500000+92500000000+93437500000+94062500000+94062500000
1095+94062500000+94375000000+94375000000+94375000000+94062500000+94062500000
1063+94062500000+93750000000+93750000000+93750000000+93750000000+93750000000
1032+93750000000+93437500000+93437500000+93437500000+93125000000+93125000000
1000+93125000000+93125000000+92812500000+92812500000+92500000000+92187500000
968+89687500000+92500000000+92500000000+92812500000+92500000000+91875000000
937+90937500000+88750000000+85937500000+85625000000+88125000000+91875000000
905+93437500000+94062500000+94062500000+94375000000+94375000000+94375000000
874+94687500000+94687500000+94687500000+94375000000+94375000000+94375000000
842+94062500000+94062500000+94062500000+94062500000+94062500000+94062500000
811+94375000000+94375000000+94375000000+94375000000+94375000000+94375000000
779+94375000000+94375000000+94375000000+94687500000+94687500000+94687500000
747+94687500000+94687500000+94687500000+95000000000+95000000000+95000000000
716+94687500000+94687500000+94687500000+94687500000+94687500000+94687500000
684+94687500000+94687500000+94687500000+94687500000+94687500000+94687500000
653+94687500000+94687500000+94687500000+94687500000+94687500000+94687500000
621+94687500000+94375000000+94375000000+94375000000+94375000000+94375000000
589+94375000000+94375000000+94375000000+94375000000+94375000000+94062500000
558+94062500000+94062500000+93750000000+93750000000+93750000000+93437500000
526+93437500000+93125000000+93125000000+93125000000+93125000000+92812500000
495+92812500000+92812500000+92812500000+92500000000+92500000000+92500000000
463+92187500000+91875000000+91562500000+91250000000+90625000000+89687500000
432+89375000000+88437500000+88125000000+87187500000+86875000000+86250000000
400+85937500000
##END=
