##TITLE=2,3,5-triphenyl-2H-tetrazolium chloride
##JCAMP-DX=4.24
##DATA TYPE=INFRARED SPECTRUM
##DATE=10/06/2025
##SAMPLING PROCEDURE=ATR
##ORIGIN=SDBS
##XUNITS=1/CM
##YUNITS=TRANSMITTANCE
##RESOLUTION=5.2631578947368425
##FIRSTX=4000.0
##LASTX=400.0
##DELTAX=-5.2631578947368425
##MAXY=94.6875
##MINY=0.0
##XFACTOR=1
##YFACTOR=1
##NPOINTS=685
##FIRSTY=0.0
##XYDATA=(X++(Y..Y))
4000+0+79062500000+79062500000+79062500000+79062500000+79062500000
3968+79062500000+79375000000+79375000000+79375000000+79375000000+79375000000
3937+79062500000+79062500000+79062500000+79062500000+79062500000+79062500000
3905+79375000000+79375000000+79375000000+79375000000+79375000000+79687500000
3874+79687500000+79687500000+79687500000+79375000000+79375000000+79062500000
3842+79062500000+79062500000+79062500000+78750000000+78750000000+79062500000
3811+79375000000+79375000000+79375000000+79375000000+79375000000+79375000000
3779+79375000000+79375000000+79062500000+78750000000+78750000000+78750000000
3747+78750000000+79062500000+79062500000+79062500000+79062500000+79062500000
3716+79062500000+79062500000+79062500000+79062500000+78750000000+78437500000
3684+78437500000+78125000000+78125000000+78125000000+78125000000+77812500000
3653+77812500000+77812500000+77500000000+77187500000+77187500000+76875000000
3621+76875000000+76875000000+76875000000+76875000000+76562500000+76562500000
3589+76562500000+76562500000+76250000000+76250000000+76250000000+76250000000
3558+76250000000+76250000000+75937500000+75937500000+75937500000+76250000000
3526+76250000000+76250000000+76250000000+76250000000+76562500000+76562500000
3495+76562500000+76562500000+76875000000+76875000000+76875000000+76875000000
3463+76562500000+76562500000+76562500000+76562500000+76250000000+75937500000
3432+75937500000+75937500000+75937500000+76250000000+76250000000+75937500000
3400+76250000000+75937500000+75625000000+75312500000+74687500000+72812500000
3368+70937500000+70937500000+68750000000+66562500000+60937500000+60312500000
3337+56562500000+56250000000+55000000000+55625000000+55625000000+55000000000
3305+52812500000+49375000000+41250000000+30000000000+17812500000+13125000000
3274+11875000000+12812500000+8125000000+5312500000+4687500000+5312500000
3242+10937500000+16875000000+23437500000+29062500000+31562500000+26562500000
3211+21562500000+17500000000+18125000000+35312500000+60312500000+72500000000
3179+78437500000+80625000000+82187500000+83437500000+84375000000+84687500000
3147+85000000000+85312500000+85000000000+85000000000+84687500000+84375000000
3116+84375000000+84375000000+84687500000+84687500000+84687500000+84375000000
3084+84375000000+84375000000+84375000000+84375000000+84375000000+84687500000
3053+84687500000+84687500000+84687500000+85000000000+85000000000+85312500000
3021+85312500000+85625000000+85625000000+85937500000+85937500000+86250000000
2989+86562500000+86562500000+86875000000+86875000000+87187500000+87187500000
2958+86875000000+86875000000+86875000000+87187500000+87187500000+87187500000
2926+87500000000+87500000000+87187500000+86875000000+86562500000+86250000000
2895+86250000000+86562500000+86562500000+86875000000+87187500000+87187500000
2863+87187500000+87187500000+87500000000+87500000000+87500000000+87500000000
2832+87812500000+87812500000+87812500000+87812500000+87812500000+88125000000
2800+88125000000+87812500000+87812500000+87812500000+87812500000+88125000000
2768+88125000000+88125000000+88125000000+88437500000+88437500000+88437500000
2737+88437500000+88437500000+88437500000+88437500000+88437500000+88750000000
2705+88750000000+89062500000+89062500000+89062500000+89062500000+89062500000
2674+89062500000+89062500000+89062500000+89062500000+89062500000+88750000000
2642+88437500000+88125000000+88125000000+88125000000+87812500000+87812500000
2611+87812500000+87812500000+87812500000+88125000000+88125000000+88125000000
2579+88125000000+88125000000+88125000000+88437500000+88437500000+88437500000
2547+88437500000+88437500000+88750000000+88750000000+88750000000+89062500000
2516+89062500000+89062500000+89062500000+89062500000+88750000000+88750000000
2484+88750000000+88750000000+89062500000+89062500000+89062500000+89375000000
2453+89375000000+89687500000+89687500000+89687500000+89687500000+89687500000
2421+89687500000+89687500000+89687500000+89687500000+89687500000+89375000000
2389+89375000000+89375000000+89375000000+89375000000+89375000000+89687500000
2358+89687500000+90000000000+90000000000+90000000000+90000000000+90000000000
2326+89687500000+89687500000+89687500000+89687500000+89687500000+89687500000
2295+89687500000+90000000000+90000000000+90000000000+90000000000+90312500000
2263+90312500000+90312500000+90625000000+90625000000+90625000000+90625000000
2232+90625000000+90625000000+90625000000+90312500000+90312500000+90312500000
2200+90312500000+90312500000+90312500000+90312500000+90312500000+90312500000
2168+90312500000+90312500000+90312500000+90312500000+90312500000+90312500000
2137+90312500000+90312500000+90312500000+90312500000+90312500000+90000000000
2105+90000000000+89687500000+89375000000+88437500000+87812500000+85000000000
2074+78125000000+75937500000+79687500000+85937500000+86875000000+85937500000
2042+86250000000+86250000000+87500000000+90000000000+90937500000+91250000000
2011+91562500000+91875000000+92187500000+91562500000+90625000000+89062500000
1979+85312500000+78750000000+61875000000+55312500000+55312500000+70312500000
1947+80937500000+85000000000+86562500000+88125000000+89062500000+87500000000
1916+85000000000+65312500000+38125000000+35937500000+38749999999+54062500000
1884+60000000000+43125000000+29687500000+25625000000+21875000000+21875000000
1853+22812500000+32812500000+44999999999+55000000000+62187500000+68125000000
1821+73750000000+78125000000+80312500000+80625000000+81250000000+81875000000
1789+82187500000+82812500000+83125000000+83437500000+80937500000+75000000000
1758+69687500000+61250000000+59062500000+61875000000+68750000000+69687500000
1726+72500000000+75625000000+77812500000+79687500000+80625000000+81562500000
1695+82500000000+83437500000+83750000000+83750000000+83750000000+84375000000
1663+85000000000+84375000000+82187500000+79687500000+77187500000+77187500000
1632+80312500000+83125000000+84375000000+84375000000+84375000000+85625000000
1600+86250000000+86875000000+87187500000+87187500000+87187500000+86875000000
1568+86875000000+87187500000+87812500000+88437500000+88750000000+89062500000
1537+89375000000+89375000000+89375000000+89687500000+89687500000+89687500000
1505+89687500000+89687500000+89062500000+87187500000+83125000000+81250000000
1474+77187500000+74375000000+64062500000+62187500000+59375000000+59062500000
1442+72812500000+79687500000+80312500000+80000000000+83750000000+86250000000
1411+87500000000+88437500000+89062500000+89375000000+89687500000+89687500000
1379+89687500000+89687500000+90000000000+90312500000+90312500000+90312500000
1347+90000000000+89375000000+87812500000+83125000000+81875000000+83125000000
1316+87500000000+89375000000+90625000000+90937500000+91250000000+90937500000
1284+90312500000+89375000000+84375000000+79687500000+82500000000+82812500000
1253+86562500000+88750000000+88437500000+69375000000+60937500000+61875000000
1221+69062500000+74375000000+86250000000+88125000000+89062500000+89062500000
1189+89687500000+90000000000+90000000000+90312500000+90312500000+90625000000
1158+90312500000+89062500000+88125000000+87812500000+87500000000+83437500000
1126+82500000000+84062500000+86562500000+87187500000+90625000000+91562500000
1095+92187500000+92187500000+92500000000+92500000000+92500000000+92812500000
1063+92812500000+92812500000+93125000000+93125000000+92812500000+92187500000
1032+88750000000+88125000000+88750000000+90937500000+91875000000+92500000000
1000+92812500000+92812500000+92812500000+92500000000+93437500000+93437500000
968+93437500000+93125000000+92812500000+92187500000+91250000000+88437500000
937+71875000000+61250000000+64687500000+56250000000+45937500000+53437500000
905+41250000000+40937500000+60312500000+77500000000+85625000000+88437500000
874+89062500000+87187500000+78437500000+64062500000+67500000000+45937500000
842+47812500000+67500000000+77812500000+85625000000+86562500000+72500000000
811+56562500000+52187500000+36562500000+44999999999+55937500000+52812500000
779+63125000000+78437500000+81875000000+81250000000+85625000000+89375000000
747+90000000000+90937500000+91250000000+91875000000+92187500000+92500000000
716+92500000000+92500000000+91562500000+85000000000+83437500000+72500000000
684+65312500000+83750000000+90000000000+91250000000+91875000000+92187500000
653+92187500000+92500000000+92187500000+92187500000+92500000000+92500000000
621+92812500000+93125000000+93750000000+94062500000+94375000000+94687500000
589+94687500000+93750000000+85625000000+84375000000+87500000000+89062500000
558+88750000000+89687500000+91250000000+91562500000+91875000000+91875000000
526+92187500000+92187500000+92187500000+91875000000+91875000000+91875000000
495+91875000000+92187500000+92500000000+92500000000+92812500000+92500000000
463+92187500000+91875000000+91250000000+90312500000+89375000000+87812500000
432+86562500000+85000000000+83437500000+81875000000+80625000000+79687500000
400+79062500000
##END=
