##TITLE=2,3,5-tri(4-biphenylyl)-2H-tetrazolium chloride
##JCAMP-DX=4.24
##DATA TYPE=INFRARED SPECTRUM
##DATE=10/06/2025
##SAMPLING PROCEDURE=ATR
##ORIGIN=SDBS
##XUNITS=1/CM
##YUNITS=TRANSMITTANCE
##RESOLUTION=5.2631578947368425
##FIRSTX=4000.0
##LASTX=400.0
##DELTAX=-5.2631578947368425
##MAXY=94.6875
##MINY=0.0
##XFACTOR=1
##YFACTOR=1
##NPOINTS=685
##FIRSTY=0.0
##XYDATA=(X++(Y..Y))
4000+0+79687500000+79375000000+79375000000+79687500000+79687500000
3968+79687500000+79687500000+80000000000+80000000000+80000000000+80000000000
3937+79687500000+79375000000+79062500000+78750000000+78437500000+78437500000
3905+78437500000+78437500000+78437500000+78437500000+78750000000+78750000000
3874+78750000000+78750000000+79062500000+79062500000+79062500000+79375000000
3842+79687500000+79687500000+79687500000+79687500000+79375000000+79062500000
3811+78750000000+78750000000+78750000000+79375000000+79687500000+79687500000
3779+80000000000+79375000000+78125000000+76875000000+75937500000+75625000000
3747+75625000000+75937500000+76250000000+76562500000+76875000000+76875000000
3716+77187500000+77187500000+77187500000+76875000000+76562500000+76250000000
3684+75937500000+75625000000+75000000000+74687500000+74062500000+73750000000
3653+73437500000+73125000000+72500000000+72187500000+71875000000+71562500000
3621+70937500000+70625000000+70312500000+70000000000+69687500000+69062500000
3589+68750000000+68437500000+68125000000+67812500000+67500000000+67187500000
3558+66875000000+66875000000+66562500000+66562500000+66250000000+66250000000
3526+66250000000+66250000000+66250000000+66562500000+66875000000+66875000000
3495+66875000000+67187500000+67187500000+67500000000+67812500000+68125000000
3463+67812500000+67812500000+67500000000+67500000000+67187500000+67187500000
3432+67187500000+67500000000+67500000000+67500000000+67187500000+68125000000
3400+67812500000+68750000000+68750000000+66875000000+67500000000+65312500000
3368+65312500000+65000000000+62500000000+60312500000+57187500000+56562500000
3337+56250000000+55000000000+53750000000+53437500000+53125000000+50000000000
3305+47812500000+42812500000+34062500000+25625000000+13750000000+10625000000
3274+10000000000+10000000000+7187500000+4687500000+4687500000+5625000000
3242+11250000000+16562500000+21875000000+26875000000+27187500000+24375000000
3211+18437500000+15937500000+17500000000+34687500000+60000000000+72500000000
3179+78437500000+81250000000+83125000000+83437500000+84062500000+84375000000
3147+84687500000+85000000000+85000000000+84375000000+84062500000+83750000000
3116+83437500000+83437500000+83437500000+83437500000+83437500000+83125000000
3084+83125000000+83125000000+83437500000+83437500000+83437500000+83750000000
3053+83750000000+83750000000+83750000000+83750000000+83750000000+83750000000
3021+84062500000+84062500000+84375000000+84687500000+84687500000+85000000000
2989+85000000000+85625000000+85937500000+85937500000+85937500000+85937500000
2958+85937500000+85937500000+86562500000+86875000000+86875000000+86562500000
2926+86875000000+86875000000+86875000000+86875000000+86875000000+86875000000
2895+86875000000+87187500000+87187500000+87187500000+87500000000+87500000000
2863+87500000000+87500000000+87500000000+87500000000+87500000000+87812500000
2832+87812500000+87812500000+87812500000+88125000000+88125000000+88437500000
2800+88437500000+88750000000+88750000000+88750000000+88437500000+88125000000
2768+88125000000+88125000000+89062500000+89375000000+89375000000+89375000000
2737+89375000000+89375000000+89375000000+89375000000+89375000000+89687500000
2705+89687500000+90000000000+90000000000+90000000000+90000000000+90000000000
2674+90000000000+90000000000+90000000000+90312500000+90312500000+90312500000
2642+90625000000+90625000000+90625000000+90625000000+90625000000+90625000000
2611+90625000000+90312500000+90312500000+90312500000+90000000000+90000000000
2579+90000000000+89687500000+89687500000+89687500000+89687500000+89687500000
2547+89687500000+89687500000+89687500000+89687500000+89687500000+89687500000
2516+89687500000+89687500000+89687500000+89687500000+89687500000+90000000000
2484+90000000000+90000000000+90000000000+90312500000+90312500000+90312500000
2453+90625000000+90625000000+90937500000+91250000000+91562500000+91875000000
2421+91875000000+92187500000+92187500000+92187500000+91875000000+91875000000
2389+91875000000+91875000000+91875000000+91562500000+91562500000+91250000000
2358+91250000000+90937500000+90937500000+90937500000+90937500000+91250000000
2326+91250000000+91562500000+91562500000+91562500000+91562500000+91562500000
2295+91562500000+91562500000+91250000000+91250000000+90937500000+90625000000
2263+90625000000+90312500000+90312500000+90312500000+90312500000+90312500000
2232+90000000000+89375000000+89062500000+88437500000+88437500000+88437500000
2200+88437500000+88437500000+88437500000+88437500000+88750000000+88750000000
2168+89062500000+89062500000+89062500000+89062500000+89375000000+89375000000
2137+89062500000+89062500000+88437500000+88125000000+87500000000+87187500000
2105+86562500000+85625000000+84375000000+80937500000+72500000000+67187500000
2074+67187500000+71875000000+78437500000+78125000000+77187500000+77500000000
2042+80625000000+83750000000+86250000000+87812500000+85312500000+85000000000
2011+85937500000+87187500000+88437500000+87500000000+84062500000+78750000000
1979+78125000000+78750000000+80937500000+84687500000+87500000000+88437500000
1947+87187500000+82812500000+78437500000+76875000000+78437500000+83750000000
1916+84375000000+80312500000+64375000000+47187500000+47187500000+54687500000
1884+60625000000+49687499999+32812500000+21250000000+19687500000+22187500000
1853+28750000000+39375000000+50937500000+59687500000+64687500000+69062500000
1821+71562500000+74687500000+77187500000+80625000000+80000000000+79062500000
1789+79375000000+79375000000+79375000000+79375000000+77500000000+72500000000
1758+67812500000+60312500000+59062500000+62500000000+71562500000+73125000000
1726+76250000000+80312500000+81875000000+82500000000+82812500000+82500000000
1695+82500000000+82812500000+83750000000+85000000000+83750000000+81875000000
1663+80625000000+80937500000+82500000000+84687500000+85000000000+84687500000
1632+83437500000+82812500000+82500000000+82500000000+83437500000+85312500000
1600+85625000000+85937500000+86562500000+87187500000+87500000000+87500000000
1568+87500000000+87500000000+87500000000+87500000000+87500000000+87500000000
1537+87500000000+87187500000+87187500000+86875000000+86250000000+85000000000
1505+82812500000+81250000000+80000000000+80000000000+81250000000+80312500000
1474+79375000000+80000000000+76562500000+70937500000+69375000000+70000000000
1442+74375000000+80312500000+80937500000+81250000000+85312500000+86875000000
1411+87812500000+87812500000+87187500000+86875000000+86562500000+86562500000
1379+86875000000+87500000000+89062500000+90000000000+90625000000+90312500000
1347+89375000000+87812500000+85000000000+84375000000+85937500000+89375000000
1316+90312500000+90625000000+90937500000+91250000000+91250000000+90625000000
1284+89687500000+88437500000+88437500000+88750000000+88750000000+89062500000
1253+89062500000+89687500000+80000000000+72187500000+79687500000+66875000000
1221+64062500000+71250000000+83125000000+87500000000+89062500000+89687500000
1189+89687500000+89687500000+89687500000+89687500000+90000000000+90625000000
1158+91250000000+91875000000+92500000000+92812500000+92812500000+92187500000
1126+91875000000+91250000000+90625000000+90625000000+91250000000+92500000000
1095+93750000000+94375000000+94375000000+94687500000+94687500000+94375000000
1063+94375000000+93437500000+92187500000+90625000000+87500000000+81250000000
1032+72812500000+66562500000+62812500000+61875000000+62187500000+67187500000
1000+76250000000+81875000000+85312500000+88437500000+90312500000+90937500000
968+92500000000+93750000000+94062500000+94687500000+94687500000+94687500000
937+94375000000+93125000000+89062500000+76875000000+71562500000+60937500000
905+52187500000+51875000000+55000000000+68125000000+76562500000+76875000000
874+65000000000+58125000000+58125000000+69375000000+74375000000+66562500000
842+66875000000+70625000000+73125000000+80937500000+80937500000+70312500000
811+60000000000+57500000000+58437500000+67500000000+76875000000+82812500000
779+85937500000+87187500000+88125000000+89062500000+90000000000+90312500000
747+90312500000+90312500000+90625000000+90625000000+90937500000+91250000000
716+91250000000+90312500000+87500000000+83125000000+82812500000+81562500000
684+82500000000+87187500000+88750000000+90000000000+90312500000+90312500000
653+90312500000+90000000000+89375000000+88750000000+88125000000+87812500000
621+87500000000+87500000000+87812500000+88125000000+88437500000+89062500000
589+89687500000+90312500000+90312500000+90000000000+89062500000+88437500000
558+87500000000+86562500000+85625000000+85312500000+84687500000+84687500000
526+84375000000+84375000000+84687500000+84687500000+85312500000+85625000000
495+86250000000+86875000000+87500000000+88437500000+89062500000+90312500000
463+91250000000+91875000000+92187500000+91875000000+91562500000+90312500000
432+89062500000+87812500000+86562500000+85000000000+83750000000+83125000000
400+82500000000
##END=
