##TITLE=2,3-dihydroxy-2-methylpropionic acid
##JCAMP-DX=4.24
##DATA TYPE=INFRARED SPECTRUM
##DATE=10/06/2025
##SAMPLING PROCEDURE=ATR
##ORIGIN=SDBS
##XUNITS=1/CM
##YUNITS=TRANSMITTANCE
##RESOLUTION=5.2631578947368425
##FIRSTX=4000.0
##LASTX=400.0
##DELTAX=-5.2631578947368425
##MAXY=94.6875
##MINY=0.0
##XFACTOR=1
##YFACTOR=1
##NPOINTS=685
##FIRSTY=0.0
##XYDATA=(X++(Y..Y))
4000+0+81875000000+81875000000+81875000000+81562500000+81562500000
3968+81250000000+81250000000+80937500000+80625000000+80625000000+80312500000
3937+80312500000+80312500000+80000000000+80000000000+79687500000+79687500000
3905+79687500000+79687500000+79687500000+79687500000+79375000000+79375000000
3874+79375000000+79375000000+79062500000+79062500000+79062500000+79062500000
3842+79062500000+79062500000+79062500000+78750000000+78750000000+78750000000
3811+78750000000+78750000000+78750000000+78437500000+78437500000+78437500000
3779+78125000000+78125000000+78125000000+78125000000+78125000000+78125000000
3747+77812500000+77812500000+77500000000+77500000000+77187500000+77187500000
3716+76875000000+76875000000+76562500000+76250000000+76250000000+75937500000
3684+75625000000+75000000000+74687500000+74062500000+73750000000+72812500000
3653+72187500000+71562500000+70937500000+70000000000+69375000000+68750000000
3621+67812500000+66875000000+65937500000+65000000000+63750000000+62500000000
3589+61250000000+60312500000+59062500000+57812500000+56250000000+54375000000
3558+51250000000+47812500000+44687500000+43437499999+43437499999+45625000000
3526+49062500000+53125000000+55000000000+56250000000+56562500000+56250000000
3495+56250000000+55937500000+55625000000+55312500000+55312500000+55000000000
3463+54687500000+54062500000+53437500000+52812500000+52187500000+51562500000
3432+50625000000+49687499999+49375000000+49375000000+49687499999+50625000000
3400+51875000000+53437500000+54687500000+56250000000+57500000000+58437500000
3368+59062500000+59687500000+60312500000+60625000000+60937500000+60937500000
3337+60937500000+60625000000+60000000000+59062500000+57500000000+55625000000
3305+50937500000+44999999999+39687500000+30312500000+18750000000+12187500000
3274+10000000000+10312500000+8125000000+5312500000+4687500000+5000000000
3242+7812500000+10937500000+13750000000+16875000000+18750000000+15937500000
3211+14687500000+12500000000+12812500000+20312500000+33750000000+44062500000
3179+50312500000+54062500000+56875000000+58437500000+60000000000+61250000000
3147+62500000000+63750000000+64687500000+65625000000+65625000000+65312500000
3116+65000000000+65000000000+65000000000+65312500000+65625000000+65625000000
3084+65000000000+64687500000+64375000000+64062500000+64062500000+64375000000
3053+64687500000+65312500000+65625000000+65937500000+65937500000+65937500000
3021+66250000000+66562500000+67187500000+67812500000+68437500000+69062500000
2989+69375000000+69687500000+70312500000+70625000000+71562500000+72187500000
2958+73125000000+73750000000+74687500000+75312500000+76250000000+77187500000
2926+77812500000+78437500000+78750000000+79062500000+79687500000+80000000000
2895+80625000000+80937500000+81250000000+81250000000+81562500000+81562500000
2863+81875000000+82187500000+82500000000+82812500000+83125000000+83437500000
2832+83750000000+84062500000+84375000000+84687500000+84687500000+85000000000
2800+85312500000+85625000000+85625000000+85937500000+85937500000+86250000000
2768+86250000000+86562500000+86562500000+86875000000+86875000000+86875000000
2737+87187500000+87187500000+87500000000+87500000000+87812500000+87812500000
2705+88125000000+88125000000+88125000000+88125000000+88125000000+88125000000
2674+88125000000+88125000000+88437500000+88437500000+88437500000+88437500000
2642+88437500000+88437500000+88437500000+88750000000+88750000000+89062500000
2611+89062500000+89062500000+89062500000+89062500000+89062500000+89062500000
2579+89062500000+89062500000+89375000000+89375000000+89375000000+89375000000
2547+89375000000+89375000000+89375000000+89375000000+89375000000+89375000000
2516+89375000000+89375000000+89375000000+89375000000+89062500000+89062500000
2484+89062500000+89062500000+89062500000+89062500000+89062500000+89062500000
2453+88750000000+88750000000+88750000000+88750000000+88750000000+88750000000
2421+88750000000+88750000000+88437500000+88437500000+88125000000+88125000000
2389+87812500000+87812500000+87500000000+87500000000+87187500000+86875000000
2358+86250000000+85937500000+85625000000+85312500000+85000000000+84687500000
2326+84687500000+84687500000+84687500000+84687500000+84687500000+85000000000
2295+85000000000+84687500000+84687500000+84062500000+83750000000+82812500000
2263+81875000000+80625000000+79687500000+78125000000+76875000000+74687500000
2232+71250000000+66562500000+60625000000+54375000000+50937500000+49062500000
2200+49062500000+50937500000+55000000000+59375000000+64062500000+68125000000
2168+71250000000+73750000000+76250000000+78437500000+80000000000+80937500000
2137+82187500000+83125000000+84062500000+84687500000+85625000000+85937500000
2105+86250000000+86562500000+86562500000+86875000000+86875000000+86875000000
2074+87187500000+87187500000+87500000000+87812500000+88125000000+88125000000
2042+88437500000+88437500000+88750000000+89062500000+89062500000+89062500000
2011+89375000000+89375000000+89375000000+89375000000+89375000000+89062500000
1979+89062500000+89062500000+88750000000+88437500000+88125000000+87500000000
1947+86875000000+86250000000+85625000000+85312500000+85000000000+84687500000
1916+84062500000+82500000000+80000000000+77187500000+73750000000+69687500000
1884+61875000000+50625000000+39062500000+35312500000+35000000000+36562500000
1853+39062500000+44687500000+50312500000+55937500000+60625000000+66875000000
1821+73437500000+75937500000+74375000000+74062500000+75000000000+78437500000
1789+80625000000+81562500000+81250000000+80312500000+76875000000+68437500000
1758+60000000000+52187500000+50312500000+52812500000+64062500000+67187500000
1726+70312500000+75625000000+78125000000+78750000000+79375000000+79687500000
1695+80000000000+80937500000+81250000000+81562500000+80937500000+79375000000
1663+76875000000+72187500000+69375000000+69062500000+69062500000+69062500000
1632+69062500000+70000000000+71250000000+72812500000+74375000000+75625000000
1600+76250000000+76250000000+75625000000+74687500000+71250000000+67187500000
1568+67187500000+69375000000+73437500000+74687500000+74062500000+74062500000
1537+74687500000+76875000000+78437500000+77187500000+74062500000+70937500000
1505+69062500000+66875000000+64375000000+64062500000+65312500000+69687500000
1474+73437500000+76562500000+77187500000+76875000000+75937500000+75312500000
1442+72500000000+69375000000+64687500000+58750000000+55625000000+52500000000
1411+52500000000+56875000000+65312500000+71875000000+75937500000+78750000000
1379+80937500000+81875000000+83437500000+84687500000+85625000000+85937500000
1347+86250000000+85937500000+85312500000+84687500000+83750000000+81875000000
1316+80000000000+75625000000+64687500000+46875000000+40312499999+40937500000
1284+58750000000+71875000000+77500000000+79375000000+81875000000+84375000000
1253+85937500000+86562500000+86875000000+87500000000+88125000000+88437500000
1221+89062500000+89375000000+89062500000+88125000000+86562500000+84062500000
1189+84375000000+85000000000+85625000000+85937500000+85312500000+82812500000
1158+79375000000+78437500000+73750000000+72500000000+78125000000+82812500000
1126+81250000000+79062500000+78750000000+79062500000+80937500000+82812500000
1095+84375000000+83750000000+78125000000+74062500000+70000000000+70000000000
1063+74375000000+79687500000+83125000000+84687500000+85937500000+86250000000
1032+86875000000+87187500000+87500000000+87812500000+88125000000+88437500000
1000+88437500000+88125000000+87500000000+86875000000+86250000000+85625000000
968+84687500000+83750000000+82187500000+79375000000+74687500000+72500000000
937+72187500000+73125000000+75000000000+77187500000+79375000000+80312500000
905+79375000000+78125000000+75000000000+76250000000+79687500000+77187500000
874+75312500000+74375000000+74375000000+74687500000+75000000000+75625000000
842+76250000000+77187500000+80000000000+83437500000+84687500000+85625000000
811+85625000000+85312500000+84375000000+83437500000+81562500000+79687500000
779+79375000000+79375000000+80000000000+80937500000+81562500000+82812500000
747+85937500000+86875000000+87187500000+87187500000+86875000000+86562500000
716+86250000000+85625000000+81875000000+73750000000+66875000000+65937500000
684+71250000000+80312500000+84687500000+86875000000+88125000000+89062500000
653+89062500000+89687500000+89687500000+90000000000+89687500000+88750000000
621+80937500000+76250000000+78437500000+88125000000+91875000000+93437500000
589+94375000000+94687500000+94687500000+94375000000+93750000000+93125000000
558+92187500000+91562500000+90937500000+90937500000+90625000000+90937500000
526+90937500000+91250000000+91562500000+91562500000+91562500000+91562500000
495+91562500000+91875000000+92187500000+92812500000+93125000000+92187500000
463+91562500000+90000000000+88750000000+87812500000+87187500000+86562500000
432+85000000000+82187500000+79687500000+76250000000+73125000000+71250000000
400+70312500000
##END=
