##TITLE=2,3-epoxy-1,1,4,12-tetramethylperhydro-7,8a-ethanobenz(f)azulene-4,8,10,10a,12-pentol
##JCAMP-DX=4.24
##DATA TYPE=INFRARED SPECTRUM
##DATE=10/06/2025
##SAMPLING PROCEDURE=ATR
##ORIGIN=SDBS
##XUNITS=1/CM
##YUNITS=TRANSMITTANCE
##RESOLUTION=5.2631578947368425
##FIRSTX=4000.0
##LASTX=400.0
##DELTAX=-5.2631578947368425
##MAXY=95.0
##MINY=0.0
##XFACTOR=1
##YFACTOR=1
##NPOINTS=685
##FIRSTY=0.0
##XYDATA=(X++(Y..Y))
4000+0+87812500000+87812500000+87500000000+87500000000+87187500000
3968+86562500000+86562500000+86562500000+86250000000+86250000000+85937500000
3937+85625000000+85312500000+84687500000+84375000000+84375000000+84062500000
3905+83750000000+83437500000+83125000000+82500000000+82500000000+82187500000
3874+82187500000+81875000000+81875000000+81562500000+81250000000+80625000000
3842+80312500000+80000000000+80000000000+80000000000+80000000000+79687500000
3811+79375000000+79062500000+78750000000+78437500000+78125000000+77812500000
3779+77187500000+76250000000+75625000000+74687500000+73750000000+71562500000
3747+69062500000+66250000000+63437500000+60937500000+57500000000+52500000000
3716+47187500000+30000000000+23125000000+36250000000+31562500000+28125000000
3684+24062500000+20312500000+15937500000+11875000000+10625000000+10312500000
3653+8437500000+7187500000+6875000000+6875000000+6875000000+6875000000
3621+5625000000+4687500000+4375000000+4687500000+5312500000+6250000000
3589+7187500000+7812500000+8437500000+9062500000+9687500000+10625000000
3558+11250000000+11875000000+12812500000+13437500000+14375000000+15000000000
3526+15937500000+16562500000+16875000000+17812500000+19062500000+20312500000
3495+21250000000+22187500000+23125000000+24062500000+24687500000+25937500000
3463+26875000000+28125000000+29687500000+31875000000+34062500000+36562500000
3432+39062500000+42187500000+44999999999+47500000000+50000000000+52500000000
3400+55000000000+57812500000+60000000000+62500000000+64375000000+66875000000
3368+68750000000+70625000000+71875000000+72500000000+67812500000+67500000000
3337+69687500000+69687500000+71250000000+68125000000+53125000000+51562500000
3305+41562500000+30625000000+31250000000+20000000000+17187500000+13125000000
3274+17500000000+17812500000+15312500000+16875000000+21875000000+21562500000
3242+22812500000+26250000000+30937500000+35000000000+39375000000+40312499999
3211+49687499999+60312500000+67187500000+71250000000+73750000000+75000000000
3179+76562500000+77500000000+79062500000+80000000000+80312500000+80937500000
3147+81250000000+81562500000+81875000000+81875000000+81875000000+81875000000
3116+81875000000+81875000000+82187500000+82500000000+83125000000+83125000000
3084+83437500000+83437500000+83437500000+83437500000+84062500000+84375000000
3053+85000000000+85625000000+85937500000+85937500000+86250000000+86250000000
3021+86562500000+86875000000+86875000000+87187500000+87187500000+87187500000
2989+87500000000+87500000000+87812500000+88125000000+87812500000+87812500000
2958+87812500000+87812500000+88125000000+88437500000+88437500000+88750000000
2926+88750000000+89062500000+89375000000+89375000000+89375000000+89375000000
2895+89375000000+89375000000+89687500000+90000000000+90000000000+90312500000
2863+90312500000+90312500000+90312500000+90312500000+90312500000+90312500000
2832+90312500000+90312500000+90312500000+90312500000+90625000000+90937500000
2800+90937500000+91250000000+91250000000+91250000000+90937500000+90937500000
2768+90937500000+91250000000+91562500000+91562500000+91562500000+91562500000
2737+91562500000+91562500000+91562500000+91562500000+91562500000+91562500000
2705+91562500000+91562500000+91562500000+91562500000+91562500000+91250000000
2674+91250000000+91250000000+90937500000+90937500000+90937500000+91250000000
2642+91562500000+91875000000+91875000000+91875000000+91875000000+92187500000
2611+92187500000+92500000000+92500000000+92500000000+92500000000+92500000000
2579+92500000000+92500000000+92500000000+92500000000+92500000000+92500000000
2547+92500000000+92500000000+92812500000+92812500000+92812500000+93125000000
2516+93125000000+93125000000+93437500000+93437500000+93437500000+93437500000
2484+93437500000+93750000000+93750000000+93750000000+94062500000+94062500000
2453+94062500000+94375000000+94375000000+94375000000+94375000000+94375000000
2421+94375000000+94375000000+94375000000+94375000000+94375000000+94687500000
2389+94687500000+94687500000+94687500000+95000000000+94687500000+94687500000
2358+94687500000+94687500000+94375000000+94375000000+94062500000+94062500000
2326+94062500000+94062500000+94062500000+94062500000+94062500000+94062500000
2295+94062500000+93750000000+93437500000+93125000000+92812500000+92187500000
2263+91562500000+90937500000+90312500000+89375000000+88437500000+88125000000
2232+87812500000+87812500000+87812500000+87812500000+88125000000+88437500000
2200+88750000000+89062500000+89062500000+89375000000+89375000000+89062500000
2168+88437500000+87812500000+87187500000+85937500000+84375000000+82812500000
2137+81250000000+80000000000+78437500000+77500000000+76562500000+76562500000
2105+76562500000+76562500000+76875000000+76875000000+77812500000+78750000000
2074+80625000000+82500000000+84062500000+85000000000+85937500000+87500000000
2042+88437500000+89062500000+89687500000+90312500000+90937500000+90937500000
2011+91250000000+91250000000+90937500000+90937500000+90937500000+90625000000
1979+90625000000+90312500000+90000000000+89375000000+89062500000+88437500000
1947+88125000000+87187500000+86250000000+84687500000+83437500000+80937500000
1916+76875000000+65937500000+62812500000+62187500000+55312500000+45312500000
1884+38125000000+36562500000+36562500000+37812500000+37812500000+35000000000
1853+33750000000+31562500000+31562500000+34375000000+40312499999+40000000000
1821+40937500000+41250000000+35000000000+29062500000+29062500000+33750000000
1789+35937500000+35625000000+33437500000+32500000000+32500000000+35000000000
1758+31250000000+25937500000+17187500000+17187500000+26562500000+35312500000
1726+36875000000+48124999999+53750000000+51875000000+50000000000+50000000000
1695+49375000000+45937500000+45312500000+42812500000+40000000000+39687500000
1663+40312499999+44999999999+49687499999+50312500000+48437500000+47812500000
1632+47812500000+47812500000+50625000000+56250000000+55625000000+52187500000
1600+46875000000+45625000000+47187500000+50937500000+51562500000+51250000000
1568+50937500000+53750000000+52187500000+46562499999+41250000000+41250000000
1537+44375000000+48124999999+48124999999+52187500000+52812500000+50000000000
1505+49375000000+46562499999+42812500000+35625000000+32187500000+32187500000
1474+39375000000+48437500000+50625000000+44375000000+40000000000+36562500000
1442+35937500000+36875000000+36562500000+30312500000+28125000000+28750000000
1411+34687500000+37500000000+37812500000+37500000000+37812500000+37812500000
1379+38437500000+41874999999+42187500000+35312500000+31250000000+21562500000
1347+11875000000+11250000000+14687500000+27187500000+40937500000+41562500000
1316+42187500000+39687500000+23125000000+19375000000+19375000000+20312500000
1284+17812500000+17812500000+23750000000+32812500000+36875000000+43125000000
1253+47187500000+59687500000+64687500000+62812500000+52500000000+43437499999
1221+42812500000+48750000000+49375000000+33125000000+33437500000+47500000000
1189+55625000000+61250000000+63125000000+65000000000+57500000000+57500000000
1158+57500000000+59375000000+54687500000+54062500000+49062500000+55000000000
1126+68437500000+67187500000+58125000000+51562500000+40000000000+35625000000
1095+35625000000+26250000000+20625000000+24375000000+47187500000+41250000000
1063+41250000000+34687500000+35000000000+37812500000+51875000000+46875000000
1032+25312500000+25625000000+42812500000+55000000000+61875000000+65625000000
1000+68750000000+68750000000+73437500000+79062500000+83750000000+78125000000
968+76562500000+79687500000+73437500000+67500000000+70625000000+82187500000
937+85625000000+87500000000+86562500000+83750000000+75000000000+63125000000
905+48750000000+49375000000+58125000000+66250000000+75312500000+80625000000
874+81875000000+81250000000+79375000000+77187500000+68125000000+62812500000
842+62500000000+65000000000+71875000000+70937500000+60000000000+51875000000
811+54062500000+66250000000+66875000000+64687500000+64062500000+65937500000
779+70312500000+69062500000+67500000000+66250000000+64687500000+62187500000
747+59687500000+56875000000+53437500000+44687500000+42187500000+46250000000
716+53437500000+53750000000+52812500000+51562500000+50312500000+49687499999
684+49062500000+48124999999+45625000000+44062500000+42187500000+41250000000
653+39687500000+38749999999+38125000000+37812500000+37500000000+37500000000
621+37500000000+37812500000+38125000000+38749999999+39375000000+41250000000
589+43437499999+45937500000+47812500000+48437500000+48124999999+47812500000
558+47187500000+46562499999+42812500000+37812500000+40000000000+45312500000
526+45937500000+46562499999+46875000000+47812500000+48750000000+49687499999
495+51562500000+53750000000+56250000000+58125000000+60000000000+61562500000
463+62500000000+63125000000+63125000000+62187500000+61250000000+60000000000
432+59687500000+59687500000+60000000000+60625000000+62187500000+63750000000
400+64687500000
##END=
