##TITLE=2,3-xylidine
##JCAMP-DX=4.24
##DATA TYPE=INFRARED SPECTRUM
##DATE=10/06/2025
##SAMPLING PROCEDURE=ATR
##ORIGIN=SDBS
##XUNITS=1/CM
##YUNITS=TRANSMITTANCE
##RESOLUTION=5.2631578947368425
##FIRSTX=4000.0
##LASTX=400.0
##DELTAX=-5.2631578947368425
##MAXY=94.375
##MINY=0.0
##XFACTOR=1
##YFACTOR=1
##NPOINTS=685
##FIRSTY=0.0
##XYDATA=(X++(Y..Y))
4000+0+87812500000+87500000000+87500000000+87500000000+87187500000
3968+87187500000+87187500000+87187500000+87187500000+87187500000+86875000000
3937+86562500000+86250000000+86250000000+86250000000+86562500000+86562500000
3905+86875000000+86875000000+86562500000+86250000000+86250000000+86250000000
3874+86250000000+86875000000+87500000000+87812500000+88125000000+87812500000
3842+87812500000+87500000000+87500000000+87500000000+87187500000+87187500000
3811+86875000000+86875000000+86562500000+86562500000+86250000000+86250000000
3779+85625000000+85000000000+84687500000+84375000000+83750000000+83125000000
3747+82500000000+82187500000+81875000000+81875000000+81562500000+81562500000
3716+81250000000+80937500000+80625000000+80625000000+80000000000+79375000000
3684+78437500000+77187500000+75625000000+73437500000+70312500000+65937500000
3653+58750000000+50000000000+38125000000+29062500000+25000000000+23750000000
3621+23125000000+23125000000+23437500000+24375000000+25937500000+28437500000
3589+30625000000+26562500000+19687500000+14375000000+12187500000+11875000000
3558+11875000000+12500000000+13750000000+16250000000+20000000000+25625000000
3526+30625000000+36250000000+40312499999+44999999999+48124999999+50312500000
3495+51250000000+49375000000+46562499999+43437499999+40312499999+39062500000
3463+39062500000+40000000000+42187500000+44999999999+49062500000+54375000000
3432+59062500000+63125000000+66250000000+68750000000+70312500000+71562500000
3400+72500000000+72812500000+72500000000+71875000000+70937500000+68125000000
3368+60625000000+50000000000+41874999999+41562500000+42812500000+36875000000
3337+30000000000+29375000000+25000000000+23125000000+26562500000+34375000000
3305+35000000000+35625000000+30937500000+27187500000+24687500000+24687500000
3274+24375000000+19687500000+19375000000+18750000000+17500000000+17500000000
3242+19375000000+21250000000+25625000000+29375000000+31875000000+28125000000
3211+22812500000+22500000000+30312500000+50312500000+63750000000+69375000000
3179+72500000000+74687500000+77812500000+79687500000+80625000000+81250000000
3147+81250000000+80625000000+80312500000+79062500000+75000000000+70000000000
3116+70625000000+80000000000+84687500000+86250000000+87187500000+87187500000
3084+87187500000+87187500000+87187500000+87187500000+87187500000+87187500000
3053+86875000000+85312500000+82187500000+80937500000+81250000000+84375000000
3021+86250000000+86875000000+87812500000+88437500000+89375000000+90000000000
2989+90312500000+90312500000+90000000000+90000000000+89687500000+89375000000
2958+89375000000+89062500000+89062500000+88750000000+89062500000+89062500000
2926+89687500000+90000000000+89687500000+88750000000+88437500000+88437500000
2895+88437500000+88750000000+88750000000+88750000000+88750000000+89062500000
2863+89062500000+89062500000+89375000000+89375000000+89687500000+90000000000
2832+90312500000+90312500000+90312500000+90312500000+90625000000+90312500000
2800+90000000000+89687500000+89687500000+89687500000+90312500000+90937500000
2768+91250000000+91562500000+91250000000+90312500000+89062500000+88750000000
2737+89062500000+89062500000+89375000000+89687500000+90000000000+90312500000
2705+90625000000+90625000000+90625000000+90625000000+90312500000+90312500000
2674+90312500000+90312500000+90312500000+90625000000+90937500000+91250000000
2642+91562500000+91562500000+91562500000+91562500000+91875000000+92187500000
2611+92187500000+92187500000+92187500000+92187500000+91875000000+91562500000
2579+91250000000+90937500000+90312500000+89687500000+89062500000+88750000000
2547+88750000000+88750000000+89062500000+89062500000+89062500000+88750000000
2516+88125000000+86875000000+85625000000+83750000000+81875000000+80000000000
2484+79062500000+78750000000+78750000000+80000000000+82187500000+84687500000
2453+86562500000+88437500000+89687500000+90625000000+91562500000+92187500000
2421+92812500000+93125000000+93437500000+93125000000+92812500000+92187500000
2389+91250000000+89687500000+88437500000+87187500000+86250000000+85625000000
2358+85625000000+85937500000+86875000000+88125000000+89687500000+90625000000
2326+91250000000+91875000000+91875000000+92187500000+92187500000+92187500000
2295+91875000000+91562500000+90937500000+90000000000+89375000000+88437500000
2263+87500000000+86250000000+85312500000+84375000000+83437500000+83125000000
2232+82812500000+82500000000+82500000000+82500000000+82500000000+82500000000
2200+82812500000+82187500000+80625000000+79062500000+77500000000+75937500000
2168+74375000000+70937500000+67187500000+62500000000+57500000000+51875000000
2137+45312500000+38437500000+31562500000+23750000000+17187500000+12812500000
2105+10312500000+7812500000+6250000000+5625000000+5625000000+6250000000
2074+8437500000+11562500000+13750000000+10625000000+8437500000+7812500000
2042+7812500000+8437500000+10625000000+15312500000+22500000000+28125000000
2011+32500000000+36875000000+45312500000+52812500000+58750000000+61562500000
1979+63125000000+63437500000+63750000000+64375000000+64062500000+62500000000
1947+59375000000+56875000000+55000000000+54375000000+53750000000+49687499999
1916+43750000000+32187500000+17812500000+6562500000+5625000000+5312500000
1884+4375000000+4687500000+6562500000+11562500000+17812500000+22812500000
1853+25937500000+27187500000+26562500000+26562500000+27812500000+35312500000
1821+45937500000+55312500000+62500000000+68437500000+73437500000+76875000000
1789+78750000000+80000000000+79062500000+76562500000+68437500000+54062500000
1758+46875000000+47500000000+57500000000+65000000000+75312500000+81562500000
1726+84062500000+85625000000+86875000000+87500000000+86875000000+85000000000
1695+82812500000+81250000000+79687500000+77500000000+72500000000+64062500000
1663+47500000000+29687500000+20312500000+17187500000+13125000000+10312500000
1632+10312500000+11875000000+15625000000+25312500000+40000000000+51562500000
1600+58437500000+64687500000+63437500000+61562500000+65000000000+78125000000
1568+84687500000+87500000000+89375000000+90937500000+92187500000+93437500000
1537+94062500000+94375000000+94375000000+94375000000+93750000000+90625000000
1505+81875000000+80937500000+86250000000+92500000000+93437500000+92812500000
1474+92500000000+89062500000+75625000000+59687500000+59062500000+73125000000
1442+88125000000+93125000000+94375000000+94375000000+92187500000+86250000000
1411+79062500000+70625000000+64687500000+62187500000+62187500000+65312500000
1379+70625000000+74687500000+65937500000+40625000000+17500000000+16250000000
1347+26250000000+51562500000+67812500000+76250000000+81250000000+83437500000
1316+84062500000+82187500000+78125000000+73125000000+69687500000+68750000000
1284+68750000000+70312500000+75000000000+80000000000+80937500000+74062500000
1253+67500000000+67500000000+71562500000+80625000000+84687500000+79687500000
1221+68125000000+55937500000+55937500000+62187500000+76250000000+85312500000
1189+88750000000+90312500000+89687500000+88437500000+87187500000+86875000000
1158+87187500000+88750000000+90625000000+92812500000+93437500000+94062500000
1126+94062500000+93437500000+92812500000+91562500000+90000000000+87500000000
1095+82812500000+76875000000+75625000000+76562500000+80625000000+80937500000
1063+78125000000+73750000000+69375000000+67812500000+67812500000+69062500000
1032+73437500000+77187500000+78125000000+76562500000+74062500000+71562500000
1000+68750000000+65625000000+62187500000+59062500000+57812500000+58125000000
968+60312500000+57812500000+52812500000+47812500000+42187500000+36250000000
937+28750000000+20625000000+13437500000+9375000000+6875000000+6562500000
905+6875000000+11250000000+22500000000+35625000000+44375000000+49062500000
874+50625000000+51250000000+50937500000+50625000000+50000000000+49062500000
842+46250000000+35625000000+20312500000+18437500000+20312500000+27187500000
811+31250000000+33750000000+35000000000+35937500000+36562500000+37187499999
779+38749999999+41562500000+46562499999+35312500000+33125000000+33125000000
747+33437500000+34062500000+34687500000+35312500000+36250000000+37187499999
716+38125000000+38749999999+39375000000+40000000000+40937500000+41874999999
684+42812500000+44062500000+45312500000+46562499999+47812500000+49687499999
653+51875000000+55625000000+57812500000+61250000000+63437500000+61875000000
621+52812500000+42812500000+40000000000+40000000000+41250000000+43437499999
589+46562499999+49687499999+52500000000+55312500000+57812500000+60625000000
558+62812500000+65937500000+68125000000+69062500000+69375000000+69375000000
526+68750000000+68437500000+68125000000+68125000000+68437500000+69687500000
495+71875000000+74375000000+76875000000+79062500000+81250000000+82812500000
463+84062500000+85000000000+85937500000+86875000000+88125000000+89062500000
432+90000000000+89375000000+88125000000+85937500000+83750000000+82187500000
400+81562500000
##END=
