##TITLE=2,3-dibromopropionic acid
##JCAMP-DX=4.24
##DATA TYPE=INFRARED SPECTRUM
##DATE=10/06/2025
##SAMPLING PROCEDURE=ATR
##ORIGIN=SDBS
##XUNITS=1/CM
##YUNITS=TRANSMITTANCE
##RESOLUTION=5.2631578947368425
##FIRSTX=4000.0
##LASTX=400.0
##DELTAX=-5.2631578947368425
##MAXY=94.6875
##MINY=0.0
##XFACTOR=1
##YFACTOR=1
##NPOINTS=685
##FIRSTY=0.0
##XYDATA=(X++(Y..Y))
4000+0+77500000000+77500000000+77500000000+77812500000+78125000000
3968+77812500000+77812500000+77812500000+78125000000+77812500000+77500000000
3937+77500000000+77187500000+77187500000+76875000000+76875000000+76875000000
3905+77187500000+77187500000+77187500000+77187500000+77500000000+77500000000
3874+77500000000+77500000000+77187500000+77187500000+77187500000+77500000000
3842+77187500000+77187500000+77187500000+77500000000+77500000000+77187500000
3811+77187500000+77187500000+76875000000+76875000000+76875000000+76875000000
3779+76875000000+76875000000+77187500000+77187500000+77187500000+76875000000
3747+76875000000+76875000000+76875000000+76875000000+77187500000+77500000000
3716+77500000000+77500000000+77500000000+77500000000+77500000000+77500000000
3684+77500000000+77500000000+77812500000+77812500000+77812500000+77500000000
3653+77187500000+77187500000+76875000000+76875000000+77187500000+77187500000
3621+76875000000+76875000000+76875000000+76875000000+76562500000+76250000000
3589+75625000000+75312500000+75000000000+74687500000+74375000000+73750000000
3558+73437500000+73437500000+73437500000+73125000000+72812500000+72187500000
3526+71875000000+71250000000+70312500000+69375000000+68437500000+67500000000
3495+66562500000+65312500000+64062500000+63125000000+62187500000+60937500000
3463+59687500000+58750000000+57187500000+55937500000+54687500000+53437500000
3432+52187500000+50937500000+49687499999+48750000000+47500000000+46562499999
3400+44999999999+44062500000+42812500000+41874999999+41562500000+41250000000
3368+40937500000+40625000000+40000000000+39687500000+37500000000+34375000000
3337+30000000000+32812500000+33125000000+32812500000+32500000000+31250000000
3305+25625000000+23750000000+18750000000+14062500000+9375000000+7187500000
3274+7187500000+7500000000+6250000000+5000000000+4687500000+5000000000
3242+6562500000+8437500000+10000000000+11875000000+12812500000+11250000000
3211+10000000000+8750000000+9062500000+14687500000+25000000000+32812500000
3179+38125000000+41874999999+44062500000+45937500000+47500000000+49062500000
3147+49375000000+46562499999+43750000000+43750000000+45937500000+47500000000
3116+48750000000+50000000000+51250000000+52187500000+52812500000+52500000000
3084+51250000000+47812500000+44687500000+44375000000+44999999999+45625000000
3053+46875000000+50312500000+52812500000+54062500000+55625000000+55000000000
3021+51875000000+48437500000+48437500000+50937500000+52500000000+52500000000
2989+53125000000+56875000000+59062500000+60937500000+61875000000+61250000000
2958+60937500000+61250000000+62187500000+63750000000+64375000000+65000000000
2926+66250000000+67500000000+68437500000+69375000000+70000000000+70312500000
2895+70312500000+70937500000+71562500000+72187500000+73125000000+73750000000
2863+74062500000+74687500000+75000000000+75625000000+75937500000+76562500000
2832+76875000000+77187500000+76875000000+76875000000+76875000000+77187500000
2800+78125000000+78750000000+79375000000+79687500000+80000000000+80625000000
2768+80937500000+81250000000+81250000000+81562500000+81562500000+81250000000
2737+81250000000+81250000000+81250000000+81562500000+81875000000+82812500000
2705+83437500000+83750000000+84062500000+84375000000+84687500000+84375000000
2674+84062500000+84062500000+84062500000+84375000000+85000000000+85625000000
2642+85625000000+85937500000+85937500000+85937500000+85625000000+85312500000
2611+85312500000+85312500000+85312500000+85312500000+85312500000+85312500000
2579+85625000000+85625000000+85937500000+86250000000+86562500000+86875000000
2547+86875000000+87187500000+87187500000+87500000000+87500000000+87812500000
2516+87812500000+87812500000+87812500000+87812500000+87500000000+87500000000
2484+87500000000+87812500000+87812500000+87812500000+88125000000+88437500000
2453+88437500000+88750000000+89062500000+89062500000+89062500000+89062500000
2421+89062500000+88750000000+88750000000+88750000000+88750000000+88750000000
2389+89062500000+89062500000+89062500000+89062500000+88750000000+88125000000
2358+87500000000+86875000000+86250000000+85625000000+85312500000+85000000000
2326+84375000000+83437500000+82187500000+80937500000+78750000000+77500000000
2295+75937500000+74375000000+74062500000+72500000000+69687500000+66562500000
2263+61875000000+54687500000+47500000000+37812500000+27812500000+20000000000
2232+16875000000+14062500000+12187500000+12187500000+13437500000+17187500000
2200+23125000000+29687500000+37187499999+41874999999+47187500000+51250000000
2168+55000000000+57187500000+60312500000+62500000000+64062500000+65312500000
2137+66875000000+68437500000+69687500000+70312500000+70937500000+72187500000
2105+73750000000+74687500000+76250000000+77500000000+78437500000+79062500000
2074+79375000000+80000000000+80625000000+80937500000+81562500000+81875000000
2042+81875000000+81875000000+81875000000+82187500000+82812500000+83125000000
2011+83437500000+83750000000+84062500000+84375000000+84375000000+84687500000
1979+85000000000+85312500000+85625000000+85937500000+86250000000+86562500000
1947+86562500000+86250000000+85625000000+84687500000+84375000000+84062500000
1916+83437500000+81875000000+78437500000+76250000000+72812500000+66562500000
1884+57187500000+44375000000+34062500000+32812500000+32812500000+33125000000
1853+34687500000+38125000000+40000000000+39062500000+29375000000+23125000000
1821+23125000000+27500000000+29062500000+36875000000+51250000000+58437500000
1789+64062500000+69687500000+72187500000+73750000000+71250000000+63125000000
1758+57187500000+49687499999+48124999999+52500000000+62500000000+63437500000
1726+66875000000+71875000000+70312500000+67812500000+62187500000+52187500000
1695+44375000000+44062500000+47812500000+60000000000+67500000000+71875000000
1663+76875000000+79062500000+77187500000+73437500000+69375000000+69062500000
1632+69687500000+72187500000+72500000000+70937500000+68437500000+63125000000
1600+55625000000+45312500000+34687500000+29375000000+27187500000+27187500000
1568+30312500000+37812500000+47500000000+55625000000+61250000000+65000000000
1537+64062500000+48750000000+37812500000+41562500000+57500000000+68437500000
1505+73750000000+77187500000+78437500000+80000000000+81562500000+82500000000
1474+82812500000+81562500000+76875000000+72500000000+74687500000+63750000000
1442+38749999999+38749999999+54062500000+68437500000+67500000000+68437500000
1411+71875000000+77812500000+80937500000+82500000000+84375000000+85312500000
1379+86562500000+87500000000+88125000000+88750000000+89062500000+88750000000
1347+88125000000+87500000000+87187500000+86875000000+87187500000+87187500000
1316+88125000000+88437500000+89062500000+89687500000+90312500000+90312500000
1284+90625000000+90937500000+90937500000+90937500000+90937500000+90937500000
1253+90937500000+90625000000+90625000000+90625000000+90625000000+90312500000
1221+90000000000+89062500000+88437500000+87187500000+85937500000+84687500000
1189+83750000000+82187500000+80000000000+78125000000+75000000000+61875000000
1158+50625000000+51250000000+66562500000+68750000000+66875000000+63125000000
1126+59062500000+54375000000+50000000000+46250000000+43750000000+42812500000
1095+42812500000+44375000000+46562499999+49062500000+53125000000+58125000000
1063+61562500000+63437500000+65937500000+68437500000+71562500000+73750000000
1032+75625000000+77187500000+78125000000+79062500000+80000000000+80000000000
1000+75625000000+69062500000+61875000000+61875000000+69375000000+75625000000
968+81562500000+84375000000+85312500000+86562500000+88125000000+81250000000
937+65000000000+67500000000+78125000000+83125000000+84687500000+85625000000
905+86562500000+87500000000+88125000000+88437500000+88750000000+88750000000
874+88437500000+87812500000+86875000000+86250000000+85000000000+82500000000
842+81250000000+81250000000+84375000000+88437500000+90937500000+91562500000
811+92187500000+92812500000+93750000000+94375000000+94687500000+94062500000
779+92812500000+92187500000+85312500000+60312500000+44062500000+52812500000
747+73437500000+83437500000+83750000000+80937500000+69375000000+55312500000
716+54062500000+56875000000+64375000000+74062500000+77812500000+80937500000
684+82187500000+82500000000+83125000000+83750000000+84062500000+84062500000
653+83750000000+83437500000+82812500000+81875000000+80625000000+79062500000
621+75625000000+68750000000+65000000000+65000000000+67500000000+76250000000
589+84062500000+88125000000+90000000000+90312500000+86562500000+80312500000
558+72500000000+64375000000+60937500000+62187500000+73437500000+80312500000
526+85000000000+87812500000+88437500000+88437500000+87812500000+86875000000
495+86250000000+85937500000+85937500000+85937500000+86250000000+86562500000
463+86250000000+85937500000+85000000000+84062500000+83125000000+81562500000
432+79375000000+75937500000+73437500000+70000000000+66875000000+65000000000
400+64375000000
##END=
