##TITLE=2,5-dimethylpyridine
##JCAMP-DX=4.24
##DATA TYPE=INFRARED SPECTRUM
##DATE=10/06/2025
##SAMPLING PROCEDURE=ATR
##ORIGIN=SDBS
##XUNITS=1/CM
##YUNITS=TRANSMITTANCE
##RESOLUTION=5.2631578947368425
##FIRSTX=4000.0
##LASTX=400.0
##DELTAX=-5.2631578947368425
##MAXY=95.0
##MINY=0.0
##XFACTOR=1
##YFACTOR=1
##NPOINTS=685
##FIRSTY=0.0
##XYDATA=(X++(Y..Y))
4000+0+93750000000+93750000000+93750000000+93750000000+93437500000
3968+93437500000+93437500000+93437500000+93437500000+93750000000+93750000000
3937+94062500000+93750000000+93750000000+93750000000+93750000000+93750000000
3905+93750000000+93750000000+93750000000+93750000000+93750000000+93750000000
3874+93750000000+93750000000+94062500000+94062500000+94375000000+94375000000
3842+94375000000+94062500000+94062500000+94062500000+94375000000+94375000000
3811+94375000000+94375000000+94375000000+94062500000+93750000000+93125000000
3779+92812500000+92500000000+92187500000+92187500000+92500000000+92500000000
3747+92500000000+92187500000+91875000000+91562500000+90937500000+90625000000
3716+90000000000+89687500000+89062500000+88750000000+88437500000+88125000000
3684+87500000000+86875000000+86250000000+85625000000+85000000000+84375000000
3653+83437500000+82812500000+82187500000+81562500000+80937500000+80625000000
3621+80312500000+80000000000+79687500000+79375000000+78750000000+78437500000
3589+78125000000+78125000000+78125000000+78125000000+78437500000+78750000000
3558+79062500000+79375000000+79687500000+80000000000+80000000000+80312500000
3526+80312500000+80312500000+80000000000+80000000000+79687500000+79687500000
3495+79687500000+79687500000+79687500000+80000000000+80000000000+80000000000
3463+80000000000+80000000000+80000000000+80000000000+80625000000+80937500000
3432+81250000000+81875000000+82187500000+82812500000+83437500000+83750000000
3400+84062500000+84375000000+83750000000+82187500000+78125000000+74062500000
3368+74062500000+78437500000+76250000000+72187500000+71875000000+69687500000
3337+64062500000+59062500000+56562500000+55937500000+44999999999+34687500000
3305+34687500000+43125000000+49375000000+48437500000+44999999999+42500000000
3274+42812500000+44687500000+48437500000+36250000000+31875000000+33750000000
3242+49687499999+60000000000+63437500000+63437500000+61875000000+59375000000
3211+59375000000+61562500000+70000000000+76875000000+81250000000+83750000000
3179+86250000000+86875000000+88750000000+89375000000+90312500000+90937500000
3147+91562500000+92187500000+91875000000+90000000000+87187500000+87187500000
3116+88750000000+90000000000+91875000000+92812500000+93125000000+93437500000
3084+93750000000+93750000000+94062500000+94062500000+94062500000+94062500000
3053+93437500000+92500000000+92500000000+92187500000+92187500000+92187500000
3021+92812500000+93437500000+94062500000+94375000000+94375000000+94375000000
2989+94375000000+94062500000+94062500000+93750000000+93750000000+93750000000
2958+93750000000+93437500000+93125000000+93125000000+93125000000+93125000000
2926+93125000000+93125000000+93125000000+93125000000+93125000000+93125000000
2895+93125000000+93437500000+93437500000+93750000000+94062500000+94062500000
2863+94062500000+94062500000+94062500000+94062500000+94062500000+94062500000
2832+94062500000+94062500000+94062500000+94375000000+94062500000+93750000000
2800+93437500000+93437500000+93437500000+93750000000+94062500000+94062500000
2768+93750000000+93750000000+93750000000+94062500000+94062500000+94375000000
2737+94375000000+94375000000+94375000000+94375000000+94375000000+94375000000
2705+94687500000+94375000000+93750000000+93437500000+93437500000+93750000000
2674+94062500000+94687500000+94687500000+95000000000+95000000000+95000000000
2642+94687500000+94687500000+94375000000+94375000000+94375000000+94375000000
2611+94375000000+94375000000+94375000000+94375000000+94062500000+93750000000
2579+93750000000+93437500000+93125000000+93125000000+92812500000+92500000000
2547+92187500000+91562500000+90937500000+90937500000+90937500000+90937500000
2516+90937500000+91250000000+91250000000+91562500000+91875000000+92812500000
2484+93125000000+93437500000+93437500000+92812500000+92187500000+91875000000
2453+91562500000+91562500000+91562500000+91875000000+92187500000+92187500000
2421+92187500000+92500000000+92500000000+92500000000+92187500000+92187500000
2389+92187500000+92500000000+92500000000+92812500000+93437500000+93750000000
2358+94062500000+94375000000+94375000000+94375000000+94375000000+94062500000
2326+93750000000+93750000000+93437500000+93125000000+93125000000+93125000000
2295+93125000000+92812500000+92812500000+92812500000+92812500000+92500000000
2263+92500000000+92187500000+92187500000+92187500000+92187500000+92500000000
2232+92500000000+92500000000+92500000000+92812500000+92812500000+92812500000
2200+93125000000+92812500000+92500000000+92187500000+91562500000+90937500000
2168+89687500000+89687500000+89687500000+89375000000+89375000000+89062500000
2137+88750000000+88437500000+88125000000+87812500000+87187500000+86562500000
2105+85937500000+85312500000+84687500000+83437500000+82187500000+77187500000
2074+64687500000+42500000000+25625000000+25312500000+43750000000+64687500000
2042+73125000000+75937500000+69687500000+52500000000+34062500000+30312500000
2011+35312500000+52187500000+64687500000+70000000000+74062500000+76562500000
1979+77500000000+77812500000+77812500000+77500000000+76875000000+75937500000
1947+75000000000+73125000000+70937500000+67187500000+62500000000+51250000000
1916+31562500000+7187500000+4687500000+7500000000+18750000000+32187500000
1884+44375000000+49687499999+47812500000+44062500000+41562500000+40312499999
1853+40312499999+40312499999+41874999999+44687500000+47812500000+51562500000
1821+55937500000+59375000000+62500000000+65000000000+66875000000+67187500000
1789+67187500000+67187500000+66562500000+64375000000+58750000000+46250000000
1758+30937500000+27812500000+28750000000+44062500000+58437500000+69687500000
1726+75625000000+79375000000+81875000000+84062500000+85312500000+86250000000
1695+87187500000+87812500000+88125000000+88437500000+88750000000+88437500000
1663+87812500000+86562500000+83750000000+77812500000+65625000000+55312500000
1632+57500000000+72187500000+84375000000+88750000000+90000000000+90625000000
1600+90625000000+90312500000+90312500000+88750000000+84062500000+66875000000
1568+45937500000+51250000000+79062500000+83750000000+83750000000+87187500000
1537+88750000000+88750000000+86875000000+86875000000+87500000000+88125000000
1505+89062500000+91250000000+91875000000+91875000000+91875000000+91875000000
1474+91875000000+91562500000+91250000000+90937500000+90625000000+90625000000
1442+90000000000+88437500000+84687500000+75000000000+64062500000+63750000000
1411+64687500000+64687500000+71562500000+76250000000+80937500000+85625000000
1379+87500000000+88437500000+88750000000+89062500000+88750000000+88437500000
1347+87812500000+86562500000+84687500000+84062500000+83437500000+81875000000
1316+80000000000+77187500000+72500000000+66250000000+60000000000+55937500000
1284+52812500000+45312500000+31250000000+25312500000+39062500000+64375000000
1253+75000000000+79375000000+81250000000+83125000000+83750000000+84687500000
1221+85625000000+86562500000+87187500000+87812500000+87500000000+86250000000
1189+84375000000+83437500000+83437500000+84375000000+85937500000+87187500000
1158+88437500000+89375000000+90000000000+90312500000+90312500000+89687500000
1126+89062500000+88750000000+88750000000+89062500000+90312500000+91250000000
1095+92187500000+92812500000+93125000000+93125000000+93125000000+92812500000
1063+92500000000+90937500000+89687500000+91562500000+91562500000+91250000000
1032+90937500000+90625000000+89687500000+85312500000+79062500000+71875000000
1000+72812500000+67187500000+55000000000+41250000000+30000000000+25000000000
968+25000000000+32500000000+51562500000+70625000000+80312500000+85625000000
937+87500000000+88437500000+89687500000+90937500000+92187500000+93125000000
905+93437500000+93750000000+93750000000+93437500000+93125000000+92812500000
874+91875000000+90625000000+87187500000+75937500000+61562500000+37500000000
842+45312500000+76875000000+86562500000+89687500000+91250000000+92812500000
811+93750000000+94062500000+94375000000+94375000000+94375000000+94375000000
779+94375000000+94375000000+94375000000+94375000000+93437500000+92187500000
747+87187500000+77187500000+42500000000+58437500000+86875000000+91250000000
716+92812500000+92812500000+93125000000+92812500000+92812500000+92500000000
684+92500000000+92500000000+92500000000+92500000000+92500000000+92500000000
653+92500000000+92500000000+92500000000+92500000000+92500000000+92812500000
621+92812500000+93125000000+93437500000+93750000000+93750000000+94062500000
589+94062500000+93750000000+93750000000+93437500000+93125000000+92812500000
558+92500000000+91875000000+90937500000+90312500000+89062500000+86250000000
526+80937500000+68437500000+37187499999+32187500000+44999999999+65625000000
495+77812500000+84375000000+87187500000+89062500000+90625000000+92187500000
463+92500000000+91875000000+89687500000+85625000000+81250000000+75000000000
432+69062500000+64687500000+61875000000+60312500000+59375000000+59062500000
400+58437500000
##END=
