##TITLE=2,6-dimethyl-1-heptene
##JCAMP-DX=4.24
##DATA TYPE=INFRARED SPECTRUM
##DATE=10/06/2025
##SAMPLING PROCEDURE=ATR
##ORIGIN=SDBS
##XUNITS=1/CM
##YUNITS=TRANSMITTANCE
##RESOLUTION=5.2631578947368425
##FIRSTX=4000.0
##LASTX=400.0
##DELTAX=-5.2631578947368425
##MAXY=95.0
##MINY=0.0
##XFACTOR=1
##YFACTOR=1
##NPOINTS=685
##FIRSTY=0.0
##XYDATA=(X++(Y..Y))
4000+0+92187500000+91875000000+91875000000+91875000000+92187500000
3968+92187500000+92500000000+92187500000+92187500000+92187500000+92187500000
3937+92500000000+92500000000+92187500000+92187500000+91875000000+91875000000
3905+92187500000+92500000000+92500000000+92187500000+92187500000+92187500000
3874+92187500000+92500000000+93125000000+92812500000+92812500000+92812500000
3842+92812500000+92500000000+92500000000+92500000000+92500000000+92812500000
3811+93125000000+93437500000+93437500000+93437500000+93437500000+93437500000
3779+93437500000+93750000000+93750000000+93750000000+93750000000+93750000000
3747+93750000000+93437500000+93125000000+93125000000+93125000000+92812500000
3716+92812500000+92812500000+92812500000+92812500000+92500000000+92500000000
3684+92187500000+92187500000+92187500000+92187500000+92187500000+91875000000
3653+91562500000+91562500000+91562500000+91562500000+91562500000+91250000000
3621+91250000000+91250000000+91250000000+90937500000+90937500000+90937500000
3589+90625000000+90625000000+90625000000+90625000000+90625000000+90625000000
3558+90625000000+90625000000+90625000000+90625000000+90625000000+90625000000
3526+90625000000+90625000000+90312500000+90312500000+90312500000+90312500000
3495+90625000000+90625000000+90937500000+90937500000+90937500000+90937500000
3463+90937500000+90625000000+90312500000+90000000000+89687500000+89687500000
3432+89375000000+89375000000+89375000000+89687500000+89375000000+90000000000
3400+90000000000+90312500000+90312500000+88437500000+87187500000+83437500000
3368+69062500000+59062500000+47500000000+51250000000+72187500000+79687500000
3337+82500000000+82812500000+81250000000+79687500000+76562500000+71562500000
3305+59687500000+46250000000+32812500000+20312500000+8750000000+5000000000
3274+4687500000+6250000000+5625000000+5312500000+6250000000+9375000000
3242+12187500000+12500000000+13125000000+16250000000+15000000000+12500000000
3211+15000000000+22187500000+25625000000+27500000000+43750000000+54375000000
3179+62500000000+70625000000+76875000000+79375000000+82812500000+84375000000
3147+86875000000+87500000000+87812500000+88437500000+88437500000+85312500000
3116+83437500000+84062500000+86250000000+88750000000+89375000000+90000000000
3084+90625000000+90625000000+90625000000+90312500000+90312500000+90312500000
3053+90312500000+90625000000+90937500000+90937500000+91250000000+91250000000
3021+91562500000+91875000000+92500000000+92812500000+93125000000+93437500000
2989+93750000000+93750000000+93750000000+93750000000+93750000000+93750000000
2958+93750000000+93750000000+93750000000+93750000000+93750000000+94062500000
2926+94062500000+94062500000+94062500000+94062500000+93750000000+93750000000
2895+93750000000+93437500000+93437500000+93125000000+93125000000+93125000000
2863+93125000000+93125000000+93125000000+93125000000+93125000000+93437500000
2832+93437500000+93437500000+93750000000+93437500000+93750000000+93750000000
2800+93750000000+93750000000+94062500000+94062500000+94062500000+94062500000
2768+94062500000+94062500000+94062500000+94062500000+94062500000+94062500000
2737+94062500000+94062500000+94062500000+94062500000+94062500000+94062500000
2705+94375000000+94375000000+94375000000+94062500000+94062500000+94062500000
2674+94062500000+94062500000+94062500000+94375000000+94375000000+94375000000
2642+94062500000+94062500000+94062500000+94062500000+94062500000+94062500000
2611+94062500000+94062500000+94375000000+94375000000+94375000000+94375000000
2579+94375000000+94375000000+94375000000+94375000000+94375000000+94375000000
2547+94375000000+94375000000+94375000000+94375000000+94375000000+94062500000
2516+94062500000+94062500000+94062500000+94062500000+94062500000+94375000000
2484+94375000000+94375000000+94375000000+94375000000+94375000000+94375000000
2453+94375000000+94062500000+94062500000+94062500000+93750000000+93750000000
2421+93437500000+93437500000+93437500000+93437500000+93437500000+93437500000
2389+93437500000+93437500000+93437500000+93437500000+93437500000+93437500000
2358+93125000000+93125000000+92812500000+92500000000+91875000000+91250000000
2326+90000000000+88125000000+86250000000+84062500000+83437500000+83750000000
2295+85625000000+88125000000+90000000000+90937500000+91562500000+91875000000
2263+91875000000+91250000000+90937500000+90312500000+89375000000+88750000000
2232+88750000000+88750000000+88437500000+88750000000+88750000000+88750000000
2200+88750000000+88750000000+88750000000+88750000000+88437500000+88125000000
2168+87812500000+87187500000+86250000000+84375000000+81250000000+75312500000
2137+60312500000+36250000000+30312500000+33437500000+53750000000+69687500000
2105+77500000000+81875000000+84375000000+86875000000+88437500000+89375000000
2074+91562500000+92500000000+93437500000+94062500000+94687500000+95000000000
2042+94687500000+94687500000+94375000000+93750000000+93437500000+93125000000
2011+92812500000+92500000000+92187500000+91875000000+91562500000+91250000000
1979+91250000000+90937500000+90937500000+90625000000+90312500000+90000000000
1947+89687500000+89062500000+88437500000+87500000000+86875000000+85312500000
1916+84375000000+82812500000+80312500000+76250000000+71250000000+62500000000
1884+45937500000+27812500000+23750000000+25000000000+25937500000+26250000000
1853+26562500000+29687500000+32812500000+36250000000+39375000000+46562499999
1821+52187500000+58125000000+63750000000+68437500000+72187500000+74687500000
1789+75937500000+76875000000+75937500000+72812500000+66250000000+44999999999
1758+34687500000+41250000000+35937500000+34375000000+31875000000+30625000000
1726+46250000000+61250000000+71562500000+77187500000+79375000000+77812500000
1695+75000000000+75000000000+76250000000+80625000000+82187500000+83437500000
1663+82500000000+80625000000+80000000000+80625000000+82500000000+83437500000
1632+81875000000+80625000000+80625000000+80625000000+81250000000+82187500000
1600+80625000000+79687500000+79687500000+80312500000+81875000000+83125000000
1568+84062500000+84062500000+83750000000+83750000000+84687500000+85000000000
1537+83750000000+80312500000+79062500000+80312500000+84375000000+85937500000
1505+84687500000+83125000000+82187500000+82187500000+82500000000+82500000000
1474+81250000000+76875000000+66250000000+65937500000+71250000000+79062500000
1442+81250000000+82187500000+82812500000+82500000000+82187500000+81250000000
1411+80937500000+80937500000+81562500000+82500000000+83125000000+82812500000
1379+82812500000+83750000000+87812500000+89375000000+90312500000+90937500000
1347+91562500000+91562500000+91562500000+91250000000+90937500000+90625000000
1316+90625000000+90312500000+90000000000+89687500000+89687500000+89062500000
1284+88750000000+88437500000+88125000000+87812500000+87812500000+88125000000
1253+88125000000+88437500000+88750000000+89062500000+88437500000+87812500000
1221+86250000000+85000000000+83437500000+82187500000+81562500000+81562500000
1189+81562500000+81875000000+82812500000+83437500000+84062500000+84687500000
1158+85312500000+85625000000+85625000000+85000000000+84375000000+83750000000
1126+83437500000+82500000000+78437500000+78125000000+79375000000+76875000000
1095+71875000000+62812500000+48124999999+27500000000+10937500000+8750000000
1063+10312500000+21875000000+44687500000+60937500000+70937500000+75937500000
1032+80312500000+82187500000+83437500000+84375000000+85312500000+85625000000
1000+85937500000+86562500000+87187500000+87187500000+87500000000+87187500000
968+86875000000+86875000000+86562500000+86562500000+86562500000+87500000000
937+88750000000+90000000000+91250000000+92500000000+92812500000+92500000000
905+92500000000+92500000000+92500000000+92812500000+91875000000+90625000000
874+86875000000+83125000000+79687500000+80000000000+82500000000+87500000000
842+89375000000+90625000000+91250000000+91562500000+91562500000+91562500000
811+91875000000+91875000000+92187500000+92500000000+92812500000+93125000000
779+93437500000+93750000000+93750000000+93437500000+93125000000+92812500000
747+92500000000+92500000000+92500000000+92812500000+92812500000+92812500000
716+92812500000+92812500000+92812500000+92812500000+92812500000+92812500000
684+92812500000+92812500000+92500000000+92500000000+92187500000+91562500000
653+91250000000+90625000000+89687500000+88750000000+87500000000+86875000000
621+85625000000+83437500000+75937500000+70937500000+70312500000+70937500000
589+75937500000+83750000000+86875000000+88750000000+90000000000+90312500000
558+90625000000+90625000000+90312500000+89687500000+89062500000+88125000000
526+87500000000+86875000000+86562500000+86562500000+86562500000+86562500000
495+86562500000+85937500000+85000000000+84062500000+82500000000+80937500000
463+79687500000+78437500000+77187500000+76250000000+75625000000+75000000000
432+74375000000+73125000000+72187500000+70625000000+69375000000+68125000000
400+67812500000
##END=
