##TITLE=2,6-dibenzylidenecyclohexanone
##JCAMP-DX=4.24
##DATA TYPE=INFRARED SPECTRUM
##DATE=10/06/2025
##SAMPLING PROCEDURE=ATR
##ORIGIN=SDBS
##XUNITS=1/CM
##YUNITS=TRANSMITTANCE
##RESOLUTION=5.2631578947368425
##FIRSTX=4000.0
##LASTX=400.0
##DELTAX=-5.2631578947368425
##MAXY=94.6875
##MINY=0.0
##XFACTOR=1
##YFACTOR=1
##NPOINTS=685
##FIRSTY=0.0
##XYDATA=(X++(Y..Y))
4000+0+81875000000+81250000000+81250000000+81250000000+81250000000
3968+80937500000+80625000000+80312500000+80625000000+80625000000+80937500000
3937+81250000000+81250000000+81250000000+80937500000+80625000000+80312500000
3905+80000000000+80000000000+79687500000+79687500000+79687500000+79687500000
3874+80000000000+80000000000+80312500000+80937500000+80625000000+80625000000
3842+80625000000+80625000000+80312500000+79687500000+79375000000+79375000000
3811+79375000000+79375000000+79375000000+79375000000+80000000000+80000000000
3779+79687500000+79687500000+79687500000+79687500000+79687500000+79375000000
3747+79375000000+79375000000+79062500000+79062500000+79062500000+79062500000
3716+79375000000+79687500000+79687500000+79687500000+79687500000+79375000000
3684+79375000000+79375000000+79375000000+79375000000+79375000000+79062500000
3653+78750000000+78750000000+78750000000+78750000000+78750000000+78750000000
3621+78750000000+78437500000+78437500000+78437500000+78125000000+78125000000
3589+78125000000+77812500000+77187500000+76875000000+77500000000+77500000000
3558+77500000000+77500000000+77812500000+78125000000+78125000000+78437500000
3526+78125000000+77812500000+77812500000+77812500000+78125000000+77812500000
3495+77187500000+77187500000+77187500000+77187500000+76875000000+76875000000
3463+76562500000+76250000000+76250000000+76562500000+76875000000+76562500000
3432+76250000000+75937500000+75937500000+75937500000+75937500000+75312500000
3400+75625000000+75312500000+75312500000+75000000000+75000000000+74375000000
3368+72812500000+69687500000+68125000000+70312500000+65937500000+67187500000
3337+68750000000+67812500000+64375000000+62187500000+62500000000+60937500000
3305+58125000000+51562500000+42500000000+31250000000+19375000000+13125000000
3274+11250000000+11250000000+8125000000+5000000000+4687500000+5000000000
3242+9375000000+13437500000+17812500000+21875000000+23750000000+20312500000
3211+15625000000+12812500000+13125000000+23750000000+48437500000+61250000000
3179+69687500000+74687500000+76875000000+78750000000+80625000000+81250000000
3147+82187500000+82812500000+82812500000+82187500000+81875000000+81250000000
3116+81250000000+81250000000+81562500000+81875000000+82187500000+82187500000
3084+81875000000+81875000000+81875000000+81875000000+82187500000+82187500000
3053+82187500000+82500000000+82500000000+82500000000+83125000000+83437500000
3021+83750000000+83750000000+84062500000+84375000000+84687500000+84687500000
2989+85000000000+85312500000+85625000000+85625000000+85625000000+85625000000
2958+85937500000+85937500000+86250000000+86250000000+86250000000+86250000000
2926+86562500000+86562500000+86250000000+86250000000+86250000000+86250000000
2895+86250000000+86875000000+86875000000+86250000000+85937500000+85937500000
2863+85625000000+85625000000+85937500000+85937500000+85937500000+86250000000
2832+86250000000+86250000000+86250000000+86562500000+87187500000+87500000000
2800+87812500000+87812500000+87812500000+87812500000+88125000000+88125000000
2768+88125000000+88125000000+88125000000+88125000000+88125000000+88437500000
2737+88437500000+88437500000+88750000000+88750000000+89062500000+89062500000
2705+89375000000+89375000000+89375000000+89375000000+89375000000+89375000000
2674+89375000000+89375000000+89375000000+89687500000+89687500000+89687500000
2642+90000000000+90000000000+90000000000+90000000000+90000000000+90000000000
2611+90312500000+90312500000+90625000000+90625000000+90312500000+90312500000
2579+90312500000+89687500000+89375000000+89062500000+88750000000+88437500000
2547+88437500000+88437500000+89062500000+89375000000+90000000000+90625000000
2516+90625000000+90937500000+90937500000+90937500000+90625000000+90625000000
2484+90312500000+90312500000+90000000000+89687500000+89375000000+89375000000
2453+89375000000+89375000000+89687500000+90000000000+90000000000+90312500000
2421+90312500000+90625000000+90625000000+90937500000+90937500000+91250000000
2389+91250000000+91250000000+91250000000+90937500000+90625000000+90625000000
2358+90312500000+90312500000+90312500000+90625000000+90625000000+90625000000
2326+90625000000+90625000000+90625000000+90625000000+90625000000+90625000000
2295+90625000000+90625000000+90625000000+90625000000+90625000000+90937500000
2263+90937500000+90937500000+90937500000+90937500000+90937500000+90937500000
2232+90937500000+90937500000+90937500000+90937500000+90937500000+90937500000
2200+90937500000+90625000000+90625000000+90625000000+90312500000+90625000000
2168+90625000000+90937500000+90937500000+86250000000+65625000000+55000000000
2137+61875000000+78750000000+85312500000+86562500000+89687500000+91875000000
2105+92812500000+92500000000+91250000000+86250000000+74062500000+60000000000
2074+35625000000+29687500000+30625000000+40625000000+54687500000+55937500000
2042+66562500000+67812500000+57187500000+39687500000+37187499999+40312499999
2011+52500000000+63750000000+67187500000+67812500000+71875000000+75625000000
1979+77812500000+79687500000+81875000000+83437500000+84687500000+84687500000
1947+85312500000+85625000000+85312500000+83125000000+82187500000+78125000000
1916+70312500000+67500000000+66250000000+55625000000+56250000000+65937500000
1884+59687500000+48437500000+38125000000+37187499999+37500000000+38437500000
1853+39062500000+38437500000+36250000000+38749999999+54687500000+52187500000
1821+64375000000+76250000000+80000000000+82187500000+83125000000+84062500000
1789+84375000000+84375000000+83750000000+81875000000+79062500000+71562500000
1758+65000000000+55937500000+53437500000+56250000000+68125000000+70312500000
1726+73750000000+78750000000+80625000000+81250000000+80000000000+76875000000
1695+76875000000+80937500000+80625000000+77500000000+73125000000+70937500000
1663+69375000000+71250000000+77812500000+77187500000+72812500000+65000000000
1632+60625000000+60312500000+62500000000+53750000000+29687500000+29375000000
1600+37812500000+54687500000+64062500000+68125000000+70312500000+74062500000
1568+77812500000+80000000000+81562500000+82812500000+83750000000+85000000000
1537+85312500000+85625000000+85937500000+85625000000+83125000000+74687500000
1505+73437500000+82187500000+86562500000+81250000000+80312500000+83125000000
1474+71875000000+61250000000+29062500000+29062500000+46562499999+47500000000
1442+49062500000+48437500000+33750000000+34375000000+44062500000+45937500000
1411+60000000000+62812500000+68437500000+72500000000+75625000000+75625000000
1379+76875000000+78437500000+79687500000+80937500000+81250000000+80625000000
1347+79687500000+79687500000+79687500000+74375000000+70312500000+76250000000
1316+79375000000+79375000000+79375000000+80312500000+82500000000+84062500000
1284+84375000000+82187500000+74687500000+74687500000+75625000000+78125000000
1253+81250000000+83437500000+84687500000+85312500000+85625000000+85937500000
1221+86250000000+86562500000+86875000000+86875000000+85625000000+77500000000
1189+49375000000+49687499999+58750000000+73437500000+78750000000+81875000000
1158+82187500000+77187500000+59375000000+50312500000+66250000000+78437500000
1126+78750000000+74687500000+78437500000+81875000000+79062500000+78750000000
1095+81875000000+86250000000+87187500000+83750000000+78750000000+79687500000
1063+85000000000+86562500000+86562500000+84375000000+71875000000+70625000000
1032+79375000000+83750000000+85937500000+85937500000+82812500000+79375000000
1000+80937500000+87187500000+88437500000+87500000000+86562500000+85625000000
968+84375000000+80000000000+72187500000+72500000000+81562500000+85625000000
937+86875000000+87187500000+85312500000+79062500000+58437500000+34687500000
905+36250000000+69062500000+80312500000+82187500000+64375000000+63750000000
874+77500000000+80312500000+68437500000+68437500000+79375000000+78750000000
842+71875000000+43125000000+42812500000+69687500000+81562500000+72812500000
811+38125000000+24375000000+24062500000+58437500000+75000000000+80937500000
779+85000000000+86562500000+87187500000+88125000000+89375000000+90312500000
747+90625000000+91250000000+91250000000+90937500000+86250000000+85000000000
716+90000000000+91562500000+91562500000+90312500000+86875000000+88750000000
684+91562500000+91562500000+91562500000+91250000000+90937500000+90625000000
653+90625000000+90937500000+90937500000+91250000000+91875000000+92500000000
621+93125000000+93750000000+94375000000+94687500000+94687500000+94062500000
589+90937500000+78750000000+44375000000+42187500000+66250000000+49375000000
558+49687499999+66875000000+82500000000+79687500000+82500000000+87187500000
526+87812500000+87812500000+87500000000+87812500000+88125000000+88437500000
495+89062500000+90000000000+90937500000+91562500000+92187500000+91875000000
463+91562500000+91250000000+90937500000+91562500000+92187500000+92812500000
432+93125000000+91562500000+88750000000+85000000000+81250000000+78750000000
400+77187500000
##END=
