##TITLE=2-(2-ethoxyethoxy)ethanol
##JCAMP-DX=4.24
##DATA TYPE=INFRARED SPECTRUM
##DATE=10/06/2025
##SAMPLING PROCEDURE=ATR
##ORIGIN=SDBS
##XUNITS=1/CM
##YUNITS=TRANSMITTANCE
##RESOLUTION=5.2631578947368425
##FIRSTX=4000.0
##LASTX=400.0
##DELTAX=-5.2631578947368425
##MAXY=95.0
##MINY=0.0
##XFACTOR=1
##YFACTOR=1
##NPOINTS=685
##FIRSTY=0.0
##XYDATA=(X++(Y..Y))
4000+0+89687500000+89687500000+89687500000+90000000000+90312500000
3968+90312500000+90625000000+90937500000+90937500000+91250000000+91250000000
3937+91562500000+91562500000+91875000000+91562500000+91562500000+91562500000
3905+91562500000+91562500000+91250000000+91250000000+91250000000+90937500000
3874+90937500000+90625000000+90625000000+90312500000+90000000000+89687500000
3842+89687500000+89062500000+89062500000+88750000000+88437500000+88125000000
3811+87812500000+87187500000+86250000000+85000000000+83437500000+80937500000
3779+78125000000+75312500000+72812500000+69062500000+65000000000+60937500000
3747+57500000000+53125000000+49062500000+44687500000+41250000000+37500000000
3716+34062500000+31250000000+28750000000+26250000000+23750000000+22187500000
3684+20312500000+18750000000+17187500000+16250000000+15000000000+14375000000
3653+13750000000+13125000000+12500000000+11875000000+11562500000+11250000000
3621+10937500000+10625000000+10312500000+10312500000+10312500000+10000000000
3589+10000000000+10312500000+10312500000+10312500000+10625000000+10937500000
3558+11250000000+11562500000+11875000000+12500000000+13125000000+13750000000
3526+14062500000+14687500000+15312500000+15937500000+16562500000+17500000000
3495+18125000000+19062500000+20000000000+21250000000+22187500000+23750000000
3463+25312500000+26875000000+28437500000+30312500000+32187500000+34375000000
3432+36250000000+38749999999+40937500000+43125000000+44999999999+47187500000
3400+49375000000+51250000000+52812500000+54687500000+56250000000+57812500000
3368+59062500000+60312500000+61562500000+62500000000+63125000000+63750000000
3337+64375000000+64687500000+64375000000+63437500000+60937500000+57187500000
3305+48437500000+32500000000+18437500000+15937500000+16250000000+20312500000
3274+17187500000+15625000000+13750000000+13125000000+13125000000+13437500000
3242+12500000000+11250000000+10625000000+9062500000+8125000000+7812500000
3211+8437500000+10312500000+15000000000+21562500000+27812500000+32500000000
3179+36250000000+38749999999+41874999999+44999999999+49375000000+52812500000
3147+55625000000+58125000000+60000000000+60937500000+61562500000+62187500000
3116+63125000000+64062500000+65625000000+66875000000+67500000000+69062500000
3084+72187500000+74375000000+75625000000+76250000000+76875000000+77187500000
3053+77500000000+77500000000+77812500000+78125000000+78125000000+78750000000
3021+79375000000+79687500000+80312500000+80625000000+81250000000+81250000000
2989+81562500000+81562500000+81562500000+81562500000+81562500000+81875000000
2958+81875000000+81875000000+82187500000+82500000000+82812500000+82812500000
2926+83125000000+83437500000+83750000000+83750000000+84062500000+84375000000
2895+84687500000+84687500000+85000000000+85312500000+85312500000+85312500000
2863+85312500000+85312500000+85312500000+85312500000+85312500000+85312500000
2832+85312500000+85312500000+85312500000+85312500000+85000000000+85000000000
2800+85000000000+84687500000+84687500000+84687500000+85000000000+85000000000
2768+85000000000+84687500000+84687500000+84687500000+84375000000+84375000000
2737+84062500000+84062500000+83750000000+83750000000+83750000000+83437500000
2705+83750000000+83750000000+84062500000+84062500000+84375000000+84375000000
2674+84687500000+85312500000+85625000000+85937500000+86562500000+86875000000
2642+87187500000+87500000000+87812500000+87812500000+87500000000+87187500000
2611+86875000000+86875000000+86562500000+86250000000+85937500000+85625000000
2579+85312500000+85000000000+84687500000+84375000000+84375000000+84375000000
2547+84375000000+84375000000+84375000000+84687500000+85312500000+85937500000
2516+86562500000+87187500000+88125000000+88437500000+89062500000+89375000000
2484+89687500000+90312500000+90625000000+90937500000+91250000000+91562500000
2453+91875000000+92187500000+92500000000+92812500000+92812500000+93125000000
2421+93437500000+93437500000+93750000000+94062500000+94062500000+94375000000
2389+94375000000+94375000000+94687500000+94687500000+94687500000+94687500000
2358+95000000000+95000000000+94687500000+94687500000+94687500000+94687500000
2326+94375000000+94375000000+94375000000+94062500000+94062500000+94062500000
2295+94062500000+93750000000+93750000000+93437500000+93437500000+93125000000
2263+92812500000+92500000000+92187500000+91875000000+91562500000+90937500000
2232+90625000000+90312500000+90000000000+89687500000+89062500000+88437500000
2200+87500000000+85937500000+84687500000+82812500000+80312500000+77187500000
2168+74687500000+71562500000+68437500000+65000000000+62187500000+60000000000
2137+58437500000+57812500000+57500000000+57812500000+58437500000+59687500000
2105+61250000000+63125000000+65937500000+68750000000+71562500000+74062500000
2074+77187500000+79687500000+82187500000+84375000000+85937500000+87812500000
2042+89062500000+89687500000+90625000000+91250000000+91875000000+92187500000
2011+92812500000+92812500000+93125000000+93125000000+93125000000+93125000000
1979+93125000000+93125000000+92812500000+92500000000+92187500000+91875000000
1947+90937500000+90312500000+89375000000+88437500000+86875000000+84375000000
1916+80312500000+71250000000+60937500000+57187500000+58437500000+57812500000
1884+51875000000+50312500000+47812500000+43125000000+38749999999+37812500000
1853+37812500000+39375000000+40000000000+43125000000+49062500000+55000000000
1821+57500000000+57187500000+56250000000+55000000000+54375000000+54062500000
1789+52812500000+51562500000+50000000000+49062500000+47187500000+43750000000
1758+40312499999+38125000000+37500000000+38437500000+44687500000+48437500000
1726+47500000000+43437499999+30937500000+27812500000+28750000000+46562499999
1695+60312500000+63125000000+61250000000+59062500000+59062500000+60000000000
1663+61875000000+59687500000+55312500000+51875000000+50625000000+50625000000
1632+50625000000+50625000000+50937500000+51875000000+53750000000+55625000000
1600+57187500000+58437500000+57500000000+55000000000+51562500000+48124999999
1568+45312500000+44687500000+44999999999+51250000000+58125000000+60625000000
1537+61250000000+62187500000+64375000000+68125000000+71562500000+75000000000
1505+76875000000+78125000000+77500000000+75000000000+70000000000+61250000000
1474+53437500000+52812500000+55000000000+51250000000+44375000000+37812500000
1442+31250000000+24375000000+17500000000+12812500000+10312500000+7812500000
1411+6562500000+6250000000+5937500000+5625000000+5312500000+5000000000
1379+4687500000+4687500000+5000000000+6250000000+8437500000+10625000000
1347+12812500000+12500000000+10937500000+9687500000+8750000000+8750000000
1316+9062500000+10000000000+12812500000+16562500000+20937500000+24375000000
1284+29062500000+31562500000+31875000000+32812500000+35937500000+40937500000
1253+47187500000+54062500000+60937500000+67187500000+71875000000+74687500000
1221+76562500000+78125000000+80000000000+82812500000+85937500000+89062500000
1189+91875000000+93125000000+92500000000+90625000000+86250000000+77812500000
1158+64687500000+52812500000+50312500000+49687499999+49375000000+49375000000
1126+51875000000+55625000000+58750000000+61875000000+66562500000+71250000000
1095+76562500000+77500000000+70937500000+60937500000+52812500000+50625000000
1063+51250000000+57500000000+66875000000+73125000000+76875000000+80937500000
1032+85625000000+83750000000+79062500000+70312500000+64062500000+63437500000
1000+64375000000+66562500000+69375000000+72812500000+77187500000+78750000000
968+80312500000+81875000000+82500000000+83437500000+84062500000+85000000000
937+86875000000+89375000000+91875000000+93125000000+93750000000+93750000000
905+93437500000+92812500000+91875000000+90937500000+90312500000+89375000000
874+88437500000+87187500000+86250000000+85625000000+85000000000+84062500000
842+83125000000+82187500000+81250000000+80312500000+79375000000+78437500000
811+77812500000+76875000000+76250000000+75625000000+74687500000+74062500000
779+73750000000+73125000000+72812500000+72187500000+71875000000+71250000000
747+70937500000+70625000000+70000000000+69687500000+69375000000+69062500000
716+68750000000+68750000000+68437500000+68125000000+68125000000+68125000000
684+68125000000+67812500000+67812500000+67812500000+67500000000+67500000000
653+67187500000+67187500000+67187500000+66875000000+66875000000+66875000000
621+67187500000+67500000000+67812500000+68125000000+68437500000+68750000000
589+68750000000+68750000000+68750000000+68750000000+69062500000+69375000000
558+70000000000+70937500000+72187500000+73750000000+75000000000+76875000000
526+78750000000+80625000000+82187500000+83750000000+85000000000+86250000000
495+87187500000+88437500000+89062500000+89375000000+89687500000+90000000000
463+90312500000+90625000000+91250000000+91562500000+91875000000+92187500000
432+91875000000+92187500000+92500000000+92812500000+93437500000+94062500000
400+94375000000
##END=
