##TITLE=2-(3,4-dihydroxyphenyl)-3,7-dihydroxy-4H-chromen-4-one
##JCAMP-DX=4.24
##DATA TYPE=INFRARED SPECTRUM
##DATE=10/06/2025
##SAMPLING PROCEDURE=ATR
##ORIGIN=SDBS
##XUNITS=1/CM
##YUNITS=TRANSMITTANCE
##RESOLUTION=5.2631578947368425
##FIRSTX=4000.0
##LASTX=400.0
##DELTAX=-5.2631578947368425
##MAXY=95.0
##MINY=0.0
##XFACTOR=1
##YFACTOR=1
##NPOINTS=685
##FIRSTY=0.0
##XYDATA=(X++(Y..Y))
4000+0+91875000000+91875000000+91562500000+91562500000+91562500000
3968+91562500000+91875000000+91875000000+91875000000+92187500000+92187500000
3937+92187500000+91875000000+91875000000+91875000000+91875000000+91875000000
3905+91875000000+92187500000+92187500000+92187500000+92187500000+92187500000
3874+92500000000+92500000000+92500000000+92500000000+92500000000+92812500000
3842+93125000000+93125000000+93437500000+93437500000+93437500000+93750000000
3811+94062500000+94375000000+94375000000+94687500000+94687500000+94687500000
3779+94687500000+94687500000+94687500000+94062500000+93437500000+92500000000
3747+91875000000+90937500000+89687500000+88750000000+87812500000+86250000000
3716+84375000000+82187500000+78437500000+72812500000+67812500000+63750000000
3684+60312500000+57500000000+53125000000+50000000000+50000000000+52812500000
3653+55000000000+55000000000+53437500000+52187500000+50000000000+48437500000
3621+46562499999+44999999999+44375000000+44375000000+44375000000+43437499999
3589+42500000000+41874999999+40937500000+40000000000+39687500000+39062500000
3558+39062500000+39062500000+39062500000+39375000000+40000000000+40937500000
3526+41250000000+41874999999+42187500000+42187500000+41874999999+41562500000
3495+40937500000+40312499999+39687500000+39687500000+40000000000+40312499999
3463+41562500000+42812500000+43750000000+44375000000+44999999999+45625000000
3432+46250000000+46875000000+47500000000+48124999999+48437500000+48750000000
3400+49687499999+50000000000+50312500000+50312500000+50937500000+51250000000
3368+50937500000+50937500000+51250000000+51562500000+51875000000+52500000000
3337+52812500000+52500000000+52500000000+52500000000+51875000000+50625000000
3305+48750000000+45312500000+37500000000+28437500000+16875000000+12187500000
3274+11250000000+11875000000+8125000000+5000000000+4687500000+4687500000
3242+7812500000+13437500000+18125000000+22812500000+25625000000+22187500000
3211+18437500000+12812500000+12500000000+25625000000+46875000000+56562500000
3179+61875000000+65000000000+67187500000+68437500000+69062500000+69687500000
3147+70312500000+70937500000+71562500000+71875000000+71562500000+70625000000
3116+70312500000+70625000000+71250000000+71875000000+72187500000+72500000000
3084+72500000000+72500000000+72812500000+73437500000+74375000000+74687500000
3053+75000000000+75312500000+75312500000+75312500000+75625000000+75937500000
3021+76562500000+77187500000+77500000000+78125000000+78750000000+79375000000
2989+79687500000+80312500000+80937500000+81250000000+81562500000+81875000000
2958+82187500000+82187500000+82500000000+83125000000+83437500000+83437500000
2926+83437500000+83437500000+83750000000+84062500000+84375000000+84687500000
2895+84687500000+85000000000+85000000000+85312500000+85312500000+85625000000
2863+85937500000+85937500000+86250000000+86250000000+86562500000+86875000000
2832+86875000000+87187500000+87187500000+87500000000+87812500000+87812500000
2800+88125000000+88125000000+88437500000+88437500000+88437500000+88437500000
2768+88750000000+88750000000+89062500000+89062500000+89375000000+89375000000
2737+89375000000+89687500000+89687500000+89687500000+89687500000+89687500000
2705+89687500000+89687500000+89687500000+89687500000+90000000000+90000000000
2674+90000000000+90000000000+90000000000+90312500000+90312500000+90625000000
2642+90625000000+90937500000+90937500000+91250000000+91562500000+91875000000
2611+91875000000+92187500000+92187500000+92187500000+92187500000+92500000000
2579+92500000000+92500000000+91875000000+92500000000+92500000000+92812500000
2547+92812500000+92812500000+92812500000+92812500000+92812500000+92812500000
2516+92812500000+92812500000+92812500000+92812500000+92812500000+93125000000
2484+93125000000+93125000000+93125000000+93125000000+93125000000+92500000000
2453+93125000000+93437500000+93437500000+93437500000+93437500000+93437500000
2421+93750000000+93750000000+94062500000+94062500000+94375000000+94375000000
2389+94375000000+94687500000+94687500000+94687500000+94687500000+95000000000
2358+94687500000+94687500000+94687500000+94687500000+94375000000+94375000000
2326+93750000000+93125000000+94062500000+93437500000+93750000000+93437500000
2295+93437500000+93437500000+92812500000+91875000000+91250000000+89062500000
2263+86562500000+84375000000+83125000000+82812500000+81875000000+82187500000
2232+81250000000+80000000000+77812500000+76562500000+76250000000+75937500000
2200+75937500000+75625000000+75625000000+74062500000+71875000000+69062500000
2168+69062500000+69687500000+70625000000+70937500000+72187500000+71562500000
2137+69375000000+65625000000+63125000000+59062500000+53750000000+47500000000
2105+43125000000+39062500000+37812500000+38125000000+37812500000+34375000000
2074+28125000000+24687500000+24375000000+25000000000+26562500000+30937500000
2042+35937500000+39687500000+43125000000+45937500000+42812500000+39062500000
2011+39062500000+43125000000+50937500000+57187500000+63750000000+67812500000
1979+70937500000+68750000000+62187500000+54062500000+50937500000+50937500000
1947+51875000000+53750000000+54687500000+57187500000+57812500000+59375000000
1916+61250000000+61562500000+60312500000+55625000000+48437500000+39687500000
1884+35312500000+33750000000+30312500000+30312500000+31250000000+30625000000
1853+29687500000+29687500000+30625000000+32500000000+34062500000+38749999999
1821+47187500000+53437500000+58437500000+61875000000+64062500000+65937500000
1789+66875000000+65625000000+63750000000+63750000000+63437500000+59375000000
1758+55312500000+49062500000+47500000000+49062500000+55937500000+57500000000
1726+59375000000+60937500000+57187500000+52500000000+47500000000+44999999999
1695+42187500000+40312499999+40000000000+40312499999+42187500000+45312500000
1663+47500000000+50312500000+50312500000+47812500000+43437499999+40000000000
1632+35312500000+30312500000+28750000000+29375000000+32187500000+31250000000
1600+31250000000+35000000000+39687500000+42812500000+45625000000+48750000000
1568+50625000000+51875000000+53125000000+53437500000+52812500000+51250000000
1537+50000000000+50312500000+51562500000+53437500000+49687499999+48750000000
1505+48437500000+49062500000+50625000000+49062500000+46250000000+44375000000
1474+41874999999+40000000000+37500000000+37187499999+37500000000+42500000000
1442+47500000000+51875000000+55937500000+59687500000+55312500000+45937500000
1411+44999999999+47187500000+49062500000+43437499999+41874999999+43125000000
1379+44687500000+43750000000+43437499999+44062500000+50312500000+56250000000
1347+60625000000+63125000000+64687500000+65937500000+66875000000+68125000000
1316+68750000000+69375000000+69687500000+70312500000+70625000000+70937500000
1284+71250000000+71562500000+71562500000+71875000000+71250000000+67500000000
1253+67187500000+69375000000+73437500000+75937500000+78750000000+80625000000
1221+82187500000+83750000000+84375000000+84687500000+83750000000+78125000000
1189+76875000000+79375000000+84687500000+85937500000+85937500000+87187500000
1158+88437500000+88125000000+86250000000+82500000000+82500000000+82500000000
1126+84062500000+87187500000+89375000000+90937500000+92187500000+92500000000
1095+92500000000+91875000000+91562500000+91250000000+90937500000+90937500000
1063+90312500000+87187500000+79375000000+79375000000+83125000000+85312500000
1032+77187500000+69375000000+70000000000+73750000000+74687500000+75625000000
1000+76875000000+77812500000+79375000000+78750000000+77812500000+77812500000
968+73437500000+72812500000+72812500000+78437500000+81250000000+81562500000
937+80937500000+81562500000+85625000000+87500000000+85000000000+76250000000
905+75937500000+83750000000+85000000000+90625000000+90000000000+91562500000
874+93437500000+93750000000+93125000000+92500000000+89062500000+87812500000
842+85625000000+85625000000+87500000000+91250000000+90625000000+83750000000
811+82500000000+82500000000+89687500000+92187500000+92187500000+90000000000
779+85000000000+85000000000+86562500000+90937500000+91562500000+92187500000
747+92187500000+92812500000+93437500000+94062500000+94375000000+93437500000
716+90312500000+88125000000+88750000000+91250000000+92812500000+94062500000
684+94375000000+94375000000+93750000000+93125000000+92500000000+91875000000
653+91562500000+90937500000+90937500000+90625000000+90312500000+90312500000
621+90312500000+90312500000+90625000000+90937500000+91250000000+91875000000
589+92187500000+92187500000+91875000000+91562500000+91250000000+91250000000
558+91250000000+91250000000+91562500000+92187500000+92500000000+93125000000
526+93750000000+94375000000+94687500000+94375000000+94062500000+93125000000
495+92812500000+92812500000+92812500000+92812500000+93125000000+93750000000
463+93750000000+93437500000+93125000000+92812500000+92812500000+92500000000
432+92500000000+91562500000+90937500000+89687500000+88437500000+87500000000
400+87500000000
##END=
