##TITLE=2-(hydroxymethyl)thiophene
##JCAMP-DX=4.24
##DATA TYPE=INFRARED SPECTRUM
##DATE=10/06/2025
##SAMPLING PROCEDURE=ATR
##ORIGIN=SDBS
##XUNITS=1/CM
##YUNITS=TRANSMITTANCE
##RESOLUTION=5.2631578947368425
##FIRSTX=4000.0
##LASTX=400.0
##DELTAX=-5.2631578947368425
##MAXY=94.6875
##MINY=0.0
##XFACTOR=1
##YFACTOR=1
##NPOINTS=685
##FIRSTY=0.0
##XYDATA=(X++(Y..Y))
4000+0+90312500000+89687500000+89375000000+89062500000+88750000000
3968+88437500000+88125000000+87500000000+87187500000+87187500000+87187500000
3937+87500000000+88125000000+88437500000+88750000000+89062500000+89062500000
3905+89062500000+89062500000+88750000000+88125000000+87500000000+86875000000
3874+86875000000+86875000000+87187500000+87500000000+88437500000+88750000000
3842+88750000000+88437500000+88125000000+87812500000+87500000000+87500000000
3811+87500000000+87500000000+87500000000+87187500000+86875000000+85937500000
3779+84062500000+81562500000+79062500000+75625000000+72500000000+69687500000
3747+67812500000+65937500000+64687500000+63125000000+61875000000+60000000000
3716+57812500000+55000000000+52187500000+48750000000+46250000000+44687500000
3684+43125000000+41874999999+40625000000+39375000000+37812500000+35937500000
3653+34062500000+32500000000+30625000000+28437500000+26875000000+25000000000
3621+23125000000+21562500000+20000000000+18750000000+17500000000+16562500000
3589+15625000000+15000000000+14062500000+13750000000+13125000000+13125000000
3558+12812500000+12812500000+12812500000+12812500000+12812500000+12812500000
3526+13125000000+13437500000+13750000000+14375000000+14687500000+15312500000
3495+15937500000+16875000000+17812500000+18750000000+19687500000+20937500000
3463+22187500000+23437500000+24375000000+26250000000+28125000000+30000000000
3432+31875000000+34062500000+36250000000+38437500000+40312499999+42187500000
3400+44062500000+45625000000+46250000000+42500000000+40312499999+41874999999
3368+47500000000+49375000000+49375000000+49375000000+55000000000+59687500000
3337+60937500000+63125000000+66562500000+68437500000+69687500000+70625000000
3305+71250000000+71875000000+72187500000+72187500000+70312500000+65937500000
3274+57500000000+51250000000+48750000000+48437500000+48437500000+50000000000
3242+52500000000+54062500000+52812500000+48124999999+42812500000+42187500000
3211+42812500000+46250000000+51875000000+57187500000+61250000000+63750000000
3179+66562500000+68750000000+70625000000+71875000000+73437500000+75000000000
3147+75937500000+76562500000+77187500000+77187500000+77500000000+77500000000
3116+77812500000+78125000000+78437500000+78750000000+79062500000+79375000000
3084+79687500000+80312500000+80625000000+80937500000+80937500000+81250000000
3053+81250000000+81250000000+81250000000+81562500000+81875000000+82187500000
3021+82500000000+82812500000+83437500000+83750000000+84375000000+85000000000
2989+85625000000+85937500000+86562500000+86562500000+86875000000+87187500000
2958+87500000000+87500000000+87187500000+86875000000+86875000000+86875000000
2926+86562500000+86562500000+86250000000+86250000000+86250000000+86250000000
2895+86250000000+86562500000+86875000000+87187500000+87500000000+87500000000
2863+87812500000+88125000000+88125000000+88437500000+88750000000+89062500000
2832+89375000000+89062500000+89062500000+89062500000+89375000000+89375000000
2800+89375000000+89375000000+89375000000+89375000000+89687500000+89687500000
2768+89687500000+89687500000+89687500000+90000000000+90000000000+89687500000
2737+89375000000+89062500000+89062500000+89062500000+89375000000+89687500000
2705+90312500000+90625000000+90312500000+90312500000+90000000000+90000000000
2674+90000000000+90312500000+90312500000+90625000000+90625000000+90937500000
2642+90937500000+91250000000+91250000000+90937500000+90937500000+90937500000
2611+91250000000+91562500000+91562500000+91875000000+91875000000+92187500000
2579+92187500000+92187500000+92187500000+92500000000+92812500000+93125000000
2547+93125000000+93437500000+93750000000+94062500000+94062500000+94375000000
2516+94375000000+94375000000+94375000000+94375000000+94375000000+94375000000
2484+94375000000+94375000000+94375000000+94687500000+94687500000+94687500000
2453+94687500000+94687500000+94375000000+94375000000+94375000000+94062500000
2421+94062500000+94062500000+94062500000+93750000000+93750000000+93750000000
2389+93750000000+93750000000+93437500000+93437500000+93125000000+92812500000
2358+92187500000+91562500000+90937500000+90312500000+89687500000+89687500000
2326+89687500000+89687500000+90000000000+90625000000+91562500000+92187500000
2295+92812500000+93125000000+93437500000+93437500000+93437500000+93125000000
2263+92812500000+92187500000+91875000000+90937500000+90000000000+89375000000
2232+89062500000+88750000000+88750000000+88750000000+89062500000+89375000000
2200+89687500000+90000000000+89375000000+88437500000+87500000000+86250000000
2168+84687500000+81250000000+80312500000+79375000000+77187500000+74687500000
2137+73750000000+73750000000+74375000000+75312500000+76562500000+77187500000
2105+77500000000+77812500000+78125000000+78750000000+79687500000+80937500000
2074+82187500000+83437500000+84687500000+85312500000+86562500000+88125000000
2042+89375000000+90625000000+91875000000+92187500000+92500000000+92812500000
2011+92500000000+92187500000+91562500000+90000000000+88437500000+86875000000
1979+84062500000+80000000000+78750000000+79375000000+84062500000+86875000000
1947+87812500000+88437500000+89062500000+89375000000+89062500000+88437500000
1916+87187500000+85625000000+83437500000+80937500000+79375000000+77500000000
1884+75000000000+71250000000+66562500000+63125000000+60312500000+58437500000
1853+55625000000+51875000000+47500000000+41250000000+39375000000+39687500000
1821+43437499999+45937500000+47812500000+48124999999+48437500000+49687499999
1789+50625000000+51562500000+52812500000+53750000000+53437500000+51562500000
1758+50937500000+50625000000+50000000000+49687499999+49687499999+50000000000
1726+51562500000+55312500000+59062500000+61562500000+61875000000+61875000000
1695+62187500000+63437500000+65000000000+67187500000+69375000000+70312500000
1663+70625000000+70937500000+70937500000+70937500000+70937500000+71250000000
1632+72187500000+73750000000+74687500000+75625000000+74687500000+73125000000
1600+70312500000+66875000000+62812500000+61875000000+61875000000+62500000000
1568+64375000000+65625000000+66250000000+64687500000+61250000000+57812500000
1537+56250000000+49062500000+43437499999+43125000000+43750000000+47500000000
1505+55937500000+64687500000+69062500000+72500000000+74062500000+72812500000
1474+68437500000+59062500000+48437500000+42812500000+41562500000+41874999999
1442+44687500000+48124999999+51875000000+57500000000+63437500000+69375000000
1411+76250000000+80937500000+85000000000+86875000000+89375000000+90937500000
1379+91875000000+92187500000+91875000000+90625000000+88437500000+84687500000
1347+77500000000+68437500000+61875000000+60937500000+61250000000+60312500000
1316+57812500000+55000000000+49687499999+43437499999+39375000000+35312500000
1284+29687500000+28437500000+27187500000+24062500000+20312500000+16250000000
1253+13437500000+12187500000+11875000000+11875000000+12500000000+13750000000
1221+17187500000+22500000000+29687500000+36250000000+44375000000+51875000000
1189+57812500000+62187500000+66562500000+70312500000+72187500000+73125000000
1158+74687500000+78750000000+84375000000+88437500000+91562500000+93125000000
1126+94375000000+94687500000+94062500000+93125000000+92500000000+92187500000
1095+91875000000+91875000000+92500000000+93125000000+93750000000+94375000000
1063+94687500000+94062500000+92500000000+90312500000+86875000000+80312500000
1032+55312500000+22812500000+21875000000+31875000000+51875000000+41250000000
1000+34375000000+31875000000+31875000000+35937500000+45312500000+55625000000
968+63750000000+68750000000+70937500000+73125000000+76250000000+79687500000
937+82187500000+83750000000+84062500000+83437500000+82187500000+80625000000
905+78125000000+75625000000+71875000000+68125000000+61562500000+54687500000
874+54687500000+55312500000+50937500000+45625000000+38437500000+30000000000
842+21562500000+15625000000+10000000000+6875000000+5312500000+4687500000
811+4687500000+5312500000+7812500000+14375000000+22812500000+33437500000
779+40625000000+45937500000+48437500000+50625000000+51875000000+56250000000
747+59687500000+62187500000+63437500000+63437500000+62187500000+60000000000
716+57812500000+57500000000+57812500000+59687500000+62812500000+65625000000
684+67500000000+70000000000+71562500000+72500000000+73437500000+74375000000
653+75000000000+75312500000+75000000000+75000000000+75000000000+75000000000
621+75312500000+76250000000+77500000000+79062500000+80625000000+82500000000
589+84687500000+86250000000+87500000000+88125000000+87500000000+86250000000
558+84687500000+82500000000+80312500000+78750000000+77500000000+76875000000
526+76875000000+76562500000+76562500000+76562500000+76875000000+77812500000
495+79062500000+81250000000+83750000000+86250000000+89062500000+91562500000
463+93437500000+94375000000+93125000000+90937500000+88437500000+85312500000
432+81875000000+78437500000+75937500000+73437500000+71562500000+70312500000
400+69687500000
##END=
