##TITLE=2-acetamido-2-methyltricyclo[3.3.1.1[3,7]]decane
##JCAMP-DX=4.24
##DATA TYPE=INFRARED SPECTRUM
##DATE=10/06/2025
##SAMPLING PROCEDURE=ATR
##ORIGIN=SDBS
##XUNITS=1/CM
##YUNITS=TRANSMITTANCE
##RESOLUTION=5.2631578947368425
##FIRSTX=4000.0
##LASTX=400.0
##DELTAX=-5.2631578947368425
##MAXY=95.0
##MINY=0.0
##XFACTOR=1
##YFACTOR=1
##NPOINTS=685
##FIRSTY=0.0
##XYDATA=(X++(Y..Y))
4000+0+89062500000+89062500000+88750000000+88750000000+89062500000
3968+89062500000+89062500000+89062500000+89375000000+89375000000+89062500000
3937+89062500000+89062500000+89062500000+89062500000+88750000000+88750000000
3905+88750000000+89062500000+89062500000+89062500000+89375000000+89375000000
3874+89375000000+89062500000+89062500000+89375000000+89375000000+89375000000
3842+89375000000+89375000000+89375000000+89375000000+89375000000+89375000000
3811+89375000000+89375000000+89687500000+89687500000+89687500000+89687500000
3779+89687500000+89687500000+89687500000+90000000000+90000000000+90000000000
3747+89687500000+89687500000+89687500000+89687500000+89687500000+89687500000
3716+89687500000+90000000000+90000000000+90000000000+90000000000+90000000000
3684+90000000000+90000000000+90000000000+90000000000+90000000000+90000000000
3653+90312500000+90312500000+90312500000+90000000000+90000000000+90000000000
3621+90000000000+90000000000+90000000000+90000000000+90000000000+89687500000
3589+89687500000+89687500000+89375000000+89062500000+88750000000+88437500000
3558+87500000000+86562500000+85625000000+84375000000+82187500000+79375000000
3526+75000000000+71562500000+64687500000+55312500000+43125000000+35000000000
3495+28750000000+28750000000+33125000000+44375000000+53750000000+61562500000
3463+64687500000+66250000000+66875000000+67500000000+68125000000+69375000000
3432+71562500000+74062500000+76250000000+78125000000+78750000000+79687500000
3400+79687500000+78750000000+77812500000+75000000000+69687500000+62500000000
3368+55625000000+55000000000+57500000000+66250000000+72500000000+76875000000
3337+79375000000+80625000000+80312500000+79687500000+78750000000+76562500000
3305+73437500000+65937500000+40937500000+46875000000+24687500000+21250000000
3274+16250000000+11875000000+6875000000+5000000000+4687500000+5000000000
3242+5000000000+10312500000+18750000000+19687500000+15625000000+17187500000
3211+18437500000+11875000000+16875000000+39062500000+61562500000+71562500000
3179+76562500000+78125000000+79375000000+81562500000+84375000000+86250000000
3147+87812500000+88437500000+88437500000+88750000000+89062500000+89062500000
3116+89062500000+89062500000+89375000000+89687500000+89375000000+88750000000
3084+88437500000+86250000000+86250000000+87812500000+87500000000+87812500000
3053+88125000000+89687500000+90000000000+90312500000+90312500000+90625000000
3021+90937500000+90937500000+91250000000+91562500000+91875000000+91875000000
2989+92187500000+92500000000+92500000000+92812500000+92812500000+92812500000
2958+93125000000+93125000000+93125000000+93125000000+93125000000+93437500000
2926+93125000000+93125000000+93125000000+93125000000+93125000000+93125000000
2895+93125000000+93125000000+93125000000+93125000000+93125000000+93125000000
2863+93125000000+93437500000+93437500000+93437500000+93437500000+93437500000
2832+93750000000+93750000000+93750000000+93750000000+94062500000+94062500000
2800+94062500000+94375000000+94375000000+94062500000+94062500000+94062500000
2768+94062500000+94062500000+94062500000+94062500000+94375000000+94375000000
2737+94375000000+94375000000+94375000000+94375000000+94375000000+94375000000
2705+94375000000+94375000000+94375000000+94375000000+94687500000+94687500000
2674+94687500000+94375000000+94375000000+94375000000+94375000000+94687500000
2642+94687500000+94687500000+94687500000+94687500000+94687500000+94687500000
2611+94687500000+94687500000+94687500000+94687500000+94687500000+94687500000
2579+94687500000+94687500000+94687500000+94687500000+94687500000+94687500000
2547+94687500000+94687500000+94687500000+94687500000+95000000000+95000000000
2516+95000000000+94687500000+94687500000+94687500000+94687500000+94687500000
2484+94687500000+95000000000+95000000000+95000000000+95000000000+95000000000
2453+95000000000+94687500000+94687500000+94687500000+94687500000+94687500000
2421+94687500000+94687500000+94687500000+94687500000+94687500000+94687500000
2389+94687500000+94687500000+94687500000+94687500000+94687500000+94687500000
2358+94687500000+94687500000+94687500000+94687500000+94687500000+94687500000
2326+94687500000+94687500000+94687500000+94687500000+94375000000+94375000000
2295+94375000000+94062500000+94062500000+94062500000+94062500000+94062500000
2263+94062500000+94062500000+94062500000+93750000000+93750000000+93437500000
2232+93125000000+92500000000+92187500000+91875000000+91562500000+90625000000
2200+89375000000+88437500000+87812500000+87500000000+86875000000+85937500000
2168+84062500000+79687500000+70937500000+58125000000+50312500000+47187500000
2137+40937500000+35000000000+30000000000+23750000000+17187500000+16562500000
2105+19375000000+27812500000+37187499999+44375000000+53125000000+58125000000
2074+61875000000+65000000000+69375000000+72187500000+73750000000+72500000000
2042+70625000000+65625000000+55937500000+43437499999+34687500000+30000000000
2011+29687500000+30937500000+34375000000+39375000000+45312500000+50625000000
1979+55937500000+59062500000+62812500000+65937500000+69062500000+70625000000
1947+71875000000+72500000000+73125000000+73750000000+74062500000+74062500000
1916+73750000000+73437500000+72812500000+71875000000+68750000000+59375000000
1884+58750000000+54687500000+46250000000+41562500000+41250000000+39687500000
1853+42500000000+33437500000+33437500000+37812500000+43750000000+51875000000
1821+58125000000+65000000000+70312500000+74062500000+76250000000+78125000000
1789+79375000000+80000000000+80312500000+79687500000+78437500000+73750000000
1758+67187500000+56562500000+55312500000+50937500000+40937500000+43125000000
1726+60937500000+53437500000+60000000000+65625000000+78125000000+80312500000
1695+74687500000+82187500000+83125000000+82187500000+76875000000+74062500000
1663+56562500000+55937500000+62812500000+57187500000+58125000000+74062500000
1632+74687500000+75000000000+72812500000+76250000000+84375000000+86875000000
1600+87500000000+88125000000+88750000000+89062500000+89062500000+88437500000
1568+81875000000+80625000000+86562500000+88125000000+88437500000+88750000000
1537+86250000000+82500000000+87187500000+90312500000+90625000000+90937500000
1505+91250000000+91250000000+90937500000+90937500000+90937500000+90625000000
1474+90312500000+89687500000+88437500000+87812500000+87812500000+87187500000
1442+83750000000+74687500000+67500000000+71562500000+83125000000+72187500000
1411+60312500000+66562500000+81875000000+85937500000+86562500000+85312500000
1379+88125000000+80000000000+80312500000+87500000000+89375000000+89062500000
1347+78125000000+76875000000+88125000000+89687500000+90000000000+90312500000
1316+90312500000+90312500000+88750000000+80000000000+78437500000+81562500000
1284+85625000000+82187500000+82812500000+84375000000+81250000000+87812500000
1253+88437500000+85937500000+84375000000+86250000000+89375000000+90625000000
1221+91250000000+91875000000+91250000000+89687500000+85625000000+70937500000
1189+70000000000+76875000000+86875000000+88125000000+89687500000+91250000000
1158+91250000000+85937500000+85312500000+89062500000+89687500000+80625000000
1126+82187500000+89062500000+90625000000+90937500000+91250000000+91562500000
1095+91875000000+92187500000+92187500000+92187500000+92187500000+91875000000
1063+91875000000+91875000000+91875000000+91875000000+91875000000+91875000000
1032+91875000000+92187500000+92187500000+92187500000+92500000000+92500000000
1000+92500000000+92187500000+91875000000+91562500000+91562500000+90000000000
968+91250000000+91250000000+86875000000+86562500000+90625000000+90937500000
937+90937500000+90625000000+89687500000+88437500000+87187500000+87500000000
905+85625000000+82812500000+79687500000+77187500000+75937500000+75625000000
874+76250000000+78750000000+81875000000+84062500000+85312500000+83750000000
842+76562500000+77187500000+81875000000+85625000000+88437500000+90000000000
811+90625000000+91250000000+91562500000+91875000000+92187500000+92187500000
779+92187500000+92187500000+92500000000+92500000000+92500000000+92500000000
747+88437500000+88750000000+91875000000+92500000000+92187500000+91562500000
716+91250000000+90625000000+88125000000+75312500000+67187500000+72500000000
684+84687500000+89062500000+90937500000+91562500000+91875000000+92187500000
653+92500000000+91562500000+91250000000+90625000000+91562500000+91562500000
621+91875000000+92187500000+92812500000+93125000000+93750000000+94062500000
589+94375000000+94687500000+94687500000+94687500000+94375000000+93750000000
558+92500000000+90625000000+80000000000+76875000000+86562500000+92500000000
526+93437500000+93437500000+92812500000+91875000000+90937500000+90625000000
495+90625000000+90625000000+90937500000+91250000000+91562500000+91562500000
463+90937500000+90312500000+89062500000+87500000000+85937500000+84375000000
432+82500000000+80937500000+80000000000+79062500000+78125000000+77812500000
400+77500000000
##END=
