##TITLE=2-aminotricyclo[3.3.1.1[3,7]]decane
##JCAMP-DX=4.24
##DATA TYPE=INFRARED SPECTRUM
##DATE=10/06/2025
##SAMPLING PROCEDURE=ATR
##ORIGIN=SDBS
##XUNITS=1/CM
##YUNITS=TRANSMITTANCE
##RESOLUTION=5.2631578947368425
##FIRSTX=4000.0
##LASTX=400.0
##DELTAX=-5.2631578947368425
##MAXY=95.0
##MINY=0.0
##XFACTOR=1
##YFACTOR=1
##NPOINTS=685
##FIRSTY=0.0
##XYDATA=(X++(Y..Y))
4000+0+91250000000+90937500000+90625000000+90625000000+90625000000
3968+90625000000+90625000000+90625000000+90625000000+90625000000+90625000000
3937+90625000000+90625000000+90625000000+90625000000+90625000000+90625000000
3905+90312500000+90312500000+90625000000+90312500000+90312500000+90000000000
3874+90000000000+90000000000+90000000000+90000000000+90000000000+90000000000
3842+90000000000+90000000000+90000000000+90000000000+89687500000+89687500000
3811+89687500000+89687500000+89687500000+89687500000+90000000000+90000000000
3779+90000000000+90000000000+90000000000+90000000000+90000000000+90000000000
3747+89687500000+89687500000+89687500000+89687500000+89687500000+89687500000
3716+89687500000+89687500000+89687500000+89687500000+89375000000+89375000000
3684+89062500000+88750000000+88437500000+88437500000+88125000000+88125000000
3653+87500000000+87500000000+87187500000+86875000000+86250000000+85937500000
3621+85312500000+85000000000+84687500000+84062500000+83437500000+82500000000
3589+81562500000+80625000000+79687500000+78437500000+76875000000+76250000000
3558+74687500000+73125000000+72500000000+71875000000+71562500000+71562500000
3526+71875000000+72187500000+72187500000+71875000000+71562500000+71250000000
3495+71250000000+71250000000+71250000000+71562500000+71875000000+72187500000
3463+72500000000+72500000000+72812500000+72812500000+72812500000+73125000000
3432+73125000000+73437500000+73750000000+74375000000+74687500000+75000000000
3400+75000000000+75000000000+74687500000+74375000000+74062500000+73437500000
3368+73125000000+72500000000+71875000000+71562500000+70937500000+70000000000
3337+69062500000+68437500000+67187500000+65937500000+63750000000+61562500000
3305+57500000000+52187500000+42812500000+31875000000+20000000000+13437500000
3274+11562500000+11250000000+7812500000+5312500000+4687500000+4687500000
3242+5312500000+5625000000+6562500000+7812500000+10000000000+11562500000
3211+10312500000+7812500000+7812500000+11562500000+26562500000+38437500000
3179+46250000000+50937500000+55000000000+57812500000+60312500000+62812500000
3147+64687500000+65312500000+65625000000+65937500000+66250000000+66250000000
3116+66562500000+67187500000+68437500000+68750000000+68437500000+67500000000
3084+66562500000+64062500000+63437500000+63437500000+63750000000+64687500000
3053+65625000000+66875000000+68750000000+70312500000+70937500000+71250000000
3021+71562500000+72187500000+73125000000+73750000000+73750000000+74687500000
2989+76250000000+77812500000+78750000000+79375000000+80000000000+80312500000
2958+80937500000+81250000000+81875000000+82500000000+82812500000+83437500000
2926+83750000000+84062500000+84062500000+84375000000+84375000000+84687500000
2895+85000000000+85312500000+85937500000+86562500000+86875000000+86875000000
2863+87187500000+87187500000+87500000000+87500000000+87812500000+88125000000
2832+88125000000+88437500000+88750000000+89062500000+89375000000+89375000000
2800+89687500000+89687500000+90000000000+90000000000+90312500000+90312500000
2768+90312500000+90312500000+90000000000+90000000000+90000000000+89687500000
2737+89687500000+89375000000+89375000000+89375000000+89375000000+89375000000
2705+89375000000+89375000000+89375000000+89687500000+89687500000+90000000000
2674+90312500000+90625000000+90937500000+91250000000+91562500000+91875000000
2642+92187500000+92187500000+92500000000+92500000000+92500000000+92812500000
2611+92812500000+93125000000+93125000000+93125000000+93125000000+93125000000
2579+93437500000+93437500000+93437500000+93437500000+93750000000+93750000000
2547+93750000000+93750000000+93750000000+93750000000+93750000000+93750000000
2516+93750000000+93750000000+93750000000+93750000000+93750000000+93750000000
2484+94062500000+94062500000+94062500000+94062500000+94062500000+94062500000
2453+94062500000+94375000000+94375000000+94375000000+94375000000+94375000000
2421+94375000000+94375000000+94375000000+94375000000+94375000000+94375000000
2389+94687500000+94687500000+94687500000+94687500000+94687500000+94687500000
2358+94687500000+94687500000+94687500000+94687500000+94687500000+94687500000
2326+94687500000+94687500000+95000000000+95000000000+94687500000+94687500000
2295+94687500000+94687500000+94687500000+94687500000+94687500000+94375000000
2263+94375000000+94375000000+94375000000+94062500000+94062500000+93750000000
2232+93125000000+92500000000+92500000000+92500000000+92500000000+92187500000
2200+91875000000+91562500000+91250000000+90625000000+89687500000+88750000000
2168+87500000000+85937500000+83750000000+81250000000+79062500000+77500000000
2137+75625000000+73125000000+71250000000+69687500000+68125000000+65625000000
2105+63437500000+62812500000+62812500000+65000000000+67500000000+69375000000
2074+70625000000+71562500000+71875000000+72500000000+72500000000+72500000000
2042+71875000000+70312500000+68125000000+65625000000+63437500000+61250000000
2011+58437500000+54375000000+50937500000+47812500000+45937500000+45625000000
1979+45937500000+47500000000+50000000000+53437500000+57812500000+61250000000
1947+65000000000+68437500000+70937500000+72500000000+73437500000+72500000000
1916+70937500000+68437500000+64687500000+60312500000+55312500000+48437500000
1884+42500000000+36250000000+26562500000+25625000000+26562500000+28750000000
1853+30000000000+30625000000+30937500000+39375000000+45937500000+53750000000
1821+61875000000+67812500000+70937500000+73125000000+74687500000+75937500000
1789+75000000000+71875000000+65000000000+63750000000+58125000000+53125000000
1758+51250000000+46562499999+45625000000+48750000000+53750000000+51562500000
1726+57500000000+59375000000+58437500000+55625000000+55312500000+56562500000
1695+65625000000+75000000000+70000000000+64375000000+64687500000+69375000000
1663+67812500000+69687500000+69375000000+67187500000+61250000000+61562500000
1632+67187500000+73125000000+73437500000+71875000000+72187500000+77187500000
1600+79687500000+80312500000+81875000000+83750000000+84687500000+85625000000
1568+85937500000+86562500000+87187500000+88125000000+88750000000+89062500000
1537+88437500000+84687500000+80625000000+82500000000+85937500000+82812500000
1505+82500000000+86562500000+89375000000+89687500000+90312500000+90312500000
1474+89062500000+88750000000+88437500000+88125000000+87187500000+85312500000
1442+83750000000+82500000000+80625000000+79375000000+79687500000+81250000000
1411+83750000000+83125000000+83125000000+83750000000+83125000000+81875000000
1379+80937500000+76562500000+71875000000+71875000000+75937500000+80625000000
1347+80000000000+80000000000+80625000000+84687500000+84687500000+81875000000
1316+80625000000+80625000000+81562500000+83125000000+86250000000+87500000000
1284+86875000000+86250000000+85625000000+85625000000+85937500000+86250000000
1253+86250000000+86562500000+86562500000+86875000000+86875000000+86562500000
1221+86250000000+85937500000+85000000000+82187500000+79375000000+79687500000
1189+84062500000+84375000000+80625000000+80312500000+80625000000+78437500000
1158+78437500000+82187500000+82187500000+76562500000+75937500000+75937500000
1126+76250000000+77187500000+78125000000+79687500000+80937500000+80937500000
1095+80937500000+81250000000+82500000000+83750000000+84375000000+84687500000
1063+85000000000+85000000000+85625000000+86250000000+86562500000+86875000000
1032+86875000000+86562500000+86250000000+85937500000+85625000000+85625000000
1000+85312500000+85625000000+85625000000+86250000000+85937500000+82500000000
968+82812500000+80000000000+80937500000+83750000000+83437500000+85625000000
937+86875000000+86250000000+85625000000+85000000000+85312500000+86250000000
905+87187500000+88437500000+89062500000+88125000000+86875000000+85000000000
874+83750000000+84062500000+85937500000+86875000000+86562500000+84062500000
842+82500000000+82500000000+83750000000+82812500000+82500000000+84687500000
811+89687500000+91562500000+92187500000+92500000000+92500000000+92500000000
779+89062500000+89062500000+89687500000+92187500000+93125000000+91875000000
747+82812500000+82500000000+90937500000+93125000000+92812500000+92812500000
716+92812500000+93125000000+93125000000+93125000000+93125000000+92500000000
684+92187500000+91875000000+91875000000+92187500000+92187500000+92187500000
653+92187500000+92187500000+92187500000+92187500000+92500000000+92812500000
621+92812500000+93125000000+93437500000+93750000000+93437500000+92812500000
589+90937500000+90625000000+87812500000+87500000000+89375000000+93125000000
558+93750000000+94375000000+94687500000+94375000000+93750000000+93125000000
526+92500000000+92187500000+91875000000+91875000000+91875000000+91875000000
495+91562500000+90937500000+90625000000+89687500000+88750000000+88125000000
463+88125000000+88125000000+88125000000+88437500000+89062500000+89062500000
432+88437500000+87812500000+86875000000+85937500000+84687500000+84062500000
400+83750000000
##END=
