##TITLE=2-benzimidoyl-3-hydroxy-1,4-naphthoquinone
##JCAMP-DX=4.24
##DATA TYPE=INFRARED SPECTRUM
##DATE=10/06/2025
##SAMPLING PROCEDURE=ATR
##ORIGIN=SDBS
##XUNITS=1/CM
##YUNITS=TRANSMITTANCE
##RESOLUTION=5.2631578947368425
##FIRSTX=4000.0
##LASTX=400.0
##DELTAX=-5.2631578947368425
##MAXY=94.6875
##MINY=0.0
##XFACTOR=1
##YFACTOR=1
##NPOINTS=685
##FIRSTY=0.0
##XYDATA=(X++(Y..Y))
4000+0+85937500000+85625000000+85625000000+85625000000+85937500000
3968+85937500000+86250000000+86250000000+85937500000+85937500000+85937500000
3937+85625000000+85625000000+85625000000+85625000000+85625000000+85625000000
3905+85312500000+85312500000+85625000000+85625000000+85312500000+85312500000
3874+85312500000+85312500000+85312500000+85312500000+85312500000+85312500000
3842+85312500000+85312500000+85000000000+85000000000+85000000000+85312500000
3811+85312500000+85312500000+85000000000+85000000000+85312500000+85312500000
3779+85312500000+85312500000+85625000000+85625000000+85625000000+85625000000
3747+85625000000+85312500000+85312500000+85312500000+85312500000+85312500000
3716+85625000000+85625000000+85625000000+85625000000+85937500000+85937500000
3684+85937500000+85937500000+85937500000+85937500000+85937500000+85937500000
3653+85937500000+85937500000+85937500000+85937500000+85937500000+85937500000
3621+85937500000+85937500000+86250000000+86250000000+86250000000+86250000000
3589+86250000000+86250000000+85937500000+85312500000+85000000000+84687500000
3558+84062500000+83437500000+82187500000+80625000000+77500000000+72812500000
3526+67500000000+63437500000+61875000000+62187500000+64062500000+65312500000
3495+67187500000+68750000000+70000000000+71250000000+71875000000+72500000000
3463+73437500000+74062500000+74687500000+75000000000+75000000000+75312500000
3432+75625000000+75937500000+75937500000+76250000000+76562500000+76875000000
3400+76875000000+76562500000+76250000000+75312500000+74375000000+72812500000
3368+71875000000+71250000000+70625000000+70312500000+70000000000+70312500000
3337+70937500000+70937500000+70312500000+69375000000+68437500000+65937500000
3305+62812500000+56875000000+46875000000+33750000000+20000000000+11875000000
3274+11250000000+12500000000+8750000000+5312500000+4687500000+5000000000
3242+8437500000+13437500000+17187500000+21875000000+23750000000+20312500000
3211+16562500000+12500000000+12812500000+25625000000+48124999999+61875000000
3179+69687500000+73437500000+76562500000+78125000000+79687500000+80937500000
3147+81875000000+82500000000+82812500000+82812500000+82187500000+81875000000
3116+81562500000+81562500000+82187500000+82500000000+82812500000+82500000000
3084+82187500000+82187500000+82187500000+82500000000+83125000000+83437500000
3053+83437500000+83750000000+83750000000+83750000000+83750000000+84062500000
3021+84375000000+84687500000+85312500000+85625000000+85937500000+85937500000
2989+86250000000+86250000000+86250000000+86562500000+86562500000+86875000000
2958+87187500000+87187500000+87187500000+87187500000+87187500000+87500000000
2926+87500000000+87500000000+87500000000+87500000000+87500000000+87500000000
2895+87500000000+87500000000+87500000000+87812500000+87812500000+88125000000
2863+88125000000+88125000000+88125000000+88125000000+88125000000+88125000000
2832+88125000000+88437500000+88437500000+88437500000+88437500000+88437500000
2800+88750000000+88750000000+88750000000+88750000000+89062500000+89062500000
2768+89062500000+89062500000+89375000000+89375000000+89375000000+89375000000
2737+89375000000+89687500000+89687500000+89687500000+89687500000+89687500000
2705+90000000000+90000000000+90000000000+90312500000+90312500000+90312500000
2674+90312500000+90625000000+90625000000+90625000000+90625000000+90625000000
2642+90625000000+90312500000+90312500000+90312500000+90312500000+90625000000
2611+90937500000+90937500000+90937500000+90937500000+90937500000+90937500000
2579+90937500000+90937500000+90625000000+90625000000+90625000000+90937500000
2547+90937500000+90937500000+91250000000+91250000000+91562500000+91562500000
2516+91562500000+91562500000+91875000000+91875000000+91875000000+91875000000
2484+91875000000+91875000000+91875000000+91875000000+91875000000+91875000000
2453+91875000000+91875000000+91875000000+91875000000+91875000000+91875000000
2421+92187500000+92187500000+92187500000+92500000000+92500000000+92500000000
2389+92500000000+92500000000+92812500000+92812500000+92812500000+92812500000
2358+92812500000+92812500000+92812500000+92812500000+92812500000+93125000000
2326+93125000000+93125000000+92812500000+92812500000+92812500000+93125000000
2295+93125000000+93125000000+93125000000+93125000000+93437500000+93437500000
2263+93437500000+93437500000+93125000000+92812500000+92500000000+91562500000
2232+90937500000+90625000000+90312500000+89375000000+87500000000+82500000000
2200+66875000000+53125000000+51250000000+57187500000+75000000000+81250000000
2168+84375000000+86250000000+86562500000+86562500000+86875000000+87500000000
2137+88125000000+87812500000+86875000000+85937500000+84375000000+79375000000
2105+75312500000+74687500000+75625000000+75000000000+73437500000+70312500000
2074+65937500000+62187500000+60625000000+57500000000+52500000000+52500000000
2042+54062500000+58125000000+62500000000+55937500000+45625000000+43125000000
2011+43125000000+44375000000+48750000000+52500000000+56250000000+58437500000
1979+59375000000+60937500000+63125000000+64375000000+65625000000+66875000000
1947+68125000000+69062500000+70000000000+71562500000+69687500000+61250000000
1916+60312500000+61562500000+63750000000+64687500000+65937500000+62187500000
1884+56250000000+44999999999+34687500000+33125000000+33125000000+34687500000
1853+38749999999+43437499999+44999999999+47812500000+41562500000+41250000000
1821+45312500000+55000000000+62500000000+66875000000+70000000000+72500000000
1789+71875000000+67500000000+65000000000+65000000000+67187500000+63125000000
1758+59375000000+53125000000+52187500000+55625000000+65937500000+68437500000
1726+72187500000+76875000000+77500000000+78125000000+72812500000+71875000000
1695+68437500000+61875000000+48437500000+48124999999+52187500000+56875000000
1663+69062500000+75000000000+77187500000+69687500000+55937500000+44062500000
1632+43125000000+45625000000+52812500000+59062500000+66250000000+69687500000
1600+66562500000+50312500000+50000000000+59062500000+67812500000+72500000000
1568+76562500000+78750000000+80000000000+81250000000+78437500000+66250000000
1537+66562500000+76562500000+80312500000+82187500000+82812500000+83125000000
1505+83437500000+83750000000+84375000000+84687500000+85312500000+83750000000
1474+83437500000+82500000000+83750000000+85000000000+85000000000+84687500000
1442+84375000000+84375000000+84375000000+84687500000+85312500000+86250000000
1411+86562500000+87187500000+87187500000+87500000000+87500000000+87812500000
1379+88125000000+88125000000+88125000000+88437500000+88437500000+88437500000
1347+88750000000+88437500000+86562500000+84375000000+85312500000+87812500000
1316+88437500000+88750000000+89062500000+89062500000+89062500000+89062500000
1284+89062500000+89062500000+88750000000+86250000000+87812500000+87812500000
1253+87500000000+85625000000+80000000000+77812500000+79375000000+79687500000
1221+80312500000+87187500000+88437500000+89062500000+88750000000+88750000000
1189+88750000000+89062500000+89062500000+87812500000+83125000000+81875000000
1158+83437500000+86875000000+88125000000+88750000000+89062500000+89375000000
1126+89062500000+89062500000+88437500000+88437500000+88437500000+89687500000
1095+90312500000+90312500000+90000000000+88437500000+81250000000+81250000000
1063+88437500000+89687500000+90000000000+90312500000+90312500000+90000000000
1032+89687500000+89375000000+89062500000+87812500000+83125000000+82500000000
1000+85000000000+88750000000+89687500000+90312500000+90000000000+89687500000
968+89375000000+88437500000+80937500000+78437500000+86562500000+87812500000
937+87500000000+85937500000+82187500000+80000000000+73125000000+67500000000
905+67812500000+72812500000+74375000000+75625000000+77187500000+78750000000
874+75312500000+68750000000+76875000000+79062500000+75000000000+77500000000
842+74687500000+73437500000+81875000000+85625000000+86875000000+82812500000
811+73437500000+66250000000+73750000000+85312500000+88125000000+88437500000
779+80312500000+81562500000+88437500000+90312500000+88750000000+91562500000
747+91875000000+92187500000+90625000000+87187500000+86875000000+91562500000
716+92187500000+93125000000+93125000000+93125000000+93125000000+93437500000
684+93437500000+93437500000+93437500000+93750000000+93750000000+94062500000
653+94062500000+94062500000+93750000000+91875000000+85937500000+86250000000
621+90937500000+92500000000+93437500000+93437500000+86562500000+88437500000
589+94375000000+92812500000+85000000000+81875000000+85625000000+91875000000
558+92812500000+93750000000+94375000000+94375000000+94687500000+94687500000
526+94375000000+94375000000+94062500000+94062500000+93750000000+93750000000
495+94062500000+94062500000+94062500000+93750000000+93125000000+92187500000
463+91250000000+89687500000+88125000000+86250000000+84687500000+82500000000
432+80312500000+78750000000+77812500000+76875000000+76250000000+75937500000
400+75937500000
##END=
