##TITLE=2-benzamido-3-(p-methoxyphenyl)propionic-2,3-d2 acid
##JCAMP-DX=4.24
##DATA TYPE=INFRARED SPECTRUM
##DATE=10/06/2025
##SAMPLING PROCEDURE=ATR
##ORIGIN=SDBS
##XUNITS=1/CM
##YUNITS=TRANSMITTANCE
##RESOLUTION=5.2631578947368425
##FIRSTX=4000.0
##LASTX=400.0
##DELTAX=-5.2631578947368425
##MAXY=94.6875
##MINY=0.0
##XFACTOR=1
##YFACTOR=1
##NPOINTS=685
##FIRSTY=0.0
##XYDATA=(X++(Y..Y))
4000+0+72187500000+72187500000+72187500000+72187500000+72500000000
3968+72500000000+73125000000+73125000000+73125000000+73125000000+73125000000
3937+73125000000+73437500000+73125000000+73125000000+73125000000+73125000000
3905+73750000000+73750000000+73437500000+73437500000+73437500000+73750000000
3874+74062500000+74062500000+74375000000+74062500000+74062500000+73750000000
3842+73750000000+73750000000+74062500000+74375000000+74375000000+74375000000
3811+74375000000+74687500000+74687500000+75000000000+75000000000+75000000000
3779+75000000000+75000000000+75000000000+75000000000+74687500000+74687500000
3747+74687500000+74687500000+74687500000+74687500000+74687500000+74687500000
3716+75000000000+75000000000+75000000000+75000000000+75000000000+75000000000
3684+75000000000+75000000000+74687500000+74687500000+74375000000+74375000000
3653+74375000000+74375000000+74375000000+74375000000+74375000000+74375000000
3621+74687500000+74687500000+75000000000+75000000000+74375000000+67187500000
3589+39375000000+50312500000+65625000000+69375000000+71250000000+72187500000
3558+72812500000+72812500000+72812500000+72812500000+72500000000+72500000000
3526+72187500000+72187500000+72187500000+72187500000+71562500000+71250000000
3495+70625000000+69687500000+68437500000+67500000000+67187500000+66875000000
3463+66875000000+66875000000+66875000000+66562500000+66250000000+65937500000
3432+65625000000+65000000000+64687500000+64375000000+64062500000+63125000000
3400+62187500000+61875000000+61250000000+60937500000+60312500000+59687500000
3368+58437500000+57500000000+56562500000+55937500000+55625000000+55312500000
3337+54062500000+53125000000+52187500000+51875000000+50312500000+47812500000
3305+45625000000+42812500000+37812500000+30625000000+20625000000+13437500000
3274+11250000000+11562500000+9375000000+5625000000+4687500000+5000000000
3242+8125000000+11562500000+15312500000+18750000000+21562500000+18750000000
3211+16250000000+13750000000+14062500000+21875000000+35000000000+44062500000
3179+50937500000+54687500000+57187500000+58750000000+60937500000+62187500000
3147+63437500000+64375000000+65000000000+65625000000+65937500000+65937500000
3116+66250000000+66562500000+66875000000+67187500000+67500000000+67500000000
3084+67500000000+67812500000+68125000000+68437500000+68750000000+68437500000
3053+68125000000+68125000000+68125000000+68125000000+68437500000+69062500000
3021+69687500000+70312500000+70937500000+71250000000+71875000000+72187500000
2989+72187500000+72500000000+72500000000+72500000000+72812500000+73125000000
2958+73750000000+73750000000+74062500000+74375000000+74687500000+74687500000
2926+75000000000+75312500000+75625000000+75937500000+76250000000+76875000000
2895+77187500000+77500000000+77812500000+78125000000+78437500000+78437500000
2863+78750000000+79062500000+79375000000+79375000000+79687500000+79687500000
2832+80000000000+80000000000+80000000000+80312500000+80312500000+80312500000
2800+80312500000+80312500000+80312500000+80625000000+80625000000+80937500000
2768+80937500000+80937500000+81250000000+81250000000+81250000000+81250000000
2737+81250000000+81562500000+81562500000+81875000000+82187500000+82500000000
2705+82500000000+82500000000+82500000000+82500000000+82812500000+82812500000
2674+82812500000+82812500000+82812500000+82812500000+82500000000+82500000000
2642+82812500000+83125000000+83437500000+83437500000+83750000000+83750000000
2611+83750000000+83750000000+83750000000+83750000000+83750000000+83750000000
2579+83750000000+83750000000+84062500000+84062500000+84375000000+84375000000
2547+84375000000+84687500000+84687500000+84687500000+84687500000+84687500000
2516+84687500000+84687500000+84687500000+84687500000+85000000000+85000000000
2484+85000000000+85312500000+85312500000+85312500000+85625000000+85625000000
2453+85625000000+85625000000+85625000000+85625000000+85625000000+85625000000
2421+85625000000+85625000000+85625000000+85937500000+85625000000+85625000000
2389+85625000000+85625000000+85625000000+85625000000+85625000000+85625000000
2358+85625000000+85937500000+85937500000+85937500000+85937500000+85937500000
2326+85625000000+85625000000+85625000000+85625000000+85312500000+85312500000
2295+85000000000+84687500000+84375000000+83750000000+83437500000+81875000000
2263+79062500000+74062500000+66250000000+54375000000+52187500000+52500000000
2232+47812500000+43125000000+41874999999+44062500000+53125000000+59062500000
2200+63437500000+65937500000+67187500000+68125000000+69687500000+70937500000
2168+73125000000+75000000000+76875000000+78125000000+78125000000+76875000000
2137+74062500000+68125000000+62187500000+62187500000+65625000000+61250000000
2105+52812500000+37187499999+27187500000+27187500000+30625000000+32500000000
2074+42812500000+45312500000+50937500000+52187500000+60000000000+66875000000
2042+70937500000+69062500000+50000000000+45312500000+46875000000+55625000000
2011+63750000000+67500000000+70000000000+71875000000+72812500000+72812500000
1979+71562500000+69062500000+65000000000+57812500000+46562499999+35625000000
1947+35312500000+37812500000+34062500000+33750000000+39687500000+49375000000
1916+57187500000+59687500000+44375000000+39687500000+41562500000+48750000000
1884+51875000000+45625000000+37500000000+34687500000+35937500000+38437500000
1853+38749999999+43750000000+46875000000+48750000000+52500000000+57500000000
1821+61562500000+64687500000+64375000000+62812500000+62187500000+61875000000
1789+60625000000+57500000000+56562500000+57500000000+61250000000+62812500000
1758+58750000000+53750000000+51875000000+53750000000+61562500000+62812500000
1726+65312500000+70000000000+70937500000+70937500000+71250000000+71562500000
1695+71875000000+72187500000+72187500000+71250000000+69375000000+70625000000
1663+70937500000+69687500000+65000000000+58750000000+60000000000+60000000000
1632+57187500000+57500000000+61562500000+60625000000+57187500000+58437500000
1600+61250000000+62500000000+63437500000+56875000000+52812500000+52812500000
1568+49062500000+47187500000+45937500000+46250000000+45312500000+45312500000
1537+49375000000+57187500000+62500000000+62500000000+55000000000+54687500000
1505+59375000000+62187500000+65000000000+60937500000+60937500000+61250000000
1474+54687500000+50000000000+56875000000+68125000000+69687500000+66562500000
1442+66562500000+68125000000+71250000000+73750000000+75000000000+75937500000
1411+76562500000+76875000000+76562500000+72187500000+62500000000+59687500000
1379+64062500000+69375000000+67187500000+67187500000+73750000000+76875000000
1347+78125000000+77812500000+77500000000+77187500000+77500000000+78437500000
1316+80312500000+80937500000+82187500000+82812500000+82500000000+81562500000
1284+78125000000+65937500000+57500000000+57812500000+63750000000+71562500000
1253+76250000000+78125000000+79375000000+79687500000+79062500000+77187500000
1221+82187500000+82812500000+82500000000+81875000000+81250000000+80937500000
1189+79375000000+73750000000+76562500000+79687500000+81250000000+82187500000
1158+82812500000+82500000000+82500000000+82187500000+82187500000+81875000000
1126+81875000000+81562500000+81562500000+81562500000+81250000000+81250000000
1095+80937500000+80312500000+76562500000+73125000000+74062500000+78750000000
1063+77500000000+73125000000+71875000000+72187500000+70937500000+69375000000
1032+70312500000+74062500000+67500000000+65312500000+70000000000+76250000000
1000+74062500000+68437500000+67187500000+73750000000+78125000000+80000000000
968+80937500000+80000000000+69375000000+69687500000+77500000000+69375000000
937+69687500000+81562500000+85312500000+85625000000+85625000000+84687500000
905+80625000000+77812500000+78750000000+83437500000+85937500000+86875000000
874+86562500000+85937500000+85000000000+84062500000+82187500000+80625000000
842+77500000000+65000000000+47500000000+41874999999+49687499999+72500000000
811+79375000000+79062500000+66250000000+66562500000+75937500000+77187500000
779+84062500000+85937500000+82500000000+80312500000+83125000000+88125000000
747+89375000000+90000000000+90312500000+90937500000+91250000000+91250000000
716+90625000000+89375000000+87812500000+85312500000+83125000000+79375000000
684+77500000000+78125000000+80937500000+81875000000+82187500000+82500000000
653+83125000000+82812500000+82500000000+82187500000+81562500000+80312500000
621+76875000000+70937500000+66562500000+64687500000+63750000000+63750000000
589+66562500000+72812500000+78437500000+82187500000+84375000000+85625000000
558+86250000000+85937500000+85312500000+85000000000+85000000000+85000000000
526+85625000000+86250000000+86562500000+86562500000+86562500000+86875000000
495+87500000000+88437500000+89687500000+90625000000+91875000000+93437500000
463+94375000000+94687500000+93750000000+91875000000+89687500000+86562500000
432+82500000000+78437500000+74375000000+70312500000+66875000000+64687500000
400+63437500000
##END=
