##TITLE=2-bromobutane
##JCAMP-DX=4.24
##DATA TYPE=INFRARED SPECTRUM
##DATE=10/06/2025
##SAMPLING PROCEDURE=ATR
##ORIGIN=SDBS
##XUNITS=1/CM
##YUNITS=TRANSMITTANCE
##RESOLUTION=5.2631578947368425
##FIRSTX=4000.0
##LASTX=400.0
##DELTAX=-5.2631578947368425
##MAXY=95.0
##MINY=0.0
##XFACTOR=1
##YFACTOR=1
##NPOINTS=685
##FIRSTY=0.0
##XYDATA=(X++(Y..Y))
4000+0+91875000000+91875000000+91875000000+92187500000+92187500000
3968+92187500000+92187500000+92500000000+92500000000+92812500000+92812500000
3937+92812500000+92812500000+92812500000+93125000000+93125000000+93125000000
3905+93125000000+93437500000+93437500000+93437500000+93750000000+93750000000
3874+93750000000+93750000000+93750000000+94062500000+94062500000+94062500000
3842+94062500000+94062500000+94062500000+94062500000+94062500000+94062500000
3811+94062500000+94062500000+94062500000+93750000000+93750000000+93750000000
3779+93750000000+93750000000+93750000000+93750000000+94062500000+94062500000
3747+94375000000+94375000000+94375000000+94375000000+94062500000+94062500000
3716+94062500000+94062500000+94062500000+94062500000+94062500000+94062500000
3684+94062500000+94375000000+94375000000+94062500000+94062500000+94062500000
3653+94062500000+94062500000+94062500000+94062500000+94062500000+94062500000
3621+94062500000+94062500000+94062500000+94062500000+94062500000+94062500000
3589+94062500000+94375000000+94375000000+94375000000+94375000000+94375000000
3558+94375000000+94375000000+94375000000+94062500000+94062500000+94062500000
3526+94062500000+94062500000+94062500000+93750000000+93437500000+93125000000
3495+92812500000+92500000000+92500000000+92500000000+92500000000+92187500000
3463+91562500000+91250000000+90937500000+90625000000+90625000000+90625000000
3432+90625000000+90937500000+90937500000+91250000000+91562500000+91875000000
3400+92187500000+92187500000+92187500000+91875000000+91250000000+90937500000
3368+90625000000+90625000000+90625000000+90625000000+90625000000+90000000000
3337+89062500000+88125000000+86250000000+83437500000+78125000000+69375000000
3305+47187500000+19375000000+11250000000+5312500000+4687500000+6250000000
3274+20312500000+27812500000+18750000000+19062500000+19062500000+19375000000
3242+29375000000+38437500000+40000000000+33750000000+25000000000+29062500000
3211+46562499999+59062500000+54687500000+53750000000+65625000000+75625000000
3179+79375000000+82812500000+86562500000+89062500000+90312500000+90625000000
3147+91250000000+91562500000+91250000000+89687500000+87812500000+86562500000
3116+87500000000+90312500000+91250000000+91250000000+91562500000+92500000000
3084+93125000000+93125000000+93125000000+93437500000+93437500000+93437500000
3053+93125000000+93125000000+93125000000+93437500000+93437500000+93437500000
3021+93125000000+92187500000+92187500000+92812500000+93437500000+93750000000
2989+94062500000+94062500000+93750000000+93750000000+93750000000+93437500000
2958+93437500000+93125000000+93125000000+93125000000+93437500000+93750000000
2926+93437500000+93125000000+93125000000+93125000000+93437500000+93750000000
2895+93437500000+92187500000+92187500000+93125000000+93437500000+93437500000
2863+93437500000+93437500000+93437500000+93437500000+93437500000+93437500000
2832+93750000000+93750000000+93750000000+94062500000+94062500000+94062500000
2800+93750000000+93750000000+93750000000+94062500000+94062500000+94062500000
2768+93125000000+93125000000+93125000000+93437500000+94062500000+94375000000
2737+94062500000+94062500000+94062500000+94062500000+94062500000+94375000000
2705+94375000000+94687500000+94687500000+94687500000+94687500000+94687500000
2674+94687500000+94687500000+94687500000+94687500000+94687500000+94687500000
2642+94687500000+94687500000+94687500000+95000000000+94687500000+94375000000
2611+94375000000+94062500000+94062500000+94062500000+94062500000+94062500000
2579+94062500000+94375000000+94375000000+94062500000+94062500000+94062500000
2547+94062500000+94062500000+94062500000+94062500000+94062500000+94062500000
2516+94062500000+94062500000+94062500000+94062500000+94062500000+94062500000
2484+94062500000+94062500000+94062500000+94062500000+94375000000+94375000000
2453+94375000000+94375000000+94375000000+94375000000+94375000000+94375000000
2421+94375000000+94062500000+94062500000+94062500000+94062500000+94062500000
2389+94062500000+94062500000+94062500000+94062500000+94062500000+94062500000
2358+94062500000+94062500000+94062500000+94062500000+94062500000+94062500000
2326+94062500000+94062500000+94375000000+94375000000+94375000000+94375000000
2295+94375000000+94062500000+94062500000+94062500000+94062500000+93750000000
2263+93750000000+93750000000+93750000000+93437500000+93437500000+93437500000
2232+93437500000+93437500000+93437500000+93125000000+93125000000+93125000000
2200+92812500000+92812500000+92500000000+92500000000+92187500000+92187500000
2168+92187500000+92187500000+92187500000+92187500000+92187500000+92500000000
2137+92500000000+92500000000+92500000000+92500000000+92812500000+92812500000
2105+92812500000+92812500000+93125000000+93125000000+93125000000+93125000000
2074+93125000000+92812500000+92812500000+92812500000+92500000000+92187500000
2042+92187500000+91875000000+91875000000+91562500000+91562500000+91562500000
2011+91562500000+91875000000+91875000000+91875000000+91875000000+91875000000
1979+91875000000+91875000000+91875000000+91562500000+91562500000+91250000000
1947+90937500000+90625000000+90312500000+89687500000+89062500000+88125000000
1916+87187500000+85937500000+84062500000+81250000000+78437500000+73125000000
1884+65000000000+53750000000+36250000000+28125000000+22187500000+19375000000
1853+20312500000+27500000000+28125000000+28750000000+35312500000+48750000000
1821+56562500000+65625000000+72812500000+76250000000+77812500000+78125000000
1789+78750000000+80000000000+79062500000+76562500000+70000000000+53750000000
1758+27812500000+20625000000+21562500000+40937500000+66250000000+75625000000
1726+77187500000+77187500000+82500000000+84062500000+83125000000+84375000000
1695+86875000000+88125000000+87812500000+85625000000+80312500000+72500000000
1663+71562500000+77187500000+81562500000+81250000000+76562500000+59062500000
1632+45312500000+49687499999+63125000000+46562499999+29375000000+29687500000
1600+44999999999+66562500000+75625000000+80312500000+83125000000+84687500000
1568+85625000000+85312500000+84375000000+82812500000+80000000000+75937500000
1537+67812500000+53750000000+32812500000+16875000000+12187500000+12500000000
1505+22812500000+42500000000+58125000000+70312500000+77500000000+81562500000
1474+83750000000+84375000000+82500000000+79062500000+70937500000+54062500000
1442+28437500000+25312500000+27500000000+31250000000+42812500000+58125000000
1411+70000000000+75625000000+75625000000+59375000000+59062500000+73125000000
1379+80625000000+80312500000+84062500000+88750000000+90625000000+91562500000
1347+92187500000+92187500000+92187500000+91875000000+90937500000+89062500000
1316+85625000000+79062500000+78437500000+72812500000+63437500000+65312500000
1284+80312500000+87187500000+89375000000+90000000000+88125000000+82812500000
1253+82500000000+82500000000+74687500000+70000000000+71562500000+63437500000
1221+46562499999+44687500000+53750000000+69375000000+72187500000+69375000000
1189+76250000000+77812500000+71250000000+59687500000+48124999999+47812500000
1158+51562500000+52500000000+69687500000+80937500000+86562500000+89375000000
1126+90937500000+91562500000+91875000000+92500000000+92812500000+93125000000
1095+93125000000+93437500000+93437500000+93750000000+93750000000+93750000000
1063+93437500000+93437500000+93125000000+92812500000+92187500000+90937500000
1032+89375000000+86250000000+80625000000+65625000000+41250000000+40625000000
1000+57812500000+75000000000+81875000000+72812500000+64375000000+65937500000
968+79687500000+84687500000+84375000000+81875000000+75312500000+62812500000
937+40625000000+34062500000+38125000000+58437500000+74687500000+83750000000
905+87187500000+89062500000+90000000000+90937500000+91875000000+92500000000
874+92812500000+93125000000+93437500000+93437500000+93437500000+93750000000
842+93750000000+93750000000+94062500000+94062500000+94062500000+94062500000
811+94062500000+94062500000+94062500000+94062500000+93750000000+93750000000
779+93750000000+93750000000+93437500000+93437500000+93437500000+93437500000
747+93125000000+93125000000+92812500000+92187500000+91250000000+89062500000
716+86562500000+83750000000+78125000000+71250000000+65000000000+62500000000
684+62500000000+65937500000+73750000000+80625000000+83750000000+83750000000
653+77187500000+69687500000+69062500000+76250000000+85312500000+88437500000
621+89375000000+89375000000+88125000000+86562500000+83125000000+75625000000
589+60312500000+42812500000+36562500000+37187499999+50625000000+67812500000
558+78125000000+84375000000+87500000000+89062500000+89687500000+89375000000
526+87500000000+84062500000+74687500000+71250000000+72500000000+79687500000
495+80000000000+81250000000+83125000000+85000000000+86250000000+87187500000
463+88125000000+88750000000+89375000000+90000000000+90625000000+90937500000
432+90937500000+90312500000+89687500000+88750000000+87812500000+87187500000
400+87187500000
##END=
