##TITLE=2-bromopyrimidine
##JCAMP-DX=4.24
##DATA TYPE=INFRARED SPECTRUM
##DATE=10/06/2025
##SAMPLING PROCEDURE=ATR
##ORIGIN=SDBS
##XUNITS=1/CM
##YUNITS=TRANSMITTANCE
##RESOLUTION=5.2631578947368425
##FIRSTX=4000.0
##LASTX=400.0
##DELTAX=-5.2631578947368425
##MAXY=94.6875
##MINY=0.0
##XFACTOR=1
##YFACTOR=1
##NPOINTS=685
##FIRSTY=0.0
##XYDATA=(X++(Y..Y))
4000+0+78125000000+78125000000+78125000000+78125000000+77812500000
3968+77187500000+77187500000+77187500000+77187500000+76875000000+76562500000
3937+76562500000+76875000000+76562500000+76250000000+76250000000+75937500000
3905+75937500000+75937500000+75937500000+75937500000+75625000000+75312500000
3874+75312500000+75312500000+75312500000+75000000000+74687500000+74687500000
3842+74687500000+75000000000+75000000000+75000000000+75000000000+75000000000
3811+75000000000+74687500000+74375000000+74375000000+74375000000+74375000000
3779+74687500000+75000000000+75000000000+75000000000+74687500000+74375000000
3747+73750000000+73750000000+73750000000+73750000000+74062500000+74375000000
3716+74375000000+74062500000+74062500000+74062500000+74062500000+74375000000
3684+74375000000+74375000000+74375000000+74062500000+74062500000+73750000000
3653+73750000000+73750000000+73750000000+73750000000+73750000000+73437500000
3621+73437500000+73437500000+73125000000+73125000000+73125000000+73125000000
3589+73125000000+73125000000+73125000000+72812500000+72812500000+72812500000
3558+72812500000+72812500000+72812500000+72812500000+72812500000+72500000000
3526+72500000000+72500000000+72500000000+72187500000+72187500000+71875000000
3495+71562500000+71250000000+70625000000+70312500000+70000000000+69687500000
3463+70000000000+70000000000+70312500000+70312500000+70000000000+69687500000
3432+69062500000+68750000000+68750000000+68750000000+68750000000+68125000000
3400+66875000000+59687500000+54687500000+52812500000+57812500000+62500000000
3368+64687500000+61875000000+42812500000+43125000000+38437500000+44687500000
3337+51250000000+52500000000+53437500000+55312500000+55000000000+54062500000
3305+51250000000+47500000000+39687500000+29062500000+18437500000+17187500000
3274+17187500000+18750000000+15937500000+13750000000+13750000000+14687500000
3242+20000000000+25000000000+29375000000+34062500000+34375000000+31562500000
3211+27500000000+24687500000+25625000000+39375000000+59375000000+69062500000
3179+70937500000+73437500000+76875000000+77500000000+78437500000+79062500000
3147+79375000000+79375000000+79062500000+78750000000+78125000000+77500000000
3116+76875000000+75937500000+75625000000+75312500000+75312500000+75937500000
3084+76562500000+77187500000+77812500000+78125000000+77500000000+77187500000
3053+76562500000+77187500000+77500000000+77812500000+78125000000+77812500000
3021+77812500000+77812500000+77812500000+78437500000+79375000000+79687500000
2989+79375000000+75625000000+75625000000+75937500000+75937500000+76875000000
2958+79062500000+79375000000+80312500000+80625000000+80937500000+80625000000
2926+80000000000+79687500000+79375000000+79375000000+79375000000+79687500000
2895+80000000000+80312500000+80625000000+80625000000+80312500000+80312500000
2863+80312500000+80625000000+80625000000+80625000000+80625000000+80625000000
2832+80937500000+81250000000+80937500000+80937500000+80937500000+80937500000
2800+81250000000+80937500000+79062500000+78750000000+79375000000+80625000000
2768+81250000000+82187500000+82187500000+82187500000+81875000000+81562500000
2737+81250000000+81250000000+81562500000+82187500000+83125000000+82812500000
2705+82812500000+83125000000+83437500000+83750000000+83750000000+84062500000
2674+84375000000+84687500000+85000000000+85000000000+85000000000+85312500000
2642+85312500000+85000000000+84375000000+83750000000+83125000000+80937500000
2611+80625000000+80937500000+81250000000+81562500000+82187500000+82500000000
2579+83125000000+83750000000+84375000000+85000000000+85312500000+85937500000
2547+86250000000+86562500000+86875000000+86875000000+87187500000+87500000000
2516+87500000000+87500000000+87500000000+87500000000+87500000000+87500000000
2484+87812500000+87812500000+87812500000+87500000000+87187500000+87187500000
2453+86875000000+86875000000+86875000000+86875000000+87187500000+87500000000
2421+87812500000+88125000000+88125000000+88125000000+87500000000+87187500000
2389+86250000000+85625000000+85000000000+85000000000+85000000000+85625000000
2358+86250000000+86875000000+87500000000+88125000000+88125000000+88125000000
2326+88125000000+88437500000+88437500000+88437500000+88437500000+88750000000
2295+89062500000+89687500000+90000000000+90625000000+90937500000+90937500000
2263+91250000000+91562500000+91562500000+91250000000+90937500000+90937500000
2232+90937500000+90937500000+90312500000+90312500000+91250000000+91250000000
2200+89687500000+88437500000+88125000000+89375000000+91875000000+92812500000
2168+92812500000+92812500000+92500000000+92187500000+91562500000+91250000000
2137+90625000000+90625000000+90625000000+91250000000+91562500000+91875000000
2105+92187500000+92500000000+92812500000+92500000000+91875000000+85625000000
2074+80000000000+78125000000+83437500000+83437500000+80937500000+80937500000
2042+82500000000+84062500000+80312500000+72812500000+68125000000+56875000000
2011+31250000000+9375000000+9375000000+9062500000+9062500000+10312500000
1979+15000000000+25625000000+35937500000+37187499999+46250000000+50000000000
1947+52500000000+58750000000+64687500000+67500000000+70625000000+72812500000
1916+74375000000+75625000000+76250000000+75937500000+75000000000+72187500000
1884+66875000000+58750000000+51562500000+50312500000+50312500000+52187500000
1853+55000000000+54062500000+50000000000+51562500000+58437500000+54375000000
1821+60625000000+71562500000+77500000000+80625000000+82500000000+80000000000
1789+73437500000+63125000000+52812500000+46250000000+36562500000+19687500000
1758+6875000000+5000000000+4687500000+4687500000+5937500000+7500000000
1726+12500000000+20000000000+28437500000+35625000000+40937500000+45937500000
1695+50312500000+53750000000+56250000000+59375000000+61562500000+64062500000
1663+65312500000+66562500000+67812500000+69375000000+70625000000+71875000000
1632+73437500000+73750000000+73750000000+75312500000+75625000000+47500000000
1600+48124999999+32500000000+59375000000+72187500000+75000000000+75937500000
1568+74375000000+75937500000+79687500000+81250000000+82187500000+82500000000
1537+82500000000+83125000000+84687500000+85937500000+86562500000+86875000000
1505+87187500000+87187500000+87187500000+88125000000+89062500000+89062500000
1474+87812500000+82500000000+79062500000+77812500000+60312500000+28437500000
1442+9062500000+7812500000+10000000000+14687500000+14062500000+14687500000
1411+20625000000+31875000000+42187500000+45937500000+49375000000+57812500000
1379+62812500000+65625000000+59375000000+55312500000+60312500000+67187500000
1347+70000000000+71562500000+72812500000+73750000000+69375000000+67812500000
1316+72500000000+72500000000+71875000000+71875000000+72500000000+74062500000
1284+76250000000+78125000000+79375000000+79687500000+80625000000+81562500000
1253+81875000000+81562500000+81562500000+81250000000+81250000000+81250000000
1221+81875000000+82500000000+57187500000+55937500000+70000000000+81250000000
1189+82187500000+82812500000+83750000000+84375000000+85000000000+85312500000
1158+85312500000+85000000000+84687500000+84375000000+83750000000+83750000000
1126+83750000000+83750000000+83750000000+83750000000+84062500000+84375000000
1095+84687500000+85000000000+85312500000+85312500000+85312500000+85000000000
1063+84687500000+84375000000+84062500000+83750000000+83437500000+82812500000
1032+82500000000+81875000000+81250000000+79687500000+77500000000+69687500000
1000+55000000000+36562500000+35000000000+30625000000+31562500000+53750000000
968+72500000000+79687500000+79375000000+76875000000+76875000000+78750000000
937+80625000000+83125000000+84375000000+85625000000+85937500000+84375000000
905+80625000000+38437500000+17812500000+30312500000+77812500000+78437500000
874+87812500000+89687500000+63750000000+54687500000+15625000000+14062500000
842+50312500000+72187500000+79687500000+85000000000+86875000000+86562500000
811+86562500000+87500000000+89375000000+90937500000+91562500000+91875000000
779+92187500000+92187500000+92187500000+92187500000+91875000000+91562500000
747+91250000000+91250000000+90625000000+84375000000+81562500000+89062500000
716+91875000000+16875000000+13125000000+51250000000+71250000000+83125000000
684+86250000000+86562500000+87187500000+88125000000+88437500000+88750000000
653+88750000000+89062500000+89375000000+89687500000+90312500000+90937500000
621+91562500000+92187500000+92500000000+92812500000+93125000000+93437500000
589+93750000000+94062500000+94375000000+94687500000+94687500000+94375000000
558+94062500000+93750000000+93437500000+93437500000+93437500000+93437500000
526+93750000000+94062500000+94062500000+94062500000+93437500000+92812500000
495+92187500000+91562500000+90937500000+90625000000+90312500000+90000000000
463+89687500000+89687500000+90000000000+90312500000+90625000000+90937500000
432+89375000000+86875000000+84687500000+81562500000+78750000000+77187500000
400+76562500000
##END=
