##TITLE=2-bromotricyclo[3.3.1.1[3,7]]decane
##JCAMP-DX=4.24
##DATA TYPE=INFRARED SPECTRUM
##DATE=10/06/2025
##SAMPLING PROCEDURE=ATR
##ORIGIN=SDBS
##XUNITS=1/CM
##YUNITS=TRANSMITTANCE
##RESOLUTION=5.2631578947368425
##FIRSTX=4000.0
##LASTX=400.0
##DELTAX=-5.2631578947368425
##MAXY=95.0
##MINY=0.0
##XFACTOR=1
##YFACTOR=1
##NPOINTS=685
##FIRSTY=0.0
##XYDATA=(X++(Y..Y))
4000+0+94062500000+94062500000+94062500000+94062500000+93750000000
3968+93437500000+93437500000+93437500000+93437500000+93750000000+93750000000
3937+93437500000+93125000000+93125000000+93125000000+92812500000+92812500000
3905+92812500000+92812500000+92812500000+92500000000+92500000000+92187500000
3874+92187500000+92187500000+92187500000+92187500000+92187500000+92187500000
3842+91875000000+91875000000+91875000000+91562500000+91562500000+91562500000
3811+91562500000+91562500000+91562500000+91562500000+91562500000+91250000000
3779+91250000000+91250000000+91250000000+90937500000+90937500000+91250000000
3747+91250000000+91250000000+90937500000+90937500000+90937500000+90937500000
3716+90937500000+90937500000+90937500000+90625000000+90625000000+90625000000
3684+90625000000+90625000000+90625000000+90312500000+90312500000+90000000000
3653+90000000000+90000000000+90000000000+89687500000+89375000000+89375000000
3621+89062500000+88750000000+88750000000+88437500000+88437500000+88125000000
3589+87812500000+87812500000+87500000000+87187500000+86875000000+86562500000
3558+86562500000+86562500000+86562500000+86562500000+86250000000+86250000000
3526+86250000000+85937500000+85937500000+85625000000+85312500000+85000000000
3495+85000000000+84687500000+84687500000+84375000000+84375000000+84375000000
3463+84375000000+84687500000+84687500000+85000000000+85000000000+85312500000
3432+85625000000+85625000000+85937500000+86562500000+86562500000+87500000000
3400+87187500000+87812500000+88437500000+88750000000+89375000000+90000000000
3368+90312500000+90625000000+90625000000+90625000000+90625000000+89375000000
3337+90312500000+89687500000+89062500000+88750000000+87187500000+85625000000
3305+81875000000+77187500000+68437500000+56250000000+38437500000+26875000000
3274+20625000000+16875000000+9687500000+5312500000+5000000000+4687500000
3242+5000000000+7187500000+12500000000+21250000000+32187500000+29687500000
3211+20000000000+12812500000+13125000000+29687500000+55312500000+70625000000
3179+77187500000+80625000000+83750000000+85000000000+87187500000+88750000000
3147+89687500000+90000000000+90312500000+90312500000+90000000000+90000000000
3116+89687500000+90312500000+90625000000+90625000000+89062500000+89062500000
3084+87500000000+86875000000+86250000000+84375000000+86562500000+89062500000
3053+88750000000+89062500000+90312500000+90625000000+91250000000+91250000000
3021+91562500000+91562500000+91562500000+91875000000+92187500000+92500000000
2989+92812500000+92812500000+93125000000+93125000000+93125000000+93125000000
2958+93125000000+93125000000+93125000000+93125000000+93437500000+93437500000
2926+93437500000+93125000000+93125000000+92812500000+92812500000+92812500000
2895+93125000000+93125000000+93437500000+93437500000+93750000000+93750000000
2863+93750000000+93437500000+93437500000+93437500000+93437500000+93125000000
2832+93125000000+93125000000+93125000000+93437500000+93750000000+93750000000
2800+93750000000+93750000000+93750000000+93750000000+93437500000+93437500000
2768+93437500000+93437500000+93750000000+93750000000+94062500000+94062500000
2737+94062500000+94062500000+94062500000+94062500000+94062500000+93750000000
2705+93750000000+93750000000+93750000000+93750000000+93750000000+93750000000
2674+93750000000+94062500000+94062500000+94062500000+94062500000+94062500000
2642+94062500000+94375000000+94375000000+93750000000+93125000000+94062500000
2611+94062500000+94062500000+94062500000+94062500000+94062500000+94375000000
2579+94375000000+94375000000+94375000000+94375000000+94375000000+94375000000
2547+94375000000+94375000000+94375000000+94375000000+94375000000+94375000000
2516+94375000000+94375000000+94375000000+94375000000+94375000000+94062500000
2484+94375000000+94375000000+94375000000+94375000000+94375000000+94375000000
2453+94375000000+94375000000+94375000000+94375000000+94375000000+94375000000
2421+94375000000+94375000000+94375000000+94375000000+94375000000+94375000000
2389+94375000000+94375000000+94375000000+94375000000+94375000000+94375000000
2358+94375000000+94375000000+94062500000+94062500000+94062500000+94062500000
2326+94062500000+94062500000+94062500000+94062500000+94062500000+94062500000
2295+94062500000+93750000000+93750000000+93750000000+93750000000+93750000000
2263+93750000000+93750000000+93750000000+93750000000+93750000000+93750000000
2232+93750000000+93437500000+93437500000+93437500000+93125000000+93125000000
2200+93125000000+93125000000+93125000000+93125000000+93125000000+93125000000
2168+93125000000+93125000000+93125000000+93125000000+93125000000+93125000000
2137+93125000000+93125000000+93125000000+93125000000+93125000000+93125000000
2105+93125000000+93437500000+93437500000+93437500000+93750000000+93750000000
2074+94062500000+94062500000+94375000000+94375000000+94687500000+94687500000
2042+94687500000+94375000000+94375000000+94062500000+94062500000+93750000000
2011+93750000000+93437500000+93437500000+93125000000+93125000000+92812500000
1979+92812500000+92812500000+92812500000+92500000000+92500000000+92500000000
1947+92500000000+92187500000+91875000000+91562500000+91562500000+91250000000
1916+90937500000+90625000000+90000000000+88750000000+87187500000+83437500000
1884+76250000000+64062500000+53437500000+53750000000+54375000000+52187500000
1853+40937500000+39062500000+47187500000+63750000000+69375000000+77187500000
1821+83125000000+86875000000+87812500000+89375000000+90000000000+90312500000
1789+90625000000+90625000000+90000000000+89687500000+88125000000+83750000000
1758+80000000000+75312500000+73125000000+74062500000+79687500000+79375000000
1726+81875000000+75937500000+69687500000+68125000000+81875000000+77500000000
1695+81875000000+88437500000+89375000000+89062500000+87187500000+86875000000
1663+86562500000+88125000000+88437500000+88750000000+85625000000+84687500000
1632+88125000000+88125000000+82812500000+55937500000+55937500000+75625000000
1600+85937500000+89687500000+90312500000+90625000000+90937500000+89687500000
1568+89062500000+89375000000+90625000000+91562500000+91562500000+91250000000
1537+88750000000+80312500000+79062500000+80000000000+87187500000+90000000000
1505+87500000000+81562500000+72812500000+63125000000+63125000000+74375000000
1474+85000000000+87500000000+87500000000+90625000000+90625000000+91562500000
1442+91562500000+91875000000+91875000000+91875000000+91875000000+91875000000
1411+91250000000+91562500000+91250000000+90312500000+89375000000+88125000000
1379+88125000000+88437500000+74687500000+60937500000+75937500000+87500000000
1347+90000000000+90625000000+90937500000+91250000000+91562500000+90937500000
1316+86250000000+84687500000+86875000000+90625000000+91875000000+90625000000
1284+84687500000+78437500000+88125000000+89062500000+90312500000+91562500000
1253+92187500000+92187500000+92500000000+92500000000+92812500000+92812500000
1221+93125000000+93125000000+92812500000+92187500000+89375000000+84062500000
1189+85937500000+89062500000+88125000000+73437500000+62187500000+69687500000
1158+79687500000+84375000000+84375000000+89687500000+91562500000+92187500000
1126+92500000000+92500000000+92812500000+92500000000+92187500000+91250000000
1095+88750000000+64062500000+54375000000+76562500000+88750000000+90625000000
1063+91250000000+91562500000+91875000000+92187500000+92500000000+92812500000
1032+92812500000+92812500000+93125000000+93125000000+93125000000+93125000000
1000+93125000000+93125000000+93125000000+93125000000+92812500000+91562500000
968+86875000000+76875000000+74687500000+87812500000+84375000000+85937500000
937+92187500000+92812500000+93125000000+92812500000+92500000000+91562500000
905+89375000000+71250000000+70937500000+87187500000+89375000000+89687500000
874+85625000000+68437500000+35937500000+36562500000+65312500000+83437500000
842+85312500000+85625000000+88125000000+89375000000+91562500000+93125000000
811+93437500000+93437500000+93750000000+94062500000+94062500000+94062500000
779+94062500000+94062500000+94375000000+94375000000+93125000000+91875000000
747+78750000000+65937500000+86875000000+91562500000+92500000000+93437500000
716+92812500000+92500000000+93750000000+93125000000+91875000000+87812500000
684+76250000000+88750000000+94062500000+94687500000+94687500000+94687500000
653+94687500000+94375000000+94062500000+94062500000+94062500000+94062500000
621+94062500000+94062500000+94062500000+94062500000+94375000000+94375000000
589+94687500000+94687500000+94687500000+95000000000+94687500000+94687500000
558+94687500000+94375000000+94062500000+94062500000+93750000000+93125000000
526+92812500000+92812500000+92500000000+92187500000+92187500000+92187500000
495+91875000000+91875000000+91875000000+91562500000+90937500000+90312500000
463+89687500000+89062500000+87812500000+86250000000+84375000000+81562500000
432+78750000000+76875000000+75625000000+74687500000+74062500000+73750000000
400+73437500000
##END=
