##TITLE=2-bromo-2-methylpropane
##JCAMP-DX=4.24
##DATA TYPE=INFRARED SPECTRUM
##DATE=10/06/2025
##SAMPLING PROCEDURE=ATR
##ORIGIN=SDBS
##XUNITS=1/CM
##YUNITS=TRANSMITTANCE
##RESOLUTION=5.2631578947368425
##FIRSTX=4000.0
##LASTX=400.0
##DELTAX=-5.2631578947368425
##MAXY=95.0
##MINY=0.0
##XFACTOR=1
##YFACTOR=1
##NPOINTS=685
##FIRSTY=0.0
##XYDATA=(X++(Y..Y))
4000+0+93125000000+93437500000+93750000000+94062500000+94062500000
3968+93750000000+93750000000+93750000000+93750000000+93750000000+93750000000
3937+93750000000+93750000000+93750000000+94062500000+94062500000+94062500000
3905+94375000000+94375000000+94375000000+94375000000+94375000000+94375000000
3874+94375000000+94375000000+94375000000+94375000000+94375000000+94375000000
3842+94375000000+94687500000+94687500000+94687500000+94687500000+95000000000
3811+95000000000+94687500000+94687500000+94687500000+94687500000+94687500000
3779+94687500000+94687500000+94687500000+94687500000+94687500000+94687500000
3747+94687500000+94687500000+94375000000+94375000000+94375000000+94062500000
3716+93750000000+93750000000+93750000000+93750000000+93750000000+94062500000
3684+94062500000+94062500000+94062500000+94062500000+93750000000+93437500000
3653+93125000000+93125000000+93125000000+93125000000+93125000000+93437500000
3621+93437500000+93437500000+93437500000+93437500000+93437500000+93750000000
3589+93750000000+93437500000+93125000000+92812500000+92812500000+92812500000
3558+92812500000+93437500000+93437500000+93750000000+93750000000+93750000000
3526+93750000000+93750000000+93750000000+93437500000+93125000000+92812500000
3495+92187500000+91875000000+91250000000+91250000000+91250000000+91250000000
3463+91562500000+91562500000+91562500000+91875000000+91875000000+92187500000
3432+92500000000+92812500000+93125000000+93437500000+93437500000+93750000000
3400+93750000000+93750000000+94062500000+94062500000+94062500000+94062500000
3368+94062500000+94062500000+93750000000+93750000000+93437500000+93125000000
3337+92812500000+92187500000+90937500000+89062500000+85000000000+78125000000
3305+58125000000+24062500000+19062500000+27187500000+23125000000+24687500000
3274+46250000000+48124999999+47500000000+51250000000+37500000000+38125000000
3242+50937500000+49687499999+50625000000+54062500000+59375000000+65312500000
3211+66250000000+66562500000+75000000000+81562500000+87187500000+87187500000
3179+87500000000+89375000000+90937500000+91562500000+91562500000+90625000000
3147+92500000000+93437500000+92500000000+92500000000+93125000000+91562500000
3116+88437500000+88750000000+92812500000+93125000000+92812500000+92500000000
3084+92812500000+93125000000+93437500000+93437500000+93750000000+94062500000
3053+93125000000+92187500000+93125000000+93437500000+93125000000+93125000000
3021+93750000000+94062500000+94375000000+94375000000+94375000000+94687500000
2989+94687500000+94687500000+94687500000+94687500000+94687500000+94687500000
2958+94687500000+94375000000+94375000000+94375000000+94375000000+94375000000
2926+94375000000+94375000000+94375000000+94062500000+94062500000+93750000000
2895+93437500000+92187500000+92187500000+93437500000+93437500000+93750000000
2863+93750000000+93750000000+93750000000+93750000000+94062500000+94062500000
2832+94062500000+94062500000+92812500000+92500000000+92812500000+93125000000
2800+94062500000+94375000000+94687500000+94687500000+94687500000+94687500000
2768+94687500000+94687500000+94687500000+94375000000+94062500000+93750000000
2737+93125000000+92187500000+92187500000+92812500000+93750000000+94062500000
2705+94375000000+94375000000+94375000000+94687500000+94687500000+94687500000
2674+94375000000+94375000000+94375000000+94375000000+94375000000+94375000000
2642+94375000000+94375000000+94375000000+94375000000+94375000000+94375000000
2611+94375000000+94375000000+94375000000+94375000000+94375000000+94375000000
2579+94375000000+94375000000+94375000000+94375000000+94375000000+94375000000
2547+94375000000+94375000000+94375000000+94375000000+94375000000+94375000000
2516+94375000000+94375000000+94375000000+94062500000+94062500000+93750000000
2484+94062500000+94062500000+94062500000+94062500000+94062500000+94062500000
2453+94062500000+94062500000+94062500000+94062500000+94062500000+93750000000
2421+93125000000+92812500000+92812500000+93125000000+93125000000+93437500000
2389+93750000000+93750000000+94062500000+94062500000+94062500000+94375000000
2358+94375000000+94375000000+94062500000+94062500000+94062500000+94062500000
2326+94062500000+94062500000+94062500000+94062500000+94062500000+94062500000
2295+94062500000+93750000000+93437500000+93125000000+93125000000+93125000000
2263+92812500000+92812500000+92812500000+92500000000+92500000000+92500000000
2232+92812500000+92812500000+92812500000+93125000000+93125000000+93125000000
2200+93125000000+93437500000+93437500000+93437500000+93437500000+93437500000
2168+93437500000+93437500000+93437500000+93437500000+93437500000+93437500000
2137+93437500000+93750000000+93750000000+93750000000+94062500000+94062500000
2105+94062500000+94062500000+94062500000+94062500000+94062500000+94062500000
2074+94062500000+94062500000+94062500000+94062500000+94062500000+94062500000
2042+94062500000+94375000000+94375000000+94375000000+94375000000+94375000000
2011+94375000000+94375000000+94375000000+94062500000+93750000000+93437500000
1979+93437500000+93437500000+93437500000+93437500000+93437500000+93125000000
1947+93125000000+92500000000+92500000000+91875000000+91250000000+90625000000
1916+90312500000+89062500000+87812500000+85000000000+81875000000+72500000000
1884+57812500000+58750000000+65937500000+62500000000+47812500000+40312499999
1853+40625000000+44687500000+54687500000+67500000000+74687500000+79375000000
1821+81875000000+83125000000+82812500000+83437500000+85625000000+86875000000
1789+87187500000+86875000000+85312500000+81875000000+81562500000+81875000000
1758+78125000000+70937500000+51562500000+16562500000+12500000000+25312500000
1726+56875000000+72812500000+81562500000+85937500000+88125000000+89687500000
1695+90625000000+91250000000+91250000000+91562500000+91562500000+92187500000
1663+92500000000+92812500000+93125000000+93125000000+93437500000+93437500000
1632+93750000000+93750000000+94062500000+94062500000+94062500000+94062500000
1600+94062500000+93750000000+93437500000+93125000000+92187500000+90937500000
1568+88750000000+81562500000+56562500000+47500000000+54375000000+72500000000
1537+80312500000+83750000000+84375000000+84062500000+83750000000+83125000000
1505+82812500000+82500000000+82812500000+83437500000+84062500000+83437500000
1474+82812500000+80937500000+78437500000+75937500000+70312500000+61250000000
1442+45312500000+25000000000+6562500000+4687500000+4687500000+7812500000
1411+29062500000+50000000000+65000000000+72500000000+78125000000+81875000000
1379+85625000000+87812500000+90000000000+91250000000+92187500000+92812500000
1347+93125000000+93437500000+94062500000+94062500000+94062500000+94062500000
1316+94062500000+94062500000+94062500000+94375000000+94375000000+94375000000
1284+94062500000+93750000000+92812500000+92187500000+92187500000+92812500000
1253+93437500000+93750000000+94062500000+94375000000+94375000000+94375000000
1221+94375000000+94375000000+94375000000+94375000000+94375000000+94062500000
1189+94062500000+94062500000+94062500000+94062500000+94062500000+94062500000
1158+94062500000+94062500000+94062500000+94062500000+94062500000+93750000000
1126+93437500000+93437500000+93125000000+93125000000+93125000000+93437500000
1095+93437500000+93750000000+94062500000+94062500000+94062500000+94375000000
1063+94375000000+94375000000+94375000000+94375000000+94375000000+94375000000
1032+94375000000+94375000000+94375000000+94375000000+94375000000+94062500000
1000+93750000000+93125000000+92187500000+89687500000+85937500000+80000000000
968+77812500000+75000000000+64062500000+59062500000+60625000000+70937500000
937+77500000000+83750000000+89062500000+91875000000+92812500000+93437500000
905+94062500000+94062500000+94375000000+94375000000+94375000000+94375000000
874+94375000000+94375000000+94375000000+94375000000+94375000000+94375000000
842+94375000000+94687500000+94687500000+94687500000+94687500000+94687500000
811+94687500000+94687500000+94687500000+94375000000+94375000000+94375000000
779+94375000000+94375000000+94375000000+94375000000+94375000000+94375000000
747+94375000000+94375000000+94687500000+94687500000+94687500000+94687500000
716+94687500000+94375000000+94375000000+94062500000+94062500000+93437500000
684+92500000000+91875000000+92187500000+92500000000+92500000000+92500000000
653+92500000000+92500000000+92500000000+92500000000+92187500000+92187500000
621+92187500000+91875000000+91562500000+90937500000+90312500000+89062500000
589+87187500000+85000000000+81562500000+77187500000+67187500000+51250000000
558+31250000000+29687500000+38437500000+59375000000+70625000000+76875000000
526+81875000000+86562500000+89375000000+91250000000+92187500000+92812500000
495+93437500000+93437500000+93437500000+93437500000+93437500000+93125000000
463+93125000000+92812500000+92812500000+92812500000+92812500000+93125000000
432+93437500000+93125000000+92812500000+92500000000+91875000000+91562500000
400+91250000000
##END=
