##TITLE=2-butyn-1-ol
##JCAMP-DX=4.24
##DATA TYPE=INFRARED SPECTRUM
##DATE=10/06/2025
##SAMPLING PROCEDURE=ATR
##ORIGIN=SDBS
##XUNITS=1/CM
##YUNITS=TRANSMITTANCE
##RESOLUTION=5.2631578947368425
##FIRSTX=4000.0
##LASTX=400.0
##DELTAX=-5.2631578947368425
##MAXY=95.0
##MINY=0.0
##XFACTOR=1
##YFACTOR=1
##NPOINTS=685
##FIRSTY=0.0
##XYDATA=(X++(Y..Y))
4000+0+92812500000+92812500000+92500000000+92187500000+91875000000
3968+91875000000+91562500000+91250000000+90937500000+90937500000+90937500000
3937+90937500000+90937500000+90937500000+90625000000+90625000000+90625000000
3905+90625000000+90625000000+90625000000+90937500000+90937500000+90937500000
3874+90937500000+90625000000+90625000000+90312500000+90312500000+90000000000
3842+90000000000+90000000000+90000000000+89687500000+89375000000+89375000000
3811+89062500000+88750000000+88125000000+87812500000+87500000000+86562500000
3779+85625000000+84375000000+83125000000+81562500000+80000000000+78125000000
3747+76250000000+74375000000+71875000000+69687500000+67500000000+64687500000
3716+61875000000+58750000000+55312500000+51562500000+47812500000+45312500000
3684+42500000000+40312499999+38125000000+36562500000+34375000000+32500000000
3653+30625000000+29375000000+27500000000+25937500000+24375000000+22812500000
3621+21562500000+20000000000+19062500000+18125000000+17187500000+16250000000
3589+15625000000+15000000000+14375000000+14062500000+13437500000+13125000000
3558+12812500000+12500000000+12500000000+12500000000+12500000000+12500000000
3526+12500000000+12812500000+13125000000+13437500000+14062500000+14687500000
3495+15000000000+15625000000+16875000000+17812500000+18750000000+19687500000
3463+21250000000+22500000000+23750000000+25625000000+27812500000+29687500000
3432+31250000000+33437500000+35312500000+37500000000+39687500000+41874999999
3400+44062500000+46250000000+48124999999+50000000000+52187500000+54062500000
3368+55312500000+57187500000+58437500000+59687500000+60625000000+61562500000
3337+62500000000+63125000000+63750000000+64062500000+64375000000+64375000000
3305+63750000000+62812500000+61562500000+60000000000+56562500000+53437500000
3274+49687499999+44687500000+41874999999+35937500000+27187500000+27500000000
3242+39375000000+45937500000+47812500000+43750000000+38437500000+36875000000
3211+37187499999+38125000000+44999999999+52500000000+56562500000+59375000000
3179+62187500000+64062500000+66562500000+67812500000+69375000000+70625000000
3147+71875000000+72187500000+72187500000+71875000000+71875000000+71875000000
3116+72812500000+74062500000+75000000000+75625000000+75937500000+76562500000
3084+76875000000+77187500000+77187500000+77500000000+77500000000+77500000000
3053+77812500000+78437500000+79062500000+79687500000+80625000000+81250000000
3021+81562500000+81875000000+82500000000+82812500000+83437500000+83750000000
2989+84062500000+84375000000+84687500000+84687500000+84687500000+85000000000
2958+85312500000+85000000000+84687500000+84375000000+84062500000+83750000000
2926+83750000000+83750000000+83750000000+83750000000+83750000000+83750000000
2895+84062500000+84375000000+85000000000+85937500000+85000000000+83437500000
2863+81875000000+80625000000+79375000000+77812500000+76250000000+74687500000
2832+73437500000+72187500000+66562500000+67187500000+75000000000+81875000000
2800+85625000000+86875000000+85000000000+80625000000+71562500000+58437500000
2768+57187500000+62500000000+74062500000+81250000000+85000000000+86875000000
2737+88125000000+89375000000+89687500000+90000000000+90000000000+90312500000
2705+90312500000+90625000000+90625000000+90937500000+90937500000+91250000000
2674+91250000000+91562500000+91250000000+90625000000+89062500000+89062500000
2642+89062500000+89375000000+89375000000+89375000000+89062500000+89062500000
2611+89375000000+89375000000+89687500000+89687500000+90000000000+90312500000
2579+90625000000+90625000000+90937500000+91250000000+91562500000+91875000000
2547+92187500000+92187500000+92500000000+92812500000+92812500000+93125000000
2516+93125000000+93437500000+93437500000+93750000000+93750000000+93750000000
2484+93750000000+94062500000+94062500000+94062500000+94062500000+94062500000
2453+94375000000+94375000000+94375000000+94375000000+94375000000+94375000000
2421+94375000000+94375000000+94375000000+94375000000+94375000000+94375000000
2389+94375000000+94375000000+94375000000+94375000000+94375000000+94375000000
2358+94375000000+94375000000+94375000000+94375000000+94375000000+94375000000
2326+94375000000+94062500000+94062500000+94062500000+93750000000+93437500000
2295+93437500000+93125000000+93125000000+92812500000+92812500000+92500000000
2263+92187500000+91875000000+91562500000+90937500000+90625000000+89687500000
2232+89375000000+88750000000+88125000000+88125000000+88125000000+88125000000
2200+88125000000+88125000000+88437500000+88437500000+88437500000+88437500000
2168+88125000000+87187500000+85937500000+83437500000+82812500000+82812500000
2137+83125000000+83125000000+83125000000+83125000000+83437500000+83437500000
2105+83750000000+84062500000+84375000000+84687500000+85312500000+85937500000
2074+87187500000+87812500000+88437500000+88750000000+89062500000+89062500000
2042+89062500000+89062500000+89062500000+88750000000+88125000000+87812500000
2011+87187500000+86875000000+86250000000+85625000000+85312500000+85000000000
1979+84375000000+84062500000+83437500000+82812500000+82187500000+81562500000
1947+80937500000+80000000000+79687500000+78750000000+77500000000+76250000000
1916+75000000000+73125000000+71562500000+69062500000+67187500000+64062500000
1884+60937500000+57812500000+53437500000+49375000000+45312500000+42187500000
1853+38749999999+36250000000+34375000000+33750000000+33750000000+34375000000
1821+35312500000+36250000000+37187499999+38437500000+39687500000+40625000000
1789+41562500000+42500000000+43125000000+43437499999+43750000000+44375000000
1758+45312500000+46875000000+48124999999+45937500000+43750000000+42187500000
1726+41874999999+42187500000+44999999999+49375000000+52812500000+55625000000
1695+57500000000+58437500000+59375000000+60625000000+61875000000+62812500000
1663+63437500000+64062500000+65000000000+65937500000+67187500000+68437500000
1632+70000000000+71250000000+72500000000+74062500000+75312500000+76250000000
1600+76875000000+77500000000+78125000000+78750000000+78750000000+78125000000
1568+75937500000+72812500000+68750000000+65000000000+62187500000+61875000000
1537+61875000000+63750000000+66875000000+70625000000+73125000000+75625000000
1505+78437500000+80937500000+82500000000+84062500000+85000000000+85312500000
1474+85625000000+85312500000+84062500000+81875000000+78750000000+75937500000
1442+70625000000+62187500000+43125000000+21250000000+15625000000+15625000000
1411+26875000000+48124999999+65625000000+75312500000+81562500000+84687500000
1379+86562500000+87187500000+86875000000+86250000000+85625000000+85000000000
1347+84375000000+83750000000+82812500000+82187500000+81562500000+80937500000
1316+80000000000+78437500000+75625000000+71875000000+67187500000+61250000000
1284+53125000000+44687500000+36875000000+27812500000+19062500000+12500000000
1253+8437500000+5937500000+5000000000+4687500000+5000000000+5937500000
1221+9375000000+15625000000+22500000000+27500000000+30937500000+33437500000
1189+37187499999+42187500000+50625000000+59687500000+68750000000+75312500000
1158+80625000000+84375000000+87187500000+88437500000+89687500000+90937500000
1126+91562500000+92187500000+92500000000+92812500000+93437500000+93437500000
1095+93750000000+94062500000+94375000000+94375000000+94687500000+94687500000
1063+95000000000+94687500000+94687500000+94687500000+94375000000+94062500000
1032+93750000000+93437500000+93125000000+92500000000+92187500000+91562500000
1000+91250000000+90625000000+90000000000+89375000000+88437500000+87500000000
968+86562500000+85937500000+85000000000+83750000000+82500000000+80937500000
937+78750000000+75625000000+72187500000+68125000000+63750000000+59062500000
905+55625000000+55000000000+55937500000+62500000000+70000000000+73437500000
874+74687500000+75000000000+74375000000+73437500000+72187500000+70625000000
842+68750000000+67500000000+66875000000+66875000000+67187500000+67812500000
811+68125000000+68437500000+68750000000+68750000000+68437500000+68125000000
779+67812500000+67500000000+67187500000+66875000000+66562500000+66250000000
747+66250000000+65937500000+65937500000+65937500000+65937500000+65937500000
716+65937500000+65937500000+66250000000+66250000000+66250000000+66562500000
684+66562500000+66875000000+67187500000+67500000000+67812500000+68125000000
653+68437500000+68750000000+69062500000+69375000000+69687500000+70312500000
621+70937500000+71562500000+72187500000+72500000000+72187500000+71250000000
589+70000000000+69062500000+68125000000+67812500000+67500000000+67812500000
558+68750000000+70312500000+72187500000+74062500000+75625000000+77187500000
526+78750000000+79687500000+80625000000+81562500000+82500000000+83125000000
495+83750000000+84375000000+84687500000+85000000000+85625000000+85937500000
463+86250000000+86250000000+86875000000+87187500000+87500000000+88125000000
432+88750000000+89062500000+89375000000+89687500000+89687500000+89687500000
400+90000000000
##END=
