##TITLE=2-butyne-1,4-diol
##JCAMP-DX=4.24
##DATA TYPE=INFRARED SPECTRUM
##DATE=10/06/2025
##SAMPLING PROCEDURE=ATR
##ORIGIN=SDBS
##XUNITS=1/CM
##YUNITS=TRANSMITTANCE
##RESOLUTION=5.2631578947368425
##FIRSTX=4000.0
##LASTX=400.0
##DELTAX=-5.2631578947368425
##MAXY=95.0
##MINY=0.0
##XFACTOR=1
##YFACTOR=1
##NPOINTS=685
##FIRSTY=0.0
##XYDATA=(X++(Y..Y))
4000+0+89687500000+89062500000+88437500000+87812500000+87500000000
3968+87187500000+86875000000+86875000000+86875000000+87187500000+87500000000
3937+87500000000+87500000000+87812500000+88437500000+88750000000+89062500000
3905+89062500000+89375000000+89375000000+89375000000+89687500000+89687500000
3874+89375000000+89062500000+89062500000+89062500000+88750000000+88437500000
3842+88437500000+88125000000+88125000000+87500000000+87500000000+87187500000
3811+86875000000+86250000000+85625000000+84375000000+83437500000+82187500000
3779+80000000000+77187500000+74687500000+71250000000+67500000000+64375000000
3747+61875000000+59062500000+57187500000+55312500000+54062500000+52500000000
3716+51250000000+50000000000+48750000000+47187500000+45937500000+44687500000
3684+43437499999+42187500000+41250000000+40312499999+39375000000+37812500000
3653+36875000000+35937500000+34687500000+33437500000+32187500000+30937500000
3621+29375000000+27812500000+26562500000+25312500000+24062500000+23125000000
3589+21875000000+21250000000+20312500000+19062500000+17812500000+17187500000
3558+16250000000+15312500000+14687500000+13750000000+13125000000+12812500000
3526+12187500000+11875000000+11562500000+11562500000+11250000000+11250000000
3495+10937500000+10625000000+10625000000+10625000000+10625000000+10312500000
3463+10312500000+10312500000+10312500000+10312500000+10312500000+10312500000
3432+10312500000+10312500000+10625000000+10625000000+10937500000+11250000000
3400+11562500000+12187500000+12812500000+13125000000+13437500000+14062500000
3368+14687500000+15312500000+16250000000+17187500000+17812500000+18437500000
3337+19375000000+20000000000+20625000000+21250000000+21875000000+22187500000
3305+21562500000+20625000000+18125000000+15625000000+12187500000+10625000000
3274+9375000000+8750000000+6875000000+4687500000+4687500000+6250000000
3242+7500000000+8750000000+9687500000+10312500000+8750000000+7812500000
3211+8125000000+8750000000+9687500000+12187500000+18125000000+22187500000
3179+25000000000+26875000000+29062500000+30625000000+33125000000+35000000000
3147+36875000000+38749999999+41250000000+43750000000+45625000000+46562499999
3116+47187500000+46562499999+46562499999+46562499999+47500000000+48437500000
3084+48750000000+48437500000+47812500000+47500000000+47500000000+47500000000
3053+48124999999+50312500000+54062500000+57187500000+60625000000+63125000000
3021+64687500000+65625000000+67812500000+69375000000+71562500000+72812500000
2989+73750000000+75000000000+75625000000+76250000000+77187500000+77500000000
2958+76875000000+75937500000+74375000000+71562500000+70625000000+70625000000
2926+70937500000+71562500000+71875000000+71250000000+70625000000+67500000000
2895+67187500000+73125000000+75000000000+75625000000+76875000000+78125000000
2863+78750000000+79687500000+80937500000+81562500000+82500000000+83437500000
2832+84375000000+85000000000+85937500000+86250000000+85312500000+84687500000
2800+86250000000+86562500000+85937500000+84687500000+83125000000+82500000000
2768+82187500000+80625000000+80312500000+82187500000+85625000000+87187500000
2737+87812500000+88125000000+88437500000+88437500000+88125000000+88125000000
2705+88437500000+88437500000+88750000000+88750000000+89062500000+89062500000
2674+89375000000+89375000000+89375000000+89062500000+88750000000+88437500000
2642+88125000000+87500000000+87187500000+87187500000+87187500000+86562500000
2611+85625000000+85000000000+85000000000+85312500000+85937500000+86562500000
2579+87500000000+88125000000+89062500000+90000000000+90625000000+90625000000
2547+90312500000+90000000000+90000000000+90312500000+91562500000+92812500000
2516+93437500000+94062500000+94062500000+94375000000+94375000000+94687500000
2484+94687500000+94687500000+94687500000+94687500000+94687500000+95000000000
2453+95000000000+95000000000+95000000000+95000000000+94687500000+94687500000
2421+94687500000+94687500000+94375000000+94375000000+94375000000+94062500000
2389+94062500000+94062500000+93750000000+93437500000+93437500000+93125000000
2358+92812500000+92500000000+92500000000+92187500000+91875000000+91562500000
2326+91250000000+90625000000+90312500000+89687500000+89062500000+88125000000
2295+87500000000+86875000000+85937500000+85625000000+85000000000+84062500000
2263+83125000000+81875000000+80937500000+79375000000+77812500000+75937500000
2232+74687500000+73750000000+73125000000+73125000000+73125000000+73437500000
2200+73750000000+74062500000+74375000000+73750000000+73125000000+72500000000
2168+71562500000+70625000000+69375000000+68125000000+66875000000+65625000000
2137+64687500000+63437500000+62812500000+62187500000+61875000000+61875000000
2105+61875000000+61875000000+62500000000+63125000000+64687500000+65625000000
2074+67187500000+69062500000+70625000000+71875000000+73125000000+73750000000
2042+74375000000+75000000000+75312500000+75312500000+75312500000+75312500000
2011+75000000000+75000000000+74687500000+74375000000+74062500000+73437500000
1979+72812500000+72187500000+71250000000+70312500000+69687500000+69062500000
1947+68125000000+67187500000+66250000000+65000000000+63437500000+61562500000
1916+60000000000+58125000000+56250000000+53750000000+51562500000+48124999999
1884+43437499999+37500000000+31875000000+29375000000+27812500000+27187500000
1853+27187500000+24687500000+14375000000+14375000000+25000000000+30312500000
1821+31875000000+30937500000+30000000000+28750000000+28125000000+28125000000
1789+28125000000+28750000000+29687500000+30937500000+32187500000+32500000000
1758+31562500000+29062500000+27812500000+24062500000+20625000000+20625000000
1726+22187500000+25937500000+29687500000+33437500000+37187499999+40937500000
1695+44375000000+47500000000+50000000000+51875000000+53437500000+55000000000
1663+55937500000+57187500000+58125000000+59062500000+60000000000+60625000000
1632+61875000000+63125000000+63750000000+65312500000+66250000000+67500000000
1600+68125000000+69375000000+70625000000+70625000000+69375000000+66562500000
1568+56875000000+51875000000+47187500000+36562500000+34687500000+35625000000
1537+41250000000+55625000000+65937500000+71250000000+74375000000+77500000000
1505+79687500000+80937500000+81875000000+82500000000+82812500000+82812500000
1474+82500000000+82187500000+81250000000+80625000000+79375000000+77500000000
1442+75000000000+71875000000+67500000000+60312500000+48750000000+25937500000
1411+19062500000+20312500000+26875000000+31875000000+38437500000+48124999999
1379+58750000000+65312500000+69375000000+71562500000+72187500000+71562500000
1347+70312500000+69062500000+67812500000+66250000000+64062500000+61562500000
1316+59375000000+55625000000+51562500000+45937500000+40937500000+34375000000
1284+27500000000+21875000000+19062500000+16562500000+14687500000+13750000000
1253+13750000000+14062500000+14375000000+14687500000+14375000000+14375000000
1221+23125000000+30000000000+35625000000+36562500000+24687500000+20312500000
1189+20312500000+29375000000+42812500000+53750000000+62500000000+69687500000
1158+75000000000+78750000000+81875000000+84062500000+85937500000+87500000000
1126+88437500000+89062500000+89375000000+90000000000+90312500000+90625000000
1095+90625000000+90937500000+91250000000+91250000000+91562500000+91562500000
1063+91562500000+91562500000+90937500000+90312500000+89687500000+89062500000
1032+88125000000+86875000000+85937500000+84687500000+83437500000+81875000000
1000+80312500000+78437500000+76562500000+75000000000+73437500000+71875000000
968+69375000000+67500000000+65312500000+61875000000+59062500000+56562500000
937+53437500000+50000000000+45312500000+42500000000+42187500000+43125000000
905+48750000000+56250000000+61250000000+63437500000+64375000000+63750000000
874+62187500000+60312500000+57812500000+55625000000+52187500000+48437500000
842+44375000000+42187500000+39375000000+36562500000+33125000000+30937500000
811+29062500000+27500000000+26562500000+26250000000+26250000000+26250000000
779+26875000000+27812500000+28750000000+30000000000+31562500000+33437500000
747+35000000000+36562500000+38749999999+41250000000+42812500000+44687500000
716+46562499999+48750000000+50312500000+52187500000+53750000000+55312500000
684+56250000000+56562500000+55937500000+55000000000+52187500000+47812500000
653+40937500000+35312500000+33125000000+33437500000+37187499999+46875000000
621+55625000000+61875000000+67187500000+70937500000+73750000000+76250000000
589+78437500000+80625000000+81875000000+83125000000+84375000000+85312500000
558+86250000000+87187500000+87812500000+88437500000+88437500000+88750000000
526+89062500000+89375000000+89375000000+90000000000+90312500000+90625000000
495+91250000000+91562500000+91875000000+92187500000+92500000000+92187500000
463+91562500000+91250000000+91250000000+91562500000+92187500000+93437500000
432+94375000000+94062500000+92500000000+90312500000+88125000000+86562500000
400+85937500000
##END=
