##TITLE=2-chloroethyl acetate
##JCAMP-DX=4.24
##DATA TYPE=INFRARED SPECTRUM
##DATE=10/06/2025
##SAMPLING PROCEDURE=ATR
##ORIGIN=SDBS
##XUNITS=1/CM
##YUNITS=TRANSMITTANCE
##RESOLUTION=5.2631578947368425
##FIRSTX=4000.0
##LASTX=400.0
##DELTAX=-5.2631578947368425
##MAXY=94.6875
##MINY=0.0
##XFACTOR=1
##YFACTOR=1
##NPOINTS=685
##FIRSTY=0.0
##XYDATA=(X++(Y..Y))
4000+0+80937500000+80625000000+80625000000+80312500000+80000000000
3968+80000000000+79687500000+79687500000+79375000000+79062500000+78750000000
3937+78750000000+78437500000+78437500000+78125000000+78125000000+78125000000
3905+78125000000+78125000000+78125000000+77812500000+77812500000+77500000000
3874+77500000000+77500000000+77187500000+77187500000+77187500000+76875000000
3842+76875000000+76875000000+76875000000+76875000000+76875000000+76875000000
3811+76875000000+76875000000+76875000000+76875000000+76875000000+76562500000
3779+76562500000+76562500000+76562500000+76250000000+75937500000+75625000000
3747+75625000000+75625000000+75625000000+75312500000+75312500000+75000000000
3716+74375000000+74062500000+73750000000+73437500000+73125000000+72812500000
3684+72187500000+71875000000+71562500000+71250000000+70625000000+70000000000
3653+69375000000+68750000000+68437500000+68125000000+68125000000+68125000000
3621+68125000000+68437500000+69062500000+70000000000+70625000000+71562500000
3589+72187500000+72812500000+73125000000+73437500000+73750000000+74062500000
3558+74375000000+74375000000+74687500000+74687500000+74687500000+75000000000
3526+75000000000+75000000000+75000000000+75000000000+75000000000+75312500000
3495+75312500000+75312500000+75625000000+75625000000+75625000000+75937500000
3463+75937500000+75937500000+75937500000+75937500000+76250000000+76250000000
3432+76562500000+76562500000+76875000000+77187500000+77187500000+77500000000
3400+77500000000+77500000000+77187500000+77187500000+77500000000+77500000000
3368+77500000000+77500000000+77500000000+77500000000+77187500000+77187500000
3337+76875000000+76250000000+75625000000+75000000000+75000000000+74687500000
3305+74062500000+73125000000+70937500000+67812500000+65625000000+65625000000
3274+67187500000+68437500000+69687500000+72187500000+75000000000+76562500000
3242+77500000000+77812500000+77500000000+77187500000+77500000000+78437500000
3211+80000000000+80625000000+80937500000+81250000000+81875000000+82187500000
3179+82500000000+82812500000+83125000000+83437500000+83750000000+83750000000
3147+84375000000+84375000000+84375000000+84375000000+84375000000+84375000000
3116+84687500000+85000000000+85000000000+85312500000+85625000000+85625000000
3084+85625000000+85625000000+85937500000+85937500000+86250000000+86250000000
3053+86250000000+86562500000+86562500000+86562500000+86875000000+86875000000
3021+86875000000+87187500000+87187500000+87187500000+87187500000+87500000000
2989+87500000000+87500000000+87500000000+87500000000+87500000000+87500000000
2958+87500000000+87500000000+87500000000+87187500000+87187500000+87187500000
2926+87187500000+87500000000+87500000000+87812500000+87812500000+87812500000
2895+87812500000+87812500000+88125000000+88437500000+88750000000+88750000000
2863+88750000000+88750000000+88750000000+88750000000+88750000000+88750000000
2832+88750000000+88750000000+88750000000+88750000000+88750000000+88750000000
2800+88750000000+88750000000+88750000000+88750000000+88750000000+88750000000
2768+89062500000+89062500000+89062500000+89062500000+89375000000+89375000000
2737+89375000000+89375000000+89375000000+89375000000+89687500000+89687500000
2705+89687500000+89687500000+89687500000+89687500000+89687500000+89687500000
2674+89375000000+89062500000+89062500000+89062500000+89062500000+89062500000
2642+89062500000+89062500000+89062500000+89375000000+89375000000+89687500000
2611+90000000000+90312500000+90312500000+90625000000+90625000000+90625000000
2579+90625000000+90625000000+90937500000+90937500000+90937500000+90937500000
2547+90937500000+90937500000+90937500000+90937500000+90937500000+90937500000
2516+90937500000+90937500000+90937500000+90625000000+90625000000+90625000000
2484+90312500000+90312500000+90000000000+90000000000+89687500000+89687500000
2453+89687500000+89375000000+89375000000+89062500000+88750000000+88437500000
2421+88125000000+88125000000+87812500000+87812500000+87812500000+87812500000
2389+88125000000+88125000000+88125000000+87812500000+87500000000+86875000000
2358+86250000000+85625000000+84687500000+83750000000+82812500000+81875000000
2326+80625000000+78750000000+77187500000+74687500000+71250000000+66875000000
2295+61875000000+52500000000+38437500000+21562500000+10937500000+6250000000
2263+4687500000+4687500000+5312500000+6875000000+12500000000+21562500000
2232+33125000000+42500000000+49687499999+55937500000+60312500000+63125000000
2200+65312500000+67500000000+70625000000+73750000000+77187500000+79375000000
2168+80937500000+81875000000+82812500000+83437500000+83437500000+83437500000
2137+83125000000+83125000000+83125000000+83437500000+83750000000+84687500000
2105+85312500000+85625000000+85937500000+85937500000+85937500000+86562500000
2074+87500000000+88437500000+89062500000+89687500000+89687500000+90000000000
2042+90000000000+89687500000+89375000000+89375000000+89062500000+88750000000
2011+88437500000+88437500000+88125000000+88125000000+87812500000+87500000000
1979+87500000000+87187500000+87187500000+87187500000+86875000000+86875000000
1947+86875000000+86562500000+86562500000+86250000000+86250000000+86250000000
1916+85937500000+85625000000+85000000000+84375000000+83750000000+81875000000
1884+79687500000+77812500000+75000000000+68750000000+60937500000+58125000000
1853+58125000000+59062500000+56875000000+53437500000+49375000000+48750000000
1821+50937500000+58125000000+64375000000+68750000000+71562500000+73125000000
1789+72812500000+70625000000+65000000000+55937500000+40625000000+30937500000
1758+30625000000+36250000000+47500000000+47812500000+34375000000+31562500000
1726+34375000000+52187500000+66562500000+74375000000+78125000000+80000000000
1695+80937500000+80937500000+80000000000+78437500000+75625000000+72500000000
1663+65312500000+54062500000+45312500000+44062500000+45312500000+52500000000
1632+58437500000+61250000000+58437500000+52500000000+43125000000+34062500000
1600+28437500000+27500000000+26250000000+23437500000+19375000000+15312500000
1568+11875000000+9062500000+7500000000+6875000000+6875000000+6875000000
1537+8125000000+11562500000+18437500000+28125000000+35312500000+42187500000
1505+47187500000+47812500000+50312500000+58125000000+65937500000+70625000000
1474+73750000000+76562500000+80625000000+82812500000+84687500000+85937500000
1442+86875000000+87187500000+87187500000+86250000000+84687500000+81875000000
1411+81562500000+81562500000+82812500000+84062500000+85000000000+84375000000
1379+84062500000+83437500000+81875000000+79375000000+75312500000+65937500000
1347+50625000000+40937500000+40000000000+40312499999+44999999999+55312500000
1316+60937500000+60000000000+55000000000+45937500000+35625000000+24375000000
1284+20625000000+20937500000+27187500000+37500000000+50625000000+61562500000
1253+68125000000+72812500000+76250000000+78750000000+78437500000+78437500000
1221+79062500000+81250000000+83437500000+83750000000+84375000000+84687500000
1189+84375000000+84375000000+84062500000+83750000000+83437500000+83125000000
1158+82187500000+79062500000+73750000000+68437500000+68125000000+70000000000
1126+75625000000+79375000000+82812500000+84687500000+84375000000+83750000000
1095+83437500000+82500000000+82500000000+82500000000+82812500000+83750000000
1063+85000000000+86250000000+87812500000+89687500000+91250000000+91562500000
1032+90937500000+90937500000+90625000000+91250000000+91875000000+92500000000
1000+93125000000+92812500000+91562500000+88750000000+83750000000+79375000000
968+79062500000+76875000000+73437500000+73437500000+79062500000+85312500000
937+88125000000+89375000000+89687500000+81875000000+79062500000+79062500000
905+80312500000+83750000000+82500000000+79375000000+78125000000+78125000000
874+79375000000+82500000000+86250000000+89375000000+90937500000+92500000000
842+93125000000+93750000000+94062500000+94062500000+94062500000+93750000000
811+93437500000+92812500000+91562500000+89687500000+84375000000+72812500000
779+56875000000+49375000000+48437500000+51562500000+59687500000+70937500000
747+78437500000+83750000000+83750000000+80625000000+76562500000+68750000000
716+68437500000+76250000000+84375000000+88750000000+89375000000+85937500000
684+75937500000+68750000000+69062500000+79375000000+87500000000+91250000000
653+93125000000+94062500000+94375000000+94687500000+94687500000+94687500000
621+94375000000+94375000000+94062500000+94062500000+94062500000+93750000000
589+93750000000+93750000000+93750000000+93437500000+93437500000+93437500000
558+93437500000+93437500000+93437500000+93437500000+93125000000+92187500000
526+90625000000+88437500000+85625000000+82187500000+80000000000+78125000000
495+77500000000+77500000000+77812500000+78750000000+80000000000+81875000000
463+83125000000+84062500000+83750000000+82500000000+80625000000+77812500000
432+75312500000+73437500000+72500000000+71875000000+71250000000+71250000000
400+71250000000
##END=
