##TITLE=2-decyne
##JCAMP-DX=4.24
##DATA TYPE=INFRARED SPECTRUM
##DATE=10/06/2025
##SAMPLING PROCEDURE=ATR
##ORIGIN=SDBS
##XUNITS=1/CM
##YUNITS=TRANSMITTANCE
##RESOLUTION=5.2631578947368425
##FIRSTX=4000.0
##LASTX=400.0
##DELTAX=-5.2631578947368425
##MAXY=95.0
##MINY=0.0
##XFACTOR=1
##YFACTOR=1
##NPOINTS=685
##FIRSTY=0.0
##XYDATA=(X++(Y..Y))
4000+0+90000000000+89687500000+89687500000+89687500000+90000000000
3968+90312500000+90625000000+90625000000+90625000000+90625000000+90625000000
3937+90625000000+90625000000+90312500000+90312500000+90312500000+90312500000
3905+90625000000+90625000000+90937500000+90625000000+90625000000+90625000000
3874+90625000000+90625000000+90625000000+90625000000+90625000000+90625000000
3842+90625000000+90625000000+90625000000+90625000000+90625000000+90625000000
3811+90312500000+90312500000+90312500000+90000000000+89687500000+89062500000
3779+88437500000+87812500000+87187500000+86562500000+85625000000+84687500000
3747+83750000000+82812500000+81250000000+80000000000+78437500000+77187500000
3716+75625000000+73750000000+71875000000+69375000000+67187500000+65312500000
3684+62812500000+60937500000+59062500000+57500000000+56250000000+55000000000
3653+53750000000+53125000000+51875000000+50937500000+50000000000+49687499999
3621+49375000000+49062500000+48750000000+48750000000+48750000000+48750000000
3589+48750000000+48750000000+48750000000+48750000000+49062500000+49062500000
3558+49375000000+49687499999+50000000000+50000000000+50312500000+50312500000
3526+50312500000+50625000000+50625000000+50625000000+50937500000+50937500000
3495+50937500000+50937500000+50625000000+50625000000+50625000000+50625000000
3463+50625000000+50625000000+50625000000+50625000000+50937500000+50937500000
3432+51250000000+51250000000+51562500000+51562500000+51875000000+52187500000
3400+52187500000+52500000000+52500000000+52187500000+52187500000+52187500000
3368+52187500000+51875000000+51562500000+51562500000+51562500000+51250000000
3337+50937500000+50312500000+49687499999+48750000000+47187500000+44687500000
3305+40937500000+35000000000+27500000000+19375000000+10937500000+6875000000
3274+6562500000+7812500000+5625000000+4687500000+4687500000+5937500000
3242+9687500000+14062500000+18437500000+21875000000+16250000000+15000000000
3211+13125000000+12812500000+16562500000+30000000000+44375000000+50625000000
3179+55625000000+58750000000+61250000000+63125000000+64687500000+65937500000
3147+67187500000+68125000000+69062500000+69375000000+69687500000+69687500000
3116+69687500000+70312500000+70937500000+71562500000+71562500000+71562500000
3084+71250000000+71250000000+71250000000+71250000000+71562500000+71562500000
3053+71875000000+72187500000+72187500000+72500000000+73125000000+73437500000
3021+74062500000+74375000000+75000000000+75312500000+75937500000+76562500000
2989+77187500000+77812500000+78437500000+78750000000+79687500000+80000000000
2958+80625000000+81250000000+81875000000+82812500000+83437500000+83750000000
2926+84687500000+85000000000+85625000000+85937500000+86250000000+86875000000
2895+87187500000+87500000000+88125000000+88437500000+89062500000+89062500000
2863+89375000000+89375000000+89375000000+89375000000+89687500000+89687500000
2832+89687500000+90000000000+90000000000+90000000000+90000000000+89687500000
2800+89062500000+87500000000+82812500000+74375000000+69375000000+69375000000
2768+73750000000+80000000000+84375000000+86875000000+89375000000+90937500000
2737+92187500000+93125000000+93437500000+93750000000+93750000000+94062500000
2705+94062500000+94375000000+94375000000+94375000000+94687500000+94687500000
2674+94687500000+94687500000+94687500000+94687500000+94375000000+94375000000
2642+94375000000+94687500000+94687500000+94687500000+94687500000+94687500000
2611+95000000000+95000000000+95000000000+95000000000+94687500000+94687500000
2579+94687500000+94687500000+94687500000+94687500000+94687500000+94687500000
2547+94687500000+94687500000+94687500000+94687500000+94687500000+94687500000
2516+94687500000+94687500000+94687500000+94687500000+94687500000+94375000000
2484+94375000000+94375000000+94375000000+94375000000+94375000000+94375000000
2453+94375000000+94062500000+94062500000+93750000000+93750000000+93437500000
2421+93125000000+93125000000+92812500000+92187500000+91875000000+91562500000
2389+90937500000+90312500000+89375000000+88437500000+87187500000+85000000000
2358+81875000000+79375000000+75625000000+71875000000+68125000000+64062500000
2326+60625000000+56875000000+53125000000+49062500000+44062500000+38749999999
2295+34687500000+31250000000+29062500000+26250000000+23437500000+20000000000
2263+16562500000+14062500000+13125000000+12812500000+12812500000+12812500000
2232+12500000000+11875000000+11250000000+11250000000+11250000000+12187500000
2200+14062500000+17187500000+21250000000+25000000000+29375000000+33750000000
2168+37187499999+39687500000+42812500000+45625000000+48750000000+50937500000
2137+52812500000+54687500000+56562500000+57500000000+59062500000+60312500000
2105+61250000000+62187500000+63750000000+65312500000+66250000000+67187500000
2074+67812500000+68125000000+68437500000+68750000000+69375000000+71250000000
2042+73125000000+74375000000+75625000000+77187500000+78437500000+79375000000
2011+80625000000+81875000000+83437500000+84375000000+85000000000+85000000000
1979+85312500000+85625000000+85937500000+86250000000+86250000000+85937500000
1947+85625000000+84375000000+82812500000+82812500000+83437500000+84062500000
1916+83125000000+81250000000+79687500000+78750000000+76562500000+71875000000
1884+60625000000+43125000000+35000000000+35312500000+35000000000+35000000000
1853+36250000000+40312499999+42812500000+44062500000+44999999999+46250000000
1821+47500000000+48750000000+48124999999+47187500000+46875000000+46875000000
1789+47187500000+48124999999+48750000000+48437500000+46875000000+43750000000
1758+39062500000+35625000000+35625000000+38749999999+41562500000+42812500000
1726+43750000000+44687500000+45312500000+46250000000+46875000000+47187500000
1695+47812500000+48124999999+48437500000+48437500000+48124999999+47500000000
1663+46562499999+45937500000+44687500000+43437499999+42187500000+40937500000
1632+39375000000+38125000000+36250000000+34687500000+33437500000+32500000000
1600+31250000000+30000000000+28750000000+27812500000+26875000000+26562500000
1568+26562500000+26562500000+26875000000+27812500000+28750000000+29375000000
1537+30000000000+30625000000+30937500000+31562500000+31875000000+32187500000
1505+32187500000+32187500000+32187500000+31875000000+31875000000+31250000000
1474+30937500000+30625000000+30312500000+30312500000+30625000000+31250000000
1442+33125000000+35000000000+36875000000+39062500000+40000000000+40312499999
1411+40625000000+40937500000+40937500000+40937500000+40937500000+40937500000
1379+41250000000+41562500000+42812500000+44062500000+44999999999+45312500000
1347+45625000000+45625000000+45312500000+45312500000+45312500000+45312500000
1316+45625000000+45937500000+46562499999+47187500000+47812500000+48437500000
1284+49062500000+49687499999+50312500000+50937500000+51562500000+52500000000
1253+53437500000+54062500000+55000000000+55937500000+56875000000+57500000000
1221+58750000000+59687500000+60312500000+60937500000+60937500000+60937500000
1189+60625000000+60312500000+60000000000+60000000000+60000000000+60312500000
1158+60625000000+61562500000+62187500000+62812500000+63437500000+64062500000
1126+64375000000+65000000000+65625000000+66250000000+67187500000+68125000000
1095+69062500000+70000000000+70625000000+71250000000+72187500000+73125000000
1063+73750000000+74375000000+75312500000+75937500000+76562500000+77187500000
1032+77500000000+78437500000+79062500000+79687500000+80625000000+81562500000
1000+82187500000+82500000000+82812500000+83125000000+83437500000+83750000000
968+83750000000+84062500000+84062500000+84062500000+83750000000+83750000000
937+83750000000+83437500000+83125000000+82812500000+82500000000+81875000000
905+81250000000+80937500000+80937500000+80937500000+80937500000+81250000000
874+81250000000+81250000000+80937500000+80312500000+78125000000+76562500000
842+76875000000+80000000000+83750000000+85937500000+87187500000+88125000000
811+88437500000+88750000000+89062500000+89375000000+89687500000+89687500000
779+90000000000+89687500000+89687500000+89375000000+89375000000+89062500000
747+88750000000+88750000000+88437500000+88125000000+88125000000+87812500000
716+87812500000+87812500000+87500000000+87500000000+87187500000+86875000000
684+86250000000+85937500000+85937500000+85625000000+85625000000+85937500000
653+85937500000+86250000000+86250000000+86875000000+87187500000+87500000000
621+88125000000+88437500000+88750000000+89062500000+89375000000+89687500000
589+89687500000+89687500000+89375000000+89375000000+89062500000+89062500000
558+88750000000+88750000000+88750000000+89062500000+89375000000+89375000000
526+89687500000+89687500000+89687500000+89687500000+89687500000+90000000000
495+90625000000+91562500000+92500000000+93437500000+94062500000+94375000000
463+94062500000+93437500000+92187500000+90625000000+89375000000+87500000000
432+85937500000+84375000000+83125000000+81875000000+80937500000+80312500000
400+80000000000
##END=
