##TITLE=2-ethyl-1-butanol
##JCAMP-DX=4.24
##DATA TYPE=INFRARED SPECTRUM
##DATE=10/06/2025
##SAMPLING PROCEDURE=ATR
##ORIGIN=SDBS
##XUNITS=1/CM
##YUNITS=TRANSMITTANCE
##RESOLUTION=5.2631578947368425
##FIRSTX=4000.0
##LASTX=400.0
##DELTAX=-5.2631578947368425
##MAXY=95.0
##MINY=0.0
##XFACTOR=1
##YFACTOR=1
##NPOINTS=685
##FIRSTY=0.0
##XYDATA=(X++(Y..Y))
4000+0+90312500000+90312500000+90312500000+90312500000+90312500000
3968+90312500000+90312500000+90625000000+90625000000+90625000000+90625000000
3937+90625000000+90625000000+90625000000+90625000000+90625000000+90937500000
3905+90937500000+90937500000+90937500000+90937500000+90937500000+90937500000
3874+90937500000+90937500000+90937500000+90937500000+90937500000+90625000000
3842+90625000000+90625000000+90625000000+90625000000+90625000000+90312500000
3811+90312500000+90312500000+90000000000+89687500000+89687500000+89375000000
3779+89375000000+89062500000+88750000000+88437500000+87500000000+86875000000
3747+86562500000+86250000000+85937500000+85625000000+85000000000+84375000000
3716+83125000000+82187500000+80625000000+78750000000+77187500000+75312500000
3684+73125000000+70625000000+68125000000+65625000000+62812500000+59687500000
3653+56875000000+54062500000+50937500000+47812500000+45312500000+42812500000
3621+40312499999+37812500000+35625000000+34062500000+31875000000+30000000000
3589+28437500000+27187500000+25312500000+24062500000+22812500000+22187500000
3558+21250000000+20625000000+20312500000+20312500000+20312500000+20312500000
3526+20312500000+20937500000+21250000000+21875000000+22812500000+23750000000
3495+24687500000+25937500000+27500000000+29062500000+30625000000+32500000000
3463+34687500000+36562500000+38749999999+41250000000+43750000000+45937500000
3432+48124999999+50625000000+53125000000+55312500000+57500000000+59687500000
3400+61875000000+63750000000+65625000000+67187500000+68750000000+70000000000
3368+70937500000+72187500000+73125000000+74062500000+74687500000+75000000000
3337+75312500000+75625000000+75000000000+74062500000+72500000000+70625000000
3305+65937500000+56875000000+40937500000+20312500000+5937500000+4687500000
3274+6250000000+17187500000+11875000000+11562500000+11875000000+12812500000
3242+16562500000+20937500000+24687500000+18437500000+11562500000+12187500000
3211+18125000000+22812500000+36875000000+50000000000+56562500000+60312500000
3179+64375000000+67500000000+70312500000+72187500000+74062500000+75937500000
3147+76875000000+77500000000+77812500000+77500000000+77500000000+77500000000
3116+78125000000+79375000000+80625000000+81250000000+81875000000+82500000000
3084+82812500000+83125000000+83437500000+83750000000+84062500000+84375000000
3053+84687500000+85000000000+85312500000+85312500000+85312500000+85312500000
3021+85625000000+85625000000+86250000000+86562500000+86875000000+87187500000
2989+87500000000+87812500000+88125000000+88437500000+88437500000+88750000000
2958+89062500000+89062500000+89062500000+89062500000+89375000000+89375000000
2926+89687500000+89687500000+90000000000+90000000000+90000000000+90000000000
2895+90000000000+90312500000+90312500000+90312500000+90312500000+90312500000
2863+90625000000+90625000000+90937500000+90937500000+91250000000+91250000000
2832+91562500000+91562500000+91562500000+91875000000+91875000000+91875000000
2800+91875000000+91875000000+91875000000+91875000000+92187500000+92187500000
2768+92187500000+92187500000+92187500000+92500000000+92500000000+92500000000
2737+92500000000+92500000000+92500000000+92812500000+92812500000+92812500000
2705+92812500000+93125000000+93125000000+92812500000+92812500000+92812500000
2674+92812500000+92812500000+92812500000+92812500000+92812500000+93125000000
2642+93125000000+93437500000+93437500000+93437500000+93750000000+93750000000
2611+93750000000+93750000000+93750000000+93750000000+93750000000+93750000000
2579+94062500000+94062500000+94062500000+94062500000+94062500000+94062500000
2547+94062500000+94062500000+94062500000+94062500000+94062500000+94062500000
2516+94375000000+94375000000+94375000000+94375000000+94375000000+94687500000
2484+94687500000+94687500000+94687500000+94687500000+94687500000+94687500000
2453+94687500000+94687500000+94687500000+94687500000+94687500000+94687500000
2421+94687500000+94687500000+95000000000+94687500000+94687500000+94687500000
2389+94687500000+94687500000+94687500000+94687500000+94687500000+94687500000
2358+94687500000+94687500000+94687500000+95000000000+95000000000+94687500000
2326+94687500000+94687500000+94687500000+94687500000+94687500000+94687500000
2295+94687500000+94687500000+94687500000+94375000000+94375000000+94375000000
2263+94375000000+94062500000+94062500000+94062500000+93750000000+93750000000
2232+93750000000+93750000000+93750000000+93750000000+93750000000+93750000000
2200+93750000000+93750000000+93437500000+93437500000+93125000000+93125000000
2168+92812500000+92500000000+92187500000+91875000000+91875000000+91562500000
2137+91562500000+91562500000+91250000000+91250000000+91250000000+91250000000
2105+91250000000+91250000000+91250000000+91562500000+91562500000+91875000000
2074+92187500000+92500000000+92812500000+92812500000+93125000000+93125000000
2042+93125000000+92812500000+92812500000+92500000000+92500000000+92187500000
2011+92187500000+91875000000+91562500000+91562500000+91250000000+90937500000
1979+90937500000+90625000000+90312500000+90000000000+89687500000+89062500000
1947+88437500000+87812500000+87187500000+86250000000+85312500000+84375000000
1916+82812500000+80312500000+76562500000+70625000000+64687500000+58750000000
1884+53437500000+45312500000+35000000000+29687500000+29687500000+35312500000
1853+44062500000+51250000000+55000000000+60000000000+63750000000+66250000000
1821+66875000000+67500000000+68125000000+68437500000+68750000000+69375000000
1789+70000000000+70312500000+70625000000+70000000000+67187500000+58437500000
1758+44062500000+43125000000+45937500000+57812500000+66562500000+69687500000
1726+70937500000+71875000000+72812500000+74062500000+74687500000+75312500000
1695+75312500000+75312500000+75312500000+75625000000+75625000000+75625000000
1663+75312500000+75312500000+75312500000+75312500000+75937500000+77812500000
1632+79687500000+80937500000+81250000000+81250000000+81875000000+82187500000
1600+82187500000+81875000000+81875000000+82187500000+82187500000+82187500000
1568+82500000000+82500000000+81875000000+79687500000+77500000000+76250000000
1537+75625000000+75625000000+75937500000+77187500000+79375000000+82500000000
1505+85000000000+86250000000+87187500000+88125000000+88437500000+89062500000
1474+89062500000+89062500000+87500000000+85312500000+83750000000+82187500000
1442+81875000000+81562500000+81250000000+80937500000+80937500000+80000000000
1411+78750000000+76250000000+74062500000+71250000000+68125000000+66250000000
1379+66250000000+70937500000+78437500000+83125000000+85312500000+86250000000
1347+86250000000+85312500000+83437500000+79687500000+72187500000+58125000000
1316+44687500000+33125000000+27500000000+26250000000+26562500000+29062500000
1284+28750000000+30625000000+33125000000+29687500000+29687500000+35312500000
1253+46875000000+46250000000+38749999999+39062500000+49687499999+64062500000
1221+78125000000+84375000000+87187500000+88125000000+87187500000+85000000000
1189+82187500000+77500000000+74062500000+70937500000+68750000000+68437500000
1158+70000000000+77500000000+82812500000+79687500000+77500000000+78125000000
1126+85625000000+90312500000+93125000000+93125000000+91562500000+85937500000
1095+79062500000+78750000000+82187500000+89062500000+92187500000+92500000000
1063+92812500000+93125000000+93750000000+94062500000+94375000000+94687500000
1032+94687500000+94062500000+93437500000+91875000000+89062500000+83437500000
1000+78750000000+78125000000+78750000000+80000000000+81250000000+82812500000
968+85000000000+86562500000+87500000000+88125000000+88750000000+88437500000
937+87500000000+86250000000+83750000000+79687500000+75312500000+74687500000
905+75000000000+74687500000+74375000000+74375000000+74687500000+75000000000
874+76250000000+78125000000+80000000000+81250000000+81562500000+81875000000
842+81250000000+80937500000+80625000000+80000000000+79375000000+79062500000
811+78437500000+78125000000+77500000000+77187500000+76875000000+76875000000
779+76562500000+76250000000+76250000000+75937500000+75937500000+75937500000
747+75937500000+75937500000+76250000000+76250000000+76250000000+76562500000
716+76562500000+76875000000+76875000000+77187500000+77500000000+77812500000
684+78125000000+78750000000+79062500000+79687500000+80000000000+80625000000
653+81250000000+81875000000+82187500000+82500000000+83125000000+83437500000
621+83750000000+84375000000+85000000000+85312500000+85937500000+86250000000
589+86875000000+87187500000+87500000000+87500000000+87187500000+86875000000
558+86562500000+86562500000+86562500000+86562500000+86875000000+87187500000
526+87500000000+87812500000+88125000000+88750000000+89375000000+90000000000
495+90625000000+90625000000+90937500000+90625000000+90312500000+90000000000
463+89687500000+89375000000+88750000000+88125000000+87500000000+86250000000
432+84687500000+82812500000+81250000000+79375000000+77500000000+76250000000
400+75937500000
##END=
