##TITLE=2-furoic acid
##JCAMP-DX=4.24
##DATA TYPE=INFRARED SPECTRUM
##DATE=10/06/2025
##SAMPLING PROCEDURE=ATR
##ORIGIN=SDBS
##XUNITS=1/CM
##YUNITS=TRANSMITTANCE
##RESOLUTION=5.2631578947368425
##FIRSTX=4000.0
##LASTX=400.0
##DELTAX=-5.2631578947368425
##MAXY=95.0
##MINY=0.0
##XFACTOR=1
##YFACTOR=1
##NPOINTS=685
##FIRSTY=0.0
##XYDATA=(X++(Y..Y))
4000+0+76562500000+76875000000+77187500000+77500000000+77500000000
3968+77812500000+77812500000+78125000000+78125000000+78125000000+78125000000
3937+78437500000+78437500000+78437500000+78437500000+78437500000+78750000000
3905+78750000000+78750000000+78750000000+78750000000+79062500000+79062500000
3874+79375000000+79375000000+79687500000+79687500000+80000000000+80312500000
3842+80625000000+80625000000+80625000000+80937500000+81250000000+81562500000
3811+81562500000+81875000000+81875000000+82187500000+82500000000+82500000000
3779+82500000000+82812500000+82812500000+82812500000+83125000000+83750000000
3747+84062500000+84375000000+84375000000+84687500000+84687500000+85000000000
3716+85312500000+85625000000+85625000000+85937500000+86562500000+86875000000
3684+86875000000+87187500000+87187500000+87187500000+87500000000+87500000000
3653+87812500000+88125000000+88125000000+88437500000+88437500000+88437500000
3621+88750000000+89062500000+89062500000+89375000000+89375000000+89375000000
3589+89375000000+89375000000+89375000000+89687500000+89687500000+90000000000
3558+89687500000+89687500000+89687500000+89687500000+89687500000+89375000000
3526+89062500000+88437500000+88125000000+88125000000+87812500000+87500000000
3495+86875000000+86250000000+85000000000+84375000000+83125000000+82187500000
3463+81250000000+80937500000+80312500000+79687500000+78750000000+78125000000
3432+76875000000+75312500000+73125000000+71875000000+67187500000+54375000000
3400+55000000000+60000000000+62500000000+67812500000+67500000000+66250000000
3368+65312500000+65000000000+63750000000+63125000000+62187500000+60625000000
3337+60000000000+59687500000+58437500000+57812500000+55625000000+53437500000
3305+50312500000+45625000000+37500000000+27812500000+16562500000+11562500000
3274+10625000000+11250000000+8125000000+5000000000+4687500000+5000000000
3242+7812500000+10625000000+13437500000+16562500000+18437500000+15312500000
3211+12500000000+10312500000+10312500000+18750000000+33437500000+44375000000
3179+50000000000+53437500000+55000000000+56250000000+58437500000+60312500000
3147+61875000000+63437500000+64687500000+65937500000+66875000000+67500000000
3116+67500000000+66250000000+62812500000+61875000000+61875000000+61875000000
3084+60000000000+59062500000+58437500000+58437500000+59687500000+60937500000
3053+63125000000+65625000000+66562500000+65312500000+62500000000+61562500000
3021+59687500000+58437500000+58437500000+58750000000+59375000000+59687500000
2989+60000000000+61250000000+62812500000+63750000000+64687500000+64687500000
2958+65000000000+65312500000+65625000000+67187500000+67187500000+68437500000
2926+69375000000+69687500000+70000000000+70312500000+70625000000+70937500000
2895+71875000000+71875000000+72500000000+73125000000+74062500000+74375000000
2863+75000000000+75625000000+76250000000+76562500000+77187500000+77812500000
2832+78437500000+78750000000+79375000000+80312500000+80937500000+81562500000
2800+82187500000+82500000000+82812500000+83437500000+83750000000+84062500000
2768+84687500000+85312500000+85625000000+85625000000+85937500000+85937500000
2737+85937500000+86562500000+87187500000+87500000000+88125000000+88750000000
2705+89687500000+90312500000+90625000000+90625000000+90937500000+90937500000
2674+91562500000+91562500000+91250000000+90312500000+89375000000+89062500000
2642+89062500000+89062500000+89687500000+90937500000+91875000000+92812500000
2611+93125000000+93750000000+93750000000+94062500000+94375000000+94375000000
2579+94687500000+94687500000+94687500000+95000000000+95000000000+94687500000
2547+94687500000+94375000000+94375000000+94062500000+93437500000+93437500000
2516+92812500000+92500000000+92187500000+92187500000+91875000000+91875000000
2484+91875000000+92187500000+92187500000+92500000000+92812500000+93125000000
2453+93125000000+93437500000+93437500000+93437500000+93750000000+93750000000
2421+93750000000+93750000000+93750000000+93750000000+93750000000+94062500000
2389+94062500000+94062500000+94062500000+94062500000+94062500000+94062500000
2358+93750000000+93750000000+93437500000+93125000000+93125000000+92812500000
2326+92187500000+91562500000+90937500000+90625000000+90625000000+90312500000
2295+89687500000+89062500000+87812500000+86562500000+85312500000+83125000000
2263+80625000000+78125000000+76250000000+72812500000+68750000000+62812500000
2232+55937500000+49375000000+44062500000+37812500000+33437500000+29062500000
2200+25625000000+23125000000+21562500000+20000000000+19687500000+19687500000
2168+20625000000+21875000000+24062500000+26875000000+30000000000+33125000000
2137+37187499999+41562500000+45625000000+49062500000+52812500000+56250000000
2105+60000000000+63125000000+65937500000+68437500000+71250000000+72812500000
2074+72812500000+72812500000+74375000000+76562500000+73437500000+62187500000
2042+47500000000+39062500000+38749999999+43125000000+50312500000+46562499999
2011+51562500000+62812500000+69062500000+72500000000+75937500000+76875000000
1979+77500000000+77812500000+77812500000+78437500000+81250000000+83750000000
1947+87187500000+90000000000+91875000000+92812500000+91875000000+87500000000
1916+80625000000+65000000000+50000000000+40937500000+34375000000+29687500000
1884+26562500000+20937500000+20000000000+21562500000+26875000000+31250000000
1853+35000000000+42812500000+48437500000+53125000000+57187500000+48124999999
1821+37812500000+37187499999+39375000000+45937500000+53437500000+60000000000
1789+64375000000+68437500000+71875000000+73437500000+69687500000+56875000000
1758+48437500000+49375000000+49375000000+53750000000+63125000000+65937500000
1726+70625000000+76562500000+78750000000+80625000000+82187500000+82500000000
1695+79375000000+71250000000+56250000000+46250000000+39687500000+36250000000
1663+34375000000+33750000000+33125000000+33125000000+33125000000+33750000000
1632+36250000000+40937500000+45625000000+52187500000+57500000000+61875000000
1600+65312500000+68750000000+71875000000+74687500000+76562500000+78750000000
1568+80000000000+79375000000+56562500000+44999999999+52812500000+72500000000
1537+77812500000+81875000000+84687500000+85625000000+84375000000+72187500000
1505+52187500000+46250000000+38749999999+38437500000+47187500000+50312500000
1474+51562500000+59375000000+64687500000+68750000000+72500000000+75625000000
1442+77500000000+79062500000+79687500000+78437500000+77812500000+77812500000
1411+65625000000+39687500000+38749999999+44999999999+61562500000+70000000000
1379+75312500000+77500000000+80000000000+81250000000+82500000000+83437500000
1347+83750000000+81875000000+67500000000+66250000000+74375000000+80000000000
1316+81562500000+82500000000+83750000000+84687500000+85625000000+85937500000
1284+85625000000+84687500000+83125000000+76562500000+63437500000+44062500000
1253+36875000000+41562500000+59062500000+69062500000+73750000000+76875000000
1221+79062500000+80625000000+81562500000+82500000000+82812500000+83125000000
1189+83125000000+83125000000+83125000000+82812500000+82187500000+81562500000
1158+80312500000+77500000000+73437500000+61875000000+43750000000+43750000000
1126+52187500000+60625000000+63750000000+65312500000+67500000000+70625000000
1095+74062500000+78125000000+75937500000+64375000000+52187500000+41562500000
1063+59687500000+70937500000+75937500000+78437500000+81875000000+82812500000
1032+84375000000+81250000000+80625000000+82187500000+86250000000+87812500000
1000+88437500000+88437500000+88437500000+88437500000+88437500000+88125000000
968+88125000000+88125000000+88125000000+88125000000+87812500000+87500000000
937+86250000000+84375000000+80312500000+74375000000+61250000000+50937500000
905+48124999999+44999999999+41562500000+40937500000+45312500000+61562500000
874+69687500000+75625000000+78437500000+79375000000+80000000000+79375000000
842+79062500000+79375000000+82812500000+86250000000+88125000000+89062500000
811+90312500000+90937500000+91562500000+91875000000+91562500000+91250000000
779+90937500000+90937500000+90625000000+90625000000+90625000000+90937500000
747+91562500000+92187500000+92812500000+93437500000+93437500000+93750000000
716+94062500000+94062500000+94062500000+93750000000+93125000000+91875000000
684+84687500000+73437500000+79375000000+89687500000+65312500000+67812500000
653+89687500000+92500000000+93750000000+92500000000+90000000000+85937500000
621+81250000000+74375000000+64687500000+58750000000+58437500000+61250000000
589+70000000000+75625000000+79687500000+85000000000+87500000000+88750000000
558+89687500000+90000000000+90000000000+90312500000+90312500000+90312500000
526+90312500000+90312500000+90312500000+90000000000+89687500000+89687500000
495+90000000000+90312500000+90937500000+91562500000+92187500000+92500000000
463+92812500000+92500000000+91250000000+89375000000+87187500000+84062500000
432+80937500000+78437500000+76562500000+75000000000+73750000000+73125000000
400+72812500000
##END=
