##TITLE=2-furoic acid
##JCAMP-DX=4.24
##DATA TYPE=INFRARED SPECTRUM
##DATE=04/06/2025
##SAMPLING PROCEDURE=ATR
##ORIGIN=SDBS
##XUNITS=1/CM
##YUNITS=TRANSMITTANCE
##RESOLUTION=6.010016694490818
##FIRSTX=4000.0
##LASTX=400.0
##DELTAX=-6.010016694490818
##MAXY=0.9949570394448742
##MINY=0.0040575712195106695
##XFACTOR=1
##YFACTOR=1
##NPOINTS=600
##FIRSTY=0.21617563688564578
##XYDATA=(X++(Y..Y))
4000+216175636+321901422+107431973+687194635+684396883+457678873
3964+980972714+814757514+163979775+603867558+64979102+650911705
3928+719836607+959107114+322257299+76459161+651688110+747059278
3892+583342743+695703387+208695182+506728882+626967790+691020298
3856+318265973+139701969+18154262+614530033+911759077+909428739
3820+168453414+686700974+43476718+843369912+434044378+61049927
3784+424223069+826988205+226201319+161613111+883380890+54482734
3748+469472716+922519375+153808210+203362260+477680087+785114725
3712+652957289+917337199+129657628+104566723+722021382+107801642
3675+734750960+797518999+106833033+101987580+307930876+683298449
3639+168175842+934852033+563680085+865458042+604040453+523369103
3603+858062186+899394740+759366997+502409342+800962150+952042783
3567+305175745+347119435+909575460+825897638+424828787+166177691
3531+834259490+848761453+848559897+347716951+257292760+241300224
3495+221074923+160813762+395150055+623887703+789779731+157360626
3459+492171179+664271116+21668256+414394504+136255178+924304545
3423+406588264+849592384+210969024+968023071+53712025+905381825
3387+224319158+918925530+872858060+499564750+770091224+221633781
3351+428239553+384624486+826369640+450033118+136699594+561766423
3315+49126572+799353400+834654990+295824251+742869578+633702974
3279+686397242+847369893+426143623+913747173+739569135+258412285
3243+898466982+588433245+533581528+385177541+273127403+82887742
3207+703664318+512895491+815877251+351018679+684286657+933229849
3171+753481704+674546481+828397355+240821575+855987188+159234477
3135+217957847+57208634+310311899+445820116+931758557+549108457
3098+633493223+183704022+957794321+300193349+760218589+968978342
3062+265723795+13660492+484157120+460358941+187257154+116786605
3026+325352771+881830632+278672723+156789309+423850240+833921251
2990+474147834+81822518+28541474+909943739+193554888+260958725
2954+654818276+883161036+689202280+215503319+987072083+116642177
2918+587138537+112265351+812322501+422618210+106941306+417637587
2882+309024503+640231810+440552673+428537111+959768084+685993175
2846+929333158+877864603+142852175+500534008+108664623+693628856
2810+933511788+13499029+994957039+699307155+4558917+915467421
2774+794164021+908092481+757441963+592413625+473381930+738728733
2738+377049406+117259645+877697644+534650116+72002856+87504738
2702+205904629+88796251+902164798+565297567+525853433+407882620
2666+721660801+330773248+730704746+301635863+49458363+462124207
2630+43534142+742253041+616522054+677856385+409825552+154899689
2594+669508748+437548919+60353147+686156790+128628169+291576050
2558+835351952+686193137+329763319+882540376+115707846+748644689
2522+856193602+377019804+448920252+690632244+524126691+280031827
2485+349562691+862117935+771972096+840368913+38937397+399396575
2449+858196288+758671242+940111413+553477942+417510946+821367953
2413+55038888+66247069+355025108+874629486+133239822+222283158
2377+429636908+282191210+552302958+506877269+261231362+174467993
2341+296810588+791639523+425032623+705069568+121931672+338870422
2305+624377865+131733842+932269355+898737331+345425210+33143711
2269+384481621+364454616+633287864+906862864+136263418+28451888
2233+895498085+44821696+630976998+23073682+958417018+203344126
2197+586786137+81471329+435907627+140671900+925692369+852903584
2161+93324285+789933263+316400102+837079436+257959528+341351815
2125+30037360+172679638+862473877+908172027+915313616+943479597
2089+806647521+712133972+515214772+810162233+849344053+142086919
2053+10336483+81706858+500095838+210636376+447414916+665459167
2017+364004060+814410943+715413301+295391703+464230261+152856090
1981+65608234+547671444+904809188+698100375+507568012+784858064
1945+854791022+343925471+468805333+609358999+806600803+37254488
1909+52371827+320117160+516958255+850392906+389631132+237553042
1872+139789434+210129277+52435292+293807747+141962271+661425397
1836+9632431+742240141+716804540+725716416+27416064+174808370
1800+988573462+239426890+914648876+844250914+763771879+870699348
1764+814411500+507894282+401106246+201841395+632252369+194549517
1728+452901113+61169535+580810018+849645903+758525099+667308726
1692+562202256+465338237+242903662+495329670+339988088+724391868
1656+306221469+113341444+386987842+977612974+731226098+398423631
1620+587098275+653233637+427808968+377986716+481177575+468185048
1584+916887414+383059592+238930239+417530787+168533770+937699945
1548+656089059+142834129+935710564+31811343+988879905+370634640
1512+425840284+671408905+916395449+673560565+267197412+528975446
1476+432211141+830256525+660917902+609083570+718674484+490808690
1440+30474677+971353564+915441363+819706725+194391314+185297081
1404+601924272+686312467+404137049+830562682+154762423+980750880
1368+498350569+859807824+930888663+959161447+52115054+706597653
1332+390479487+131158307+970024747+394386681+834606944+945281673
1295+308393518+615215717+303396468+698298142+420707703+413906070
1259+699786559+464674897+228629271+52067938+519269353+596677770
1223+702781260+650790664+771644301+753597038+133005095+50547311
1187+860162520+655478648+292978268+911955891+715568211+61642749
1151+219826475+627832287+76168298+669068944+315101014+157201674
1115+803216254+729987145+283578218+84434049+825146174+769160422
1079+413020723+302358270+423782705+231443665+157486301+886720583
1043+786428535+217836748+889312361+857475501+782464293+175499346
1007+120983015+10841732+664915970+450108760+975169041+688595799
971+238204323+141693158+749157662+250618810+937194025+762476622
935+101907099+169293266+107085689+170881098+865263835+187799746
899+38940906+817553505+615242562+948442368+145119974+679160427
863+618092882+270191346+85632762+202123556+845428744+912963281
827+743454991+852959671+236416991+214507861+887191868+990018708
791+946173223+976280645+745072872+807918329+343769153+247044021
755+753841647+360866246+111269508+256202696+212282968+490967313
719+111446461+916435600+861206559+543345137+502461079+985253635
682+798834963+333601831+276214914+734123413+665927438+442003386
646+642767661+164797748+4057571+925851691+644502974+265362992
610+304639473+50666691+196970629+777489654+438908026+497642688
574+882175177+31529677+174057528+564400389+941329829+317160877
538+128180182+963431753+676356268+985975008+46257903+125878851
502+801153135+257483950+985199778+62294799+777017815+212147604
466+709951424+334266575+9526007+575582265+262730185+749976274
430+479096960+729216257+521320440+191863598+930874330+348181065
##END=
