##TITLE=2-heptanone
##JCAMP-DX=4.24
##DATA TYPE=INFRARED SPECTRUM
##DATE=10/06/2025
##SAMPLING PROCEDURE=ATR
##ORIGIN=SDBS
##XUNITS=1/CM
##YUNITS=TRANSMITTANCE
##RESOLUTION=5.2631578947368425
##FIRSTX=4000.0
##LASTX=400.0
##DELTAX=-5.2631578947368425
##MAXY=95.0
##MINY=0.0
##XFACTOR=1
##YFACTOR=1
##NPOINTS=685
##FIRSTY=0.0
##XYDATA=(X++(Y..Y))
4000+0+94375000000+94375000000+94375000000+94375000000+94375000000
3968+94375000000+94687500000+94687500000+95000000000+95000000000+95000000000
3937+94687500000+94687500000+94375000000+94375000000+94375000000+94687500000
3905+94687500000+94687500000+94687500000+94687500000+94375000000+94375000000
3874+94375000000+94375000000+94687500000+94687500000+94687500000+94687500000
3842+94375000000+94375000000+94375000000+94375000000+94375000000+94375000000
3811+94375000000+94375000000+94062500000+93750000000+93437500000+92812500000
3779+92500000000+92187500000+91875000000+91562500000+90937500000+90312500000
3747+90000000000+89687500000+89687500000+89687500000+89687500000+89687500000
3716+89687500000+89687500000+89375000000+89062500000+88437500000+88437500000
3684+88125000000+87812500000+87500000000+87500000000+87500000000+87812500000
3653+87812500000+88125000000+88437500000+88750000000+89062500000+89375000000
3621+89375000000+89062500000+88750000000+87812500000+85937500000+85625000000
3589+85937500000+86562500000+87500000000+88750000000+89375000000+90000000000
3558+90312500000+90312500000+90625000000+90625000000+90625000000+90625000000
3526+90625000000+90312500000+90312500000+90000000000+89687500000+89687500000
3495+89375000000+89375000000+89375000000+89062500000+89062500000+88750000000
3463+88750000000+88437500000+88437500000+88437500000+88750000000+88750000000
3432+88750000000+89062500000+89375000000+89375000000+89375000000+89687500000
3400+90000000000+90000000000+90312500000+90312500000+90312500000+90000000000
3368+89687500000+89687500000+89375000000+89062500000+88437500000+87500000000
3337+86875000000+86250000000+84375000000+81875000000+76875000000+71562500000
3305+69687500000+67500000000+57812500000+41874999999+20625000000+13750000000
3274+13750000000+17812500000+13750000000+12500000000+14375000000+19375000000
3242+27187500000+33125000000+37500000000+40000000000+29687500000+28750000000
3211+29375000000+29687500000+40000000000+57812500000+70625000000+76250000000
3179+80625000000+83125000000+84687500000+85937500000+87500000000+89062500000
3147+90312500000+90937500000+91562500000+91250000000+91250000000+90937500000
3116+90937500000+91562500000+91875000000+92187500000+92500000000+92187500000
3084+92187500000+92187500000+92187500000+92187500000+92500000000+92812500000
3053+93125000000+93437500000+93437500000+93750000000+93750000000+93750000000
3021+93750000000+93750000000+93750000000+94062500000+94062500000+94375000000
2989+94375000000+94375000000+94375000000+94375000000+94375000000+94687500000
2958+94687500000+94687500000+94687500000+94687500000+94687500000+94687500000
2926+94687500000+95000000000+95000000000+94687500000+94687500000+94687500000
2895+94687500000+94687500000+94687500000+94687500000+94375000000+94375000000
2863+94375000000+94375000000+94375000000+94375000000+94062500000+94062500000
2832+94062500000+94062500000+94062500000+94062500000+94062500000+94062500000
2800+94062500000+94375000000+94375000000+94375000000+94375000000+94375000000
2768+94375000000+94375000000+94375000000+94062500000+94062500000+94062500000
2737+94062500000+94062500000+94062500000+94062500000+93437500000+94062500000
2705+94062500000+94062500000+94062500000+94062500000+94062500000+94062500000
2674+94062500000+94062500000+94062500000+94375000000+94375000000+94375000000
2642+94375000000+94375000000+94375000000+94375000000+94375000000+94375000000
2611+94375000000+94375000000+94375000000+94375000000+94375000000+94375000000
2579+94375000000+94375000000+94375000000+94062500000+94062500000+94062500000
2547+94062500000+94062500000+94062500000+94375000000+94375000000+94062500000
2516+94062500000+94062500000+94062500000+94062500000+94062500000+94062500000
2484+94062500000+94062500000+94062500000+94062500000+94062500000+94062500000
2453+93750000000+93750000000+93750000000+93750000000+93750000000+93437500000
2421+93437500000+93437500000+93437500000+93437500000+93437500000+93437500000
2389+93437500000+93125000000+93125000000+93125000000+93125000000+92812500000
2358+92500000000+92187500000+91875000000+91562500000+91250000000+90937500000
2326+90625000000+90000000000+89687500000+88750000000+87812500000+86875000000
2295+85937500000+84687500000+82812500000+81250000000+79687500000+77500000000
2263+74375000000+70625000000+65312500000+57500000000+45625000000+27812500000
2232+11875000000+5937500000+4687500000+4687500000+6562500000+10312500000
2200+20312500000+34375000000+48750000000+58437500000+66250000000+71562500000
2168+74062500000+75000000000+76562500000+79375000000+81562500000+83125000000
2137+84062500000+85000000000+85625000000+85625000000+85937500000+86250000000
2105+86875000000+87187500000+87500000000+87812500000+88437500000+88750000000
2074+89375000000+89687500000+90000000000+90312500000+90312500000+90625000000
2042+90625000000+90625000000+90625000000+90312500000+90312500000+90312500000
2011+90000000000+90000000000+89687500000+89687500000+89375000000+89375000000
1979+89062500000+88750000000+88437500000+88125000000+88125000000+87812500000
1947+87812500000+87500000000+87500000000+87187500000+86875000000+86250000000
1916+85625000000+84687500000+84062500000+82500000000+80312500000+76250000000
1884+68125000000+55000000000+47812500000+48437500000+48124999999+49062500000
1853+51562500000+55625000000+58125000000+57812500000+56875000000+55625000000
1821+54375000000+53437500000+52812500000+51250000000+48437500000+48437500000
1789+49375000000+55312500000+62500000000+66250000000+66562500000+62500000000
1758+54062500000+45937500000+42812500000+36875000000+31562500000+30937500000
1726+30312500000+30312500000+31562500000+38437500000+46875000000+56875000000
1695+64062500000+71562500000+75000000000+77500000000+78437500000+77187500000
1663+75312500000+75312500000+76562500000+77187500000+77500000000+76250000000
1632+75625000000+75625000000+75937500000+77500000000+79375000000+79375000000
1600+79375000000+79687500000+80937500000+82187500000+81562500000+77187500000
1568+70937500000+70000000000+70000000000+69687500000+67500000000+63437500000
1537+63125000000+65000000000+69687500000+74062500000+76250000000+77812500000
1505+77812500000+78125000000+77187500000+76250000000+73125000000+68750000000
1474+60937500000+48750000000+35000000000+30625000000+30625000000+37500000000
1442+52812500000+66250000000+73750000000+79062500000+83125000000+84687500000
1411+85625000000+85937500000+84687500000+82812500000+81250000000+78750000000
1379+78437500000+79687500000+81875000000+85000000000+87812500000+88750000000
1347+89687500000+90312500000+90312500000+90312500000+90312500000+90312500000
1316+90312500000+90312500000+90312500000+90312500000+90312500000+90000000000
1284+90000000000+89687500000+89375000000+88750000000+88437500000+87812500000
1253+87500000000+87500000000+87500000000+87500000000+87500000000+87500000000
1221+87500000000+87187500000+86875000000+86562500000+85312500000+84062500000
1189+83750000000+83750000000+84687500000+85312500000+85625000000+84375000000
1158+82500000000+81250000000+80312500000+80000000000+80000000000+80312500000
1126+80937500000+81562500000+82812500000+84375000000+86562500000+88437500000
1095+89687500000+89687500000+89687500000+90312500000+90937500000+91562500000
1063+91875000000+91875000000+91875000000+92187500000+92187500000+92187500000
1032+92500000000+92812500000+93125000000+93125000000+93437500000+93437500000
1000+93437500000+93125000000+92812500000+92812500000+92500000000+92500000000
968+92187500000+92187500000+92187500000+92187500000+92500000000+92500000000
937+92812500000+92812500000+92812500000+92812500000+92500000000+92187500000
905+92187500000+91875000000+91562500000+91562500000+91250000000+91250000000
874+90937500000+90625000000+89687500000+87812500000+85312500000+80625000000
842+75625000000+74687500000+76562500000+84375000000+88437500000+90937500000
811+92500000000+93750000000+94062500000+94375000000+94375000000+94687500000
779+94687500000+94687500000+95000000000+95000000000+94687500000+94687500000
747+94687500000+94687500000+94375000000+94375000000+94375000000+94062500000
716+94062500000+93750000000+93437500000+93125000000+93125000000+91875000000
684+89687500000+85312500000+80000000000+78125000000+77812500000+78750000000
653+81250000000+85000000000+87187500000+89062500000+90312500000+91250000000
621+91562500000+91875000000+91250000000+90625000000+88437500000+86250000000
589+85312500000+85000000000+85000000000+85000000000+85312500000+85937500000
558+86562500000+87187500000+87812500000+87812500000+87500000000+86875000000
526+85937500000+85312500000+84687500000+84062500000+83750000000+83437500000
495+83437500000+84062500000+84687500000+85625000000+86562500000+87500000000
463+88437500000+88437500000+88125000000+87187500000+86250000000+85000000000
432+83750000000+82500000000+81562500000+80625000000+79687500000+79375000000
400+79062500000
##END=
