##TITLE=2-methyl-1,5-hexadiene
##JCAMP-DX=4.24
##DATA TYPE=INFRARED SPECTRUM
##DATE=10/06/2025
##SAMPLING PROCEDURE=ATR
##ORIGIN=SDBS
##XUNITS=1/CM
##YUNITS=TRANSMITTANCE
##RESOLUTION=5.2631578947368425
##FIRSTX=4000.0
##LASTX=400.0
##DELTAX=-5.2631578947368425
##MAXY=95.0
##MINY=0.0
##XFACTOR=1
##YFACTOR=1
##NPOINTS=685
##FIRSTY=0.0
##XYDATA=(X++(Y..Y))
4000+0+89062500000+89062500000+89062500000+89062500000+88750000000
3968+88750000000+88750000000+88750000000+89062500000+89375000000+89375000000
3937+89687500000+89687500000+89687500000+89687500000+90000000000+90312500000
3905+90625000000+90937500000+91250000000+91250000000+91562500000+91562500000
3874+91875000000+91875000000+92187500000+92187500000+92187500000+92187500000
3842+92187500000+92187500000+92187500000+92187500000+92500000000+92500000000
3811+92812500000+92812500000+92812500000+92500000000+92500000000+92187500000
3779+92187500000+92187500000+92187500000+92187500000+92187500000+92187500000
3747+91875000000+91250000000+90625000000+90000000000+89687500000+89687500000
3716+89687500000+89687500000+89687500000+90000000000+90312500000+90625000000
3684+90937500000+91250000000+91250000000+91250000000+91250000000+91250000000
3653+91250000000+91250000000+90937500000+90937500000+90937500000+90937500000
3621+90937500000+90937500000+91250000000+91562500000+91562500000+91875000000
3589+91875000000+91875000000+91875000000+91562500000+91562500000+91562500000
3558+91562500000+91562500000+91562500000+91562500000+91562500000+91562500000
3526+91562500000+91875000000+91875000000+91875000000+91875000000+91875000000
3495+91875000000+91875000000+91875000000+91875000000+91875000000+91875000000
3463+91875000000+91875000000+91562500000+91250000000+90937500000+90625000000
3432+90000000000+89375000000+88437500000+87500000000+86250000000+85000000000
3400+83437500000+81875000000+78437500000+73437500000+64375000000+48437500000
3368+20312500000+11250000000+10625000000+16250000000+29062500000+45312500000
3337+56875000000+61250000000+59062500000+53437500000+40625000000+29062500000
3305+24062500000+18125000000+11250000000+10000000000+9687500000+16562500000
3274+20625000000+9687500000+6250000000+6562500000+8750000000+9062500000
3242+10000000000+11875000000+14687500000+17500000000+21562500000+25937500000
3211+23437500000+19375000000+19062500000+22500000000+31875000000+40937500000
3179+56875000000+67812500000+74375000000+77812500000+80312500000+82187500000
3147+84687500000+85937500000+86562500000+86875000000+85625000000+78750000000
3116+78125000000+83437500000+86875000000+87812500000+89062500000+89687500000
3084+89687500000+89687500000+89687500000+89687500000+90000000000+90625000000
3053+90937500000+91562500000+91875000000+92187500000+92187500000+92187500000
3021+92187500000+91875000000+91875000000+91875000000+91875000000+92187500000
2989+92500000000+92500000000+92812500000+92812500000+92812500000+92812500000
2958+92812500000+92812500000+92500000000+92500000000+92812500000+92812500000
2926+93125000000+93125000000+93437500000+93125000000+93125000000+92812500000
2895+92812500000+92812500000+93125000000+93437500000+93437500000+93437500000
2863+93437500000+93437500000+93437500000+93437500000+93437500000+93437500000
2832+93437500000+93437500000+93437500000+93437500000+93437500000+93125000000
2800+93125000000+93125000000+93437500000+93750000000+94062500000+94062500000
2768+93750000000+93437500000+93437500000+93437500000+93750000000+94062500000
2737+94062500000+94375000000+94687500000+94687500000+94687500000+94687500000
2705+94687500000+94687500000+94687500000+94687500000+95000000000+94687500000
2674+94375000000+94062500000+94062500000+93750000000+93437500000+93437500000
2642+93437500000+93750000000+94062500000+94062500000+94062500000+93750000000
2611+93437500000+92812500000+91875000000+90937500000+90312500000+90312500000
2579+90312500000+91250000000+92187500000+92812500000+93125000000+93437500000
2547+93750000000+93750000000+93750000000+94062500000+94062500000+94062500000
2516+94062500000+93750000000+93750000000+93437500000+93437500000+93437500000
2484+93125000000+93125000000+93125000000+93125000000+93125000000+93125000000
2453+93125000000+93125000000+92812500000+92812500000+92500000000+91875000000
2421+91562500000+90937500000+90000000000+88750000000+86875000000+84687500000
2389+80937500000+75937500000+71250000000+70000000000+69687500000+71562500000
2358+75625000000+79687500000+82187500000+84062500000+83437500000+81250000000
2326+78437500000+75625000000+73750000000+73437500000+73750000000+76562500000
2295+80312500000+83750000000+86875000000+88750000000+90000000000+90625000000
2263+90937500000+90625000000+90000000000+88125000000+86875000000+86875000000
2232+87500000000+87500000000+87812500000+88125000000+88125000000+87500000000
2200+86562500000+86250000000+85937500000+84687500000+83125000000+81562500000
2168+79375000000+75625000000+71250000000+64375000000+55312500000+42812500000
2137+25937500000+14687500000+12500000000+12500000000+10000000000+12812500000
2105+27812500000+44687500000+57187500000+64062500000+66562500000+69062500000
2074+72500000000+77500000000+80312500000+81562500000+82500000000+83125000000
2042+83750000000+84375000000+85312500000+85937500000+86250000000+85937500000
2011+85625000000+85000000000+84375000000+84375000000+84062500000+83750000000
1979+84062500000+84062500000+84375000000+84687500000+85000000000+85312500000
1947+85625000000+85625000000+85312500000+84687500000+84062500000+82812500000
1916+81562500000+80000000000+77500000000+75000000000+71875000000+67187500000
1884+60312500000+52812500000+41874999999+31562500000+22812500000+18750000000
1853+15000000000+13125000000+13125000000+15000000000+17500000000+21250000000
1821+25000000000+29687500000+34375000000+35937500000+35937500000+42812500000
1789+51562500000+59062500000+63750000000+65312500000+64062500000+60937500000
1758+53750000000+40000000000+21562500000+21562500000+38749999999+58750000000
1726+68125000000+73750000000+76875000000+79062500000+80000000000+80000000000
1695+79375000000+79375000000+80312500000+80625000000+80000000000+79375000000
1663+78750000000+78125000000+76250000000+72187500000+69062500000+69062500000
1632+70937500000+72812500000+74062500000+74375000000+68125000000+65937500000
1600+68437500000+75625000000+79687500000+80625000000+78437500000+74375000000
1568+74375000000+76562500000+78437500000+76875000000+76562500000+75937500000
1537+70625000000+68750000000+71250000000+76875000000+78125000000+78750000000
1505+79375000000+79375000000+79375000000+80312500000+82187500000+83437500000
1474+83750000000+83125000000+82812500000+83125000000+84687500000+86875000000
1442+88125000000+88750000000+89062500000+89375000000+88750000000+88125000000
1411+87187500000+85625000000+83750000000+80312500000+75937500000+72500000000
1379+70937500000+70937500000+71875000000+75625000000+80000000000+82500000000
1347+84375000000+85000000000+85625000000+85000000000+83750000000+82187500000
1316+80312500000+77812500000+76250000000+74687500000+73125000000+71562500000
1284+70312500000+69062500000+67500000000+65312500000+63437500000+62812500000
1253+62187500000+60625000000+55937500000+47500000000+36562500000+24062500000
1221+16250000000+15625000000+18750000000+30312500000+43750000000+49375000000
1189+50312500000+52500000000+57500000000+60312500000+61875000000+63125000000
1158+64062500000+62812500000+60937500000+57500000000+51875000000+43437499999
1126+34375000000+23125000000+13125000000+7187500000+6250000000+6250000000
1095+7812500000+11562500000+10937500000+6875000000+4687500000+4687500000
1063+5937500000+10937500000+22812500000+38125000000+51250000000+59375000000
1032+66250000000+70937500000+75000000000+77500000000+79375000000+80000000000
1000+80312500000+80625000000+81562500000+83750000000+86250000000+87812500000
968+89687500000+90625000000+91562500000+92187500000+92812500000+93125000000
937+92812500000+91875000000+90000000000+87500000000+85312500000+85000000000
905+85625000000+87500000000+89687500000+91562500000+92812500000+93750000000
874+94375000000+94687500000+94687500000+94375000000+93750000000+93125000000
842+91875000000+90312500000+87187500000+83125000000+81562500000+81875000000
811+86250000000+89687500000+91562500000+91875000000+91562500000+90937500000
779+90312500000+89375000000+88437500000+86562500000+84062500000+81250000000
747+76562500000+71562500000+66562500000+63125000000+57500000000+50000000000
716+43750000000+42500000000+43125000000+49375000000+59062500000+67812500000
684+73750000000+78750000000+82500000000+85312500000+86875000000+88125000000
653+89062500000+89687500000+89375000000+88437500000+86562500000+83750000000
621+79375000000+75625000000+74687500000+75000000000+75937500000+75937500000
589+72500000000+65625000000+53750000000+48124999999+48437500000+59375000000
558+69687500000+75312500000+77812500000+81875000000+85000000000+87500000000
526+89687500000+91562500000+92812500000+93750000000+93750000000+92812500000
495+90625000000+88125000000+85937500000+83125000000+80625000000+78125000000
463+76250000000+74062500000+72812500000+72187500000+72187500000+72500000000
432+73750000000+75625000000+77187500000+78750000000+80000000000+81250000000
400+81875000000
##END=
