##TITLE=2-methyl-1-octene
##JCAMP-DX=4.24
##DATA TYPE=INFRARED SPECTRUM
##DATE=10/06/2025
##SAMPLING PROCEDURE=ATR
##ORIGIN=SDBS
##XUNITS=1/CM
##YUNITS=TRANSMITTANCE
##RESOLUTION=5.2631578947368425
##FIRSTX=4000.0
##LASTX=400.0
##DELTAX=-5.2631578947368425
##MAXY=95.0
##MINY=0.0
##XFACTOR=1
##YFACTOR=1
##NPOINTS=685
##FIRSTY=0.0
##XYDATA=(X++(Y..Y))
4000+0+91562500000+91250000000+91250000000+91250000000+91250000000
3968+91250000000+91250000000+90937500000+90937500000+90937500000+90937500000
3937+91250000000+91250000000+90937500000+90625000000+90625000000+90625000000
3905+90625000000+90625000000+90625000000+90625000000+90625000000+90625000000
3874+90625000000+90625000000+90937500000+90625000000+90625000000+90312500000
3842+90312500000+90312500000+90312500000+90000000000+90000000000+90000000000
3811+90000000000+90312500000+90312500000+90000000000+90000000000+90000000000
3779+90000000000+90000000000+90000000000+90000000000+90000000000+89687500000
3747+89375000000+89062500000+89062500000+88750000000+88750000000+88750000000
3716+88437500000+88437500000+88125000000+88125000000+87812500000+87812500000
3684+87500000000+87187500000+87187500000+86875000000+86562500000+86250000000
3653+86250000000+85937500000+85937500000+85937500000+85937500000+85937500000
3621+85625000000+85625000000+85625000000+85312500000+85000000000+85000000000
3589+85000000000+85312500000+85312500000+85312500000+85312500000+85312500000
3558+85312500000+85312500000+85625000000+85625000000+85625000000+85625000000
3526+85625000000+85312500000+85312500000+85312500000+85312500000+85312500000
3495+85000000000+85000000000+85000000000+85000000000+85312500000+85312500000
3463+85625000000+85625000000+85312500000+85312500000+85312500000+85312500000
3432+85312500000+85312500000+85312500000+85312500000+85312500000+85625000000
3400+85625000000+85625000000+85312500000+84687500000+83437500000+81250000000
3368+70312500000+63437500000+54062500000+57500000000+73750000000+78125000000
3337+80000000000+80000000000+79062500000+77187500000+75937500000+71250000000
3305+64375000000+54375000000+43437499999+29375000000+14687500000+11250000000
3274+11250000000+13750000000+6562500000+4687500000+4687500000+7187500000
3242+13125000000+19687500000+24687500000+29062500000+22187500000+21562500000
3211+15625000000+15312500000+19687500000+36875000000+52187500000+60000000000
3179+67812500000+74375000000+78437500000+80625000000+82187500000+83750000000
3147+85000000000+85625000000+86250000000+86250000000+85625000000+83750000000
3116+83437500000+85000000000+86250000000+87187500000+87500000000+87500000000
3084+87187500000+87187500000+87187500000+87187500000+87812500000+88125000000
3053+88437500000+88750000000+89062500000+89375000000+89687500000+89687500000
3021+89687500000+89687500000+90000000000+90000000000+90312500000+90625000000
2989+90625000000+90625000000+90937500000+90937500000+90937500000+90937500000
2958+91250000000+91250000000+91250000000+91562500000+91562500000+91562500000
2926+91562500000+91562500000+91562500000+91562500000+91562500000+91562500000
2895+91562500000+91562500000+91562500000+91562500000+91562500000+91562500000
2863+91875000000+91875000000+91875000000+91875000000+91875000000+91875000000
2832+91875000000+91875000000+91875000000+91875000000+91875000000+91875000000
2800+91875000000+91875000000+92187500000+92187500000+92187500000+92187500000
2768+92187500000+92187500000+92187500000+92187500000+92187500000+92187500000
2737+92500000000+92500000000+92500000000+92500000000+92500000000+92500000000
2705+92812500000+92812500000+92812500000+92812500000+92812500000+92812500000
2674+92812500000+92812500000+92812500000+92812500000+92812500000+92812500000
2642+92812500000+92812500000+92812500000+92812500000+92812500000+93125000000
2611+93125000000+93125000000+93125000000+93125000000+93125000000+93125000000
2579+93125000000+93125000000+93125000000+93125000000+93437500000+93437500000
2547+93437500000+93437500000+93437500000+93437500000+93437500000+93437500000
2516+93437500000+93437500000+93437500000+93437500000+93437500000+93437500000
2484+93437500000+93437500000+93437500000+93437500000+93437500000+93437500000
2453+93437500000+93437500000+93437500000+93437500000+93437500000+93125000000
2421+93125000000+93125000000+93125000000+93125000000+93125000000+93125000000
2389+93125000000+93125000000+93125000000+93125000000+93125000000+93125000000
2358+93125000000+93125000000+92812500000+92500000000+92187500000+91875000000
2326+90937500000+90000000000+89062500000+87812500000+87500000000+87812500000
2295+88750000000+89687500000+90625000000+91250000000+91250000000+90937500000
2263+90625000000+89375000000+88125000000+85937500000+85937500000+85937500000
2232+86250000000+86562500000+86875000000+87187500000+87812500000+88125000000
2200+87812500000+87812500000+87812500000+88437500000+89062500000+89375000000
2168+89375000000+89375000000+89062500000+87500000000+85312500000+81250000000
2137+70937500000+55937500000+52500000000+55312500000+68125000000+78437500000
2105+84062500000+86562500000+88750000000+90312500000+91250000000+91875000000
2074+92812500000+93437500000+94062500000+94375000000+94687500000+95000000000
2042+94687500000+94687500000+94375000000+94062500000+93750000000+93437500000
2011+93125000000+93125000000+92812500000+92812500000+92500000000+92187500000
1979+92187500000+91875000000+91562500000+91562500000+91250000000+91250000000
1947+90937500000+90625000000+90625000000+90312500000+89687500000+89062500000
1916+88437500000+87812500000+86562500000+84687500000+82500000000+78750000000
1884+70625000000+55625000000+47500000000+47812500000+44999999999+44375000000
1853+44687500000+47500000000+50312500000+53750000000+58125000000+63125000000
1821+67812500000+71562500000+75312500000+78750000000+81562500000+82812500000
1789+83750000000+84375000000+84687500000+83750000000+81562500000+78750000000
1758+72500000000+61562500000+56250000000+55937500000+67812500000+78125000000
1726+81562500000+83750000000+84687500000+85312500000+86250000000+85937500000
1695+86250000000+87812500000+88125000000+88437500000+88750000000+88437500000
1663+88125000000+88125000000+87812500000+87500000000+86562500000+86562500000
1632+86562500000+87187500000+87187500000+85937500000+85625000000+85625000000
1600+86562500000+87187500000+87812500000+88125000000+88125000000+88125000000
1568+87812500000+87500000000+87500000000+87500000000+87812500000+88437500000
1537+89062500000+89375000000+89062500000+88437500000+88437500000+88437500000
1505+89062500000+89375000000+89375000000+88750000000+88437500000+87812500000
1474+87187500000+86875000000+86875000000+86875000000+87500000000+88125000000
1442+88437500000+89375000000+89687500000+90000000000+90000000000+90000000000
1411+89687500000+90000000000+89687500000+88750000000+86875000000+85937500000
1379+85312500000+85312500000+86562500000+88437500000+89375000000+89687500000
1347+89687500000+89375000000+89062500000+88750000000+88437500000+88125000000
1316+87812500000+87812500000+87812500000+87812500000+87500000000+87500000000
1284+87500000000+87812500000+87812500000+87812500000+88125000000+88125000000
1253+88437500000+88437500000+88750000000+88750000000+89062500000+89062500000
1221+89062500000+89375000000+89375000000+89375000000+89687500000+89687500000
1189+89687500000+89687500000+89687500000+90000000000+90000000000+90000000000
1158+90000000000+89687500000+89687500000+89375000000+89062500000+88750000000
1126+88437500000+87812500000+87187500000+86562500000+85625000000+83125000000
1095+79062500000+72500000000+61562500000+44375000000+26250000000+24062500000
1063+27812500000+37812500000+58125000000+72500000000+79687500000+83125000000
1032+85625000000+88125000000+88437500000+88437500000+88750000000+89062500000
1000+89062500000+89062500000+89375000000+89375000000+89687500000+89687500000
968+89687500000+89687500000+89687500000+89687500000+89687500000+89687500000
937+90000000000+90000000000+90312500000+90312500000+90000000000+90000000000
905+89687500000+89687500000+89375000000+89062500000+88750000000+88437500000
874+88437500000+87812500000+86875000000+85000000000+81562500000+77187500000
842+76875000000+80312500000+85000000000+87500000000+88750000000+89375000000
811+89687500000+90312500000+90625000000+90937500000+91250000000+91562500000
779+91562500000+91562500000+91250000000+91250000000+91250000000+90937500000
747+90937500000+90937500000+90937500000+90937500000+90937500000+90937500000
716+90937500000+90937500000+90937500000+90625000000+90625000000+90625000000
684+90625000000+90937500000+90937500000+90625000000+90625000000+90625000000
653+90312500000+90000000000+89687500000+89375000000+88750000000+88125000000
621+87187500000+86250000000+85312500000+85000000000+84375000000+84375000000
589+84687500000+85000000000+85625000000+86250000000+87187500000+87812500000
558+88125000000+88437500000+88125000000+87812500000+87500000000+86875000000
526+86875000000+86562500000+86562500000+86562500000+86562500000+86562500000
495+86562500000+86562500000+86250000000+85625000000+84687500000+83437500000
463+82500000000+80625000000+78437500000+76562500000+75000000000+73125000000
432+71875000000+70937500000+70312500000+70000000000+70000000000+70000000000
400+70000000000
##END=
