##TITLE=2-methyldodecane
##JCAMP-DX=4.24
##DATA TYPE=INFRARED SPECTRUM
##DATE=10/06/2025
##SAMPLING PROCEDURE=ATR
##ORIGIN=SDBS
##XUNITS=1/CM
##YUNITS=TRANSMITTANCE
##RESOLUTION=5.2631578947368425
##FIRSTX=4000.0
##LASTX=400.0
##DELTAX=-5.2631578947368425
##MAXY=95.0
##MINY=0.0
##XFACTOR=1
##YFACTOR=1
##NPOINTS=685
##FIRSTY=0.0
##XYDATA=(X++(Y..Y))
4000+0+90000000000+89687500000+89687500000+89687500000+89687500000
3968+90000000000+90000000000+90000000000+90000000000+90000000000+90000000000
3937+90000000000+89687500000+89375000000+89375000000+89375000000+89375000000
3905+89687500000+89687500000+89687500000+89687500000+89375000000+89375000000
3874+89687500000+89687500000+89687500000+89687500000+89687500000+89687500000
3842+89687500000+89687500000+89375000000+89687500000+89687500000+89687500000
3811+89687500000+89687500000+89687500000+89687500000+89687500000+89687500000
3779+89687500000+89375000000+89375000000+89375000000+89375000000+89062500000
3747+89062500000+88750000000+88750000000+88750000000+88750000000+88750000000
3716+88750000000+89062500000+89062500000+89062500000+88750000000+88750000000
3684+88750000000+88437500000+88437500000+88437500000+88125000000+88125000000
3653+88125000000+88125000000+88125000000+87812500000+87812500000+87500000000
3621+87500000000+87500000000+87500000000+87500000000+87500000000+87500000000
3589+87500000000+87187500000+87187500000+87187500000+87187500000+86875000000
3558+86875000000+86875000000+86875000000+87187500000+87187500000+87500000000
3526+87500000000+87187500000+87187500000+87187500000+87187500000+87500000000
3495+87500000000+87500000000+87500000000+87187500000+87187500000+87187500000
3463+86875000000+86875000000+86562500000+86250000000+86250000000+86250000000
3432+85937500000+85937500000+86250000000+86250000000+86250000000+86250000000
3400+86250000000+86562500000+86562500000+86562500000+86562500000+86250000000
3368+86250000000+85937500000+85312500000+84687500000+84375000000+83750000000
3337+83125000000+82500000000+81875000000+80312500000+78437500000+76250000000
3305+73125000000+67187500000+57187500000+42187500000+19375000000+11250000000
3274+10000000000+12812500000+9375000000+5312500000+4687500000+5000000000
3242+10625000000+15937500000+20312500000+25937500000+25312500000+22500000000
3211+16562500000+11875000000+12187500000+29375000000+52187500000+62500000000
3179+69375000000+73437500000+76562500000+78437500000+80625000000+82187500000
3147+83437500000+84062500000+84062500000+85000000000+85312500000+84687500000
3116+84375000000+84375000000+85000000000+85937500000+85937500000+85937500000
3084+85937500000+85937500000+85937500000+86250000000+86250000000+86562500000
3053+86875000000+87187500000+87187500000+87500000000+87500000000+87812500000
3021+88125000000+88437500000+89062500000+89375000000+90000000000+90312500000
2989+90312500000+90625000000+90625000000+90937500000+90937500000+90937500000
2958+90937500000+91250000000+91250000000+91562500000+91562500000+91875000000
2926+91875000000+91875000000+91875000000+91875000000+91875000000+91875000000
2895+91875000000+91875000000+91875000000+92187500000+92187500000+92187500000
2863+92187500000+92187500000+92187500000+92187500000+92187500000+92187500000
2832+92187500000+92187500000+92187500000+92187500000+92500000000+92500000000
2800+92500000000+92812500000+92812500000+92812500000+92812500000+92812500000
2768+92812500000+93125000000+93125000000+93125000000+93125000000+93125000000
2737+93125000000+93125000000+93125000000+93437500000+93437500000+93437500000
2705+93437500000+93750000000+93750000000+93750000000+93750000000+93750000000
2674+94062500000+94062500000+93750000000+93750000000+93750000000+93750000000
2642+94062500000+94062500000+94062500000+94062500000+94062500000+94062500000
2611+94062500000+94375000000+94375000000+94375000000+94375000000+94375000000
2579+94375000000+94375000000+94375000000+94375000000+94375000000+94375000000
2547+94375000000+94375000000+94375000000+94375000000+94375000000+94375000000
2516+94375000000+94375000000+94375000000+94375000000+94375000000+94375000000
2484+94375000000+94375000000+94375000000+94375000000+94375000000+94375000000
2453+94375000000+94375000000+94375000000+94375000000+94375000000+94375000000
2421+94375000000+94375000000+94375000000+94375000000+94687500000+94687500000
2389+94687500000+94687500000+94687500000+94687500000+94687500000+94687500000
2358+94687500000+94687500000+94687500000+94687500000+94687500000+94687500000
2326+94687500000+94687500000+94687500000+94687500000+94687500000+94687500000
2295+94687500000+94687500000+94687500000+94687500000+94375000000+94375000000
2263+94375000000+94375000000+94375000000+94062500000+93750000000+93750000000
2232+93750000000+93750000000+93750000000+93750000000+93750000000+94062500000
2200+94062500000+94375000000+94375000000+94375000000+94687500000+94687500000
2168+94687500000+94687500000+94687500000+94687500000+94687500000+94687500000
2137+94687500000+94687500000+94687500000+94687500000+94687500000+94687500000
2105+94687500000+94687500000+94687500000+94375000000+94375000000+94375000000
2074+94375000000+94375000000+94375000000+94375000000+94375000000+94687500000
2042+94687500000+94687500000+95000000000+95000000000+94687500000+94687500000
2011+94687500000+94687500000+94687500000+94687500000+94687500000+94687500000
1979+94375000000+94375000000+94062500000+93750000000+93437500000+93125000000
1947+92500000000+91875000000+91562500000+91562500000+91562500000+91250000000
1916+90625000000+89687500000+89062500000+87500000000+85000000000+80312500000
1884+69687500000+50937500000+44687500000+45937500000+50937500000+54687500000
1853+58125000000+65625000000+70312500000+74687500000+77812500000+81250000000
1821+85000000000+86875000000+88125000000+89062500000+89375000000+89687500000
1789+90000000000+89687500000+89375000000+88437500000+86562500000+77812500000
1758+68125000000+72187500000+74062500000+79687500000+69375000000+66562500000
1726+76562500000+84375000000+86250000000+86875000000+88125000000+88125000000
1695+87812500000+88125000000+89375000000+90312500000+90937500000+90937500000
1663+90625000000+90312500000+89687500000+89687500000+89687500000+90000000000
1632+90312500000+90312500000+90625000000+90937500000+90937500000+90625000000
1600+90625000000+90625000000+90625000000+90625000000+90625000000+90937500000
1568+91250000000+91250000000+91562500000+91875000000+92187500000+92187500000
1537+92187500000+92500000000+92500000000+92812500000+92500000000+92500000000
1505+92187500000+92187500000+91875000000+91562500000+91250000000+90625000000
1474+90312500000+89062500000+86875000000+86562500000+88750000000+90312500000
1442+90937500000+91250000000+91562500000+91562500000+91562500000+91562500000
1411+91562500000+91875000000+92187500000+92187500000+91875000000+91875000000
1379+91875000000+91875000000+91562500000+91562500000+91250000000+90937500000
1347+90937500000+90937500000+90937500000+90937500000+90937500000+90937500000
1316+90937500000+90937500000+91250000000+91250000000+91250000000+91250000000
1284+90937500000+90937500000+90937500000+90937500000+90937500000+90937500000
1253+90937500000+90937500000+90937500000+91250000000+91562500000+91875000000
1221+92187500000+92812500000+93125000000+93125000000+93125000000+93125000000
1189+93125000000+93125000000+93125000000+93125000000+93125000000+93437500000
1158+93437500000+93437500000+93437500000+93437500000+93437500000+93125000000
1126+93125000000+93125000000+92812500000+93125000000+93125000000+92812500000
1095+92812500000+92812500000+92812500000+92812500000+92812500000+92812500000
1063+92812500000+92812500000+92812500000+92812500000+92812500000+92812500000
1032+92812500000+93125000000+93125000000+93437500000+93437500000+93437500000
1000+93125000000+93125000000+92812500000+92812500000+92500000000+92500000000
968+92500000000+92187500000+92187500000+92187500000+92500000000+92500000000
937+92500000000+92812500000+92812500000+92812500000+93125000000+93125000000
905+93437500000+93437500000+93437500000+93437500000+93125000000+92187500000
874+91250000000+90937500000+90625000000+89687500000+87812500000+85000000000
842+81250000000+81250000000+85000000000+88750000000+90937500000+92187500000
811+92812500000+93437500000+93750000000+93750000000+93750000000+93750000000
779+93750000000+93750000000+93750000000+93750000000+93750000000+93750000000
747+93437500000+93437500000+93437500000+93125000000+93125000000+93125000000
716+93125000000+93125000000+93125000000+93125000000+93125000000+93125000000
684+92812500000+92812500000+92812500000+92500000000+92500000000+92187500000
653+92187500000+92187500000+92187500000+92187500000+92187500000+92500000000
621+92812500000+93125000000+93750000000+94062500000+94375000000+94687500000
589+94687500000+94375000000+94062500000+93750000000+93125000000+92812500000
558+92500000000+92187500000+91875000000+91562500000+90937500000+90625000000
526+90000000000+89687500000+89375000000+89375000000+89375000000+89687500000
495+90000000000+90625000000+90937500000+91250000000+91562500000+91875000000
463+91875000000+91562500000+90937500000+90000000000+89375000000+88437500000
432+87187500000+85937500000+85000000000+83750000000+82812500000+82187500000
400+81875000000
##END=
