##TITLE=2-methylpyrazine
##JCAMP-DX=4.24
##DATA TYPE=INFRARED SPECTRUM
##DATE=10/06/2025
##SAMPLING PROCEDURE=ATR
##ORIGIN=SDBS
##XUNITS=1/CM
##YUNITS=TRANSMITTANCE
##RESOLUTION=5.2631578947368425
##FIRSTX=4000.0
##LASTX=400.0
##DELTAX=-5.2631578947368425
##MAXY=94.6875
##MINY=0.0
##XFACTOR=1
##YFACTOR=1
##NPOINTS=685
##FIRSTY=0.0
##XYDATA=(X++(Y..Y))
4000+0+80937500000+80625000000+80625000000+80625000000+80625000000
3968+80625000000+80625000000+80937500000+81250000000+81562500000+81562500000
3937+81562500000+81562500000+81562500000+81562500000+81875000000+82187500000
3905+82500000000+82812500000+82812500000+82500000000+82500000000+82500000000
3874+83125000000+83750000000+84062500000+84375000000+84687500000+84687500000
3842+84687500000+84375000000+84375000000+84687500000+85000000000+85000000000
3811+85000000000+84687500000+84687500000+84687500000+85000000000+85000000000
3779+84687500000+84375000000+84062500000+83750000000+82812500000+82187500000
3747+81562500000+80937500000+80312500000+79375000000+78750000000+78125000000
3716+77500000000+76875000000+76562500000+75937500000+75312500000+74687500000
3684+74062500000+73125000000+72187500000+71250000000+70312500000+69375000000
3653+68750000000+68125000000+67812500000+67500000000+67500000000+67500000000
3621+67500000000+67500000000+67500000000+68125000000+68750000000+69687500000
3589+70625000000+71562500000+72500000000+73437500000+74375000000+75312500000
3558+75937500000+76875000000+77500000000+78125000000+78750000000+79687500000
3526+80000000000+80312500000+80625000000+80937500000+80937500000+81250000000
3495+81875000000+82187500000+82500000000+82500000000+82812500000+83125000000
3463+83750000000+84062500000+84375000000+84375000000+84687500000+84687500000
3432+85000000000+84687500000+84687500000+84375000000+84375000000+84375000000
3400+84062500000+83437500000+82500000000+81250000000+80000000000+78750000000
3368+75937500000+67500000000+56562500000+53437500000+46875000000+46875000000
3337+49375000000+52500000000+53437500000+60312500000+56875000000+53437500000
3305+53750000000+58125000000+60937500000+62500000000+60625000000+59687500000
3274+60000000000+64687500000+65312500000+58437500000+57812500000+61875000000
3242+70625000000+75625000000+78750000000+79687500000+79375000000+79375000000
3211+79375000000+80000000000+81562500000+83125000000+84687500000+85937500000
3179+86875000000+87500000000+88125000000+88437500000+88750000000+89062500000
3147+89375000000+89687500000+90312500000+90000000000+89687500000+89687500000
3116+90000000000+90937500000+91562500000+91875000000+92187500000+92500000000
3084+92812500000+92812500000+93125000000+93125000000+93125000000+92812500000
3053+92500000000+92500000000+92500000000+92812500000+93125000000+93437500000
3021+93750000000+94062500000+94062500000+94062500000+94062500000+94062500000
2989+94062500000+94062500000+94062500000+94062500000+94062500000+94062500000
2958+94062500000+94375000000+94375000000+94375000000+94375000000+94375000000
2926+94375000000+94062500000+94062500000+94062500000+94062500000+94062500000
2895+94062500000+94375000000+94375000000+94062500000+94062500000+93750000000
2863+93750000000+93750000000+93750000000+93750000000+93750000000+93750000000
2832+93750000000+94062500000+94375000000+94375000000+94687500000+94687500000
2800+94687500000+94687500000+94687500000+94062500000+93750000000+93437500000
2768+93437500000+93437500000+93437500000+93437500000+93750000000+94062500000
2737+94062500000+94375000000+94062500000+94062500000+93750000000+93437500000
2705+92812500000+92812500000+92812500000+92812500000+92812500000+92500000000
2674+92187500000+92187500000+92187500000+92187500000+92812500000+93125000000
2642+93125000000+93125000000+93437500000+93125000000+93125000000+92812500000
2611+92500000000+92500000000+92187500000+91875000000+91875000000+91562500000
2579+91562500000+91250000000+90937500000+90937500000+90312500000+90000000000
2547+89687500000+89062500000+88750000000+88437500000+88437500000+88437500000
2516+88437500000+88750000000+89375000000+89687500000+90000000000+90312500000
2484+90625000000+90937500000+91250000000+91250000000+91562500000+91562500000
2453+91562500000+91875000000+91875000000+91875000000+92187500000+92187500000
2421+92187500000+92187500000+92500000000+92500000000+92812500000+93125000000
2389+93125000000+93125000000+93125000000+93125000000+92812500000+92500000000
2358+92187500000+91875000000+91250000000+90937500000+90937500000+90625000000
2326+90625000000+90312500000+90312500000+90000000000+90000000000+89687500000
2295+89687500000+89687500000+89687500000+90000000000+90312500000+90625000000
2263+91250000000+91875000000+92187500000+92500000000+92812500000+93125000000
2232+93125000000+93125000000+93125000000+93437500000+93437500000+93437500000
2200+93437500000+93437500000+93437500000+93125000000+92812500000+92500000000
2168+92187500000+91562500000+90625000000+89687500000+88750000000+88125000000
2137+87812500000+87812500000+88125000000+88125000000+88437500000+88437500000
2105+88437500000+88750000000+88750000000+88750000000+89062500000+89062500000
2074+89062500000+89062500000+89062500000+88750000000+88125000000+86875000000
2042+83437500000+69687500000+59062500000+59687500000+71250000000+80312500000
2011+84375000000+86250000000+86875000000+86562500000+85312500000+83750000000
1979+79687500000+74062500000+63750000000+50000000000+45937500000+45937500000
1947+55625000000+65625000000+70312500000+72187500000+73125000000+74375000000
1916+75312500000+74062500000+70625000000+63125000000+44687500000+17812500000
1884+16875000000+27187500000+40625000000+44999999999+40937500000+37187499999
1853+33125000000+32187500000+32187500000+34062500000+37187499999+40625000000
1821+44375000000+47812500000+50000000000+47500000000+42500000000+38749999999
1789+26875000000+14062500000+12500000000+15000000000+25937500000+37500000000
1758+40312499999+50000000000+46875000000+47500000000+59062500000+69687500000
1726+76875000000+80937500000+83437500000+85000000000+85312500000+85625000000
1695+85937500000+85937500000+85937500000+85625000000+85000000000+83750000000
1663+80937500000+71562500000+54375000000+40625000000+40625000000+50625000000
1632+60000000000+67500000000+76250000000+84375000000+87500000000+88125000000
1600+89062500000+89375000000+88437500000+85937500000+77187500000+50312500000
1568+47187500000+62500000000+82500000000+87812500000+89687500000+90000000000
1537+90312500000+90312500000+90625000000+90625000000+90625000000+90312500000
1505+88750000000+85937500000+84062500000+79375000000+68437500000+53125000000
1474+44062500000+43750000000+52187500000+56875000000+46875000000+31875000000
1442+28125000000+29062500000+33437500000+44687500000+56250000000+63750000000
1411+70312500000+75000000000+78437500000+80625000000+82812500000+84687500000
1379+86250000000+86875000000+87500000000+87500000000+87187500000+86250000000
1347+85000000000+83750000000+82500000000+80937500000+77812500000+70000000000
1316+52500000000+17500000000+14687500000+35937500000+57187500000+59062500000
1284+56250000000+55937500000+55937500000+48750000000+25937500000+5625000000
1253+4687500000+17187500000+50000000000+65937500000+75937500000+79687500000
1221+81250000000+79375000000+75312500000+68750000000+62812500000+61875000000
1189+62812500000+67187500000+73437500000+78437500000+81562500000+83750000000
1158+85312500000+86250000000+87187500000+87500000000+88125000000+88750000000
1126+89375000000+89687500000+90312500000+90625000000+90937500000+91250000000
1095+91250000000+91562500000+91562500000+91562500000+91562500000+91562500000
1063+91562500000+91250000000+90937500000+90625000000+89687500000+88437500000
1032+86250000000+83125000000+79062500000+71562500000+59375000000+46250000000
1000+33750000000+25000000000+23125000000+25000000000+41562500000+61875000000
968+76562500000+83125000000+86562500000+89062500000+90625000000+91562500000
937+92187500000+92812500000+93125000000+93125000000+93125000000+93125000000
905+92812500000+92187500000+91250000000+89375000000+77500000000+57812500000
874+61875000000+83750000000+90625000000+92812500000+93750000000+94062500000
842+94687500000+94687500000+94687500000+94687500000+94687500000+94687500000
811+94375000000+94375000000+94062500000+94062500000+93750000000+93750000000
779+93437500000+93437500000+93437500000+93125000000+93125000000+93125000000
747+92812500000+92812500000+92187500000+91250000000+86250000000+79687500000
716+85625000000+91875000000+92500000000+92187500000+92187500000+91875000000
684+91562500000+91250000000+90937500000+90625000000+90312500000+90000000000
653+89687500000+89375000000+88750000000+88437500000+88125000000+88125000000
621+88125000000+88125000000+88437500000+88437500000+88437500000+88750000000
589+88750000000+88750000000+88750000000+88437500000+88125000000+87812500000
558+87500000000+86875000000+86562500000+86562500000+86250000000+86250000000
526+85937500000+85000000000+83125000000+80000000000+77812500000+75625000000
495+74062500000+73750000000+73750000000+74062500000+75000000000+76250000000
463+77500000000+77187500000+73437500000+67500000000+60000000000+50000000000
432+38749999999+29062500000+22187500000+15937500000+11875000000+9687500000
400+8750000000
##END=
