##TITLE=2-methyl-3,4,5,6-tetraphenylpyridine
##JCAMP-DX=4.24
##DATA TYPE=INFRARED SPECTRUM
##DATE=10/06/2025
##SAMPLING PROCEDURE=ATR
##ORIGIN=SDBS
##XUNITS=1/CM
##YUNITS=TRANSMITTANCE
##RESOLUTION=5.2631578947368425
##FIRSTX=4000.0
##LASTX=400.0
##DELTAX=-5.2631578947368425
##MAXY=94.6875
##MINY=0.0
##XFACTOR=1
##YFACTOR=1
##NPOINTS=685
##FIRSTY=0.0
##XYDATA=(X++(Y..Y))
4000+0+85937500000+85937500000+85937500000+85625000000+85625000000
3968+85312500000+85312500000+85625000000+85625000000+85937500000+85937500000
3937+85625000000+85625000000+85312500000+85312500000+85000000000+85000000000
3905+85000000000+85312500000+85312500000+85312500000+85312500000+85000000000
3874+85000000000+85000000000+85000000000+85000000000+85000000000+85312500000
3842+85000000000+85000000000+85000000000+85000000000+85000000000+85000000000
3811+84687500000+84687500000+84687500000+84687500000+84687500000+84687500000
3779+84687500000+84687500000+84687500000+84687500000+84375000000+84062500000
3747+84062500000+84062500000+84062500000+84062500000+84062500000+84062500000
3716+84062500000+84062500000+84062500000+84062500000+84375000000+84375000000
3684+84375000000+84062500000+84062500000+84062500000+84062500000+84062500000
3653+84062500000+83750000000+83750000000+83750000000+83750000000+83437500000
3621+83437500000+83437500000+83437500000+83437500000+83437500000+83437500000
3589+83437500000+83125000000+83125000000+83125000000+83125000000+83125000000
3558+83125000000+82812500000+82812500000+82812500000+82812500000+82500000000
3526+82500000000+82500000000+82500000000+82187500000+82187500000+82187500000
3495+82187500000+82187500000+82187500000+82187500000+82187500000+82187500000
3463+81875000000+81875000000+81875000000+81875000000+81875000000+81875000000
3432+81875000000+81875000000+81875000000+81875000000+81875000000+81875000000
3400+81875000000+82187500000+81875000000+81875000000+81562500000+81562500000
3368+80000000000+77812500000+77812500000+74687500000+72187500000+73125000000
3337+74687500000+72500000000+70625000000+70937500000+73125000000+71562500000
3305+67812500000+63125000000+53437500000+40937500000+24687500000+15625000000
3274+13750000000+14375000000+9375000000+5312500000+4687500000+5000000000
3242+9375000000+15000000000+20312500000+26250000000+28750000000+24375000000
3211+19687500000+15000000000+15312500000+30625000000+54062500000+66875000000
3179+73750000000+77187500000+79687500000+80625000000+82187500000+83125000000
3147+83750000000+84062500000+84375000000+84375000000+84375000000+84062500000
3116+84062500000+84062500000+84375000000+84375000000+84375000000+84062500000
3084+84062500000+84062500000+84375000000+84375000000+84687500000+84687500000
3053+85000000000+85000000000+85000000000+85312500000+85312500000+85625000000
3021+85937500000+85937500000+86250000000+86562500000+86875000000+87187500000
2989+87187500000+87500000000+87500000000+87500000000+87500000000+87500000000
2958+87500000000+87500000000+87812500000+88125000000+88125000000+88125000000
2926+88125000000+88125000000+88125000000+88125000000+88125000000+88125000000
2895+88125000000+88125000000+88437500000+88437500000+88437500000+88437500000
2863+88437500000+88437500000+88437500000+88437500000+88750000000+88750000000
2832+89062500000+89062500000+88750000000+88750000000+89062500000+89062500000
2800+89062500000+89062500000+89375000000+89062500000+89062500000+89375000000
2768+89375000000+89375000000+89375000000+89375000000+89375000000+89687500000
2737+89687500000+89687500000+89687500000+89687500000+89687500000+90000000000
2705+90000000000+90312500000+90000000000+90000000000+90000000000+90000000000
2674+90000000000+90000000000+90312500000+90312500000+90312500000+90312500000
2642+90312500000+90312500000+90312500000+90312500000+90312500000+90625000000
2611+90625000000+90625000000+90625000000+90625000000+90312500000+90312500000
2579+90312500000+90000000000+89687500000+89687500000+89687500000+89375000000
2547+89375000000+89375000000+89687500000+89687500000+90000000000+90312500000
2516+90312500000+90625000000+90625000000+90625000000+90625000000+90625000000
2484+90312500000+90312500000+90312500000+90000000000+89687500000+89687500000
2453+89687500000+89687500000+90000000000+90000000000+90312500000+90312500000
2421+90625000000+90625000000+90937500000+90937500000+90937500000+90937500000
2389+90937500000+90937500000+90937500000+90937500000+90625000000+90312500000
2358+90312500000+90312500000+90312500000+90312500000+90312500000+90625000000
2326+90625000000+90625000000+90937500000+90937500000+90937500000+90625000000
2295+90625000000+90625000000+90625000000+90625000000+90625000000+90625000000
2263+90937500000+90937500000+90937500000+91250000000+91250000000+91250000000
2232+91250000000+91250000000+91250000000+91250000000+90937500000+90937500000
2200+90937500000+90937500000+90937500000+90625000000+90625000000+90625000000
2168+90625000000+90625000000+90312500000+90312500000+90312500000+90312500000
2137+90312500000+90312500000+90312500000+90312500000+90312500000+90312500000
2105+90312500000+90312500000+90312500000+90312500000+90312500000+90312500000
2074+90312500000+89687500000+85625000000+81875000000+87500000000+89062500000
2042+89375000000+89375000000+84687500000+84687500000+87187500000+89062500000
2011+89375000000+89375000000+89062500000+87812500000+85625000000+81875000000
1979+77812500000+73750000000+73125000000+77812500000+83125000000+85000000000
1947+85937500000+86875000000+87500000000+87500000000+86562500000+84687500000
1916+82500000000+80937500000+79062500000+79062500000+80937500000+77500000000
1884+71562500000+60312500000+50312500000+49687499999+49687499999+50625000000
1853+52500000000+58125000000+57812500000+55625000000+65312500000+71562500000
1821+76250000000+79062500000+81875000000+84062500000+84375000000+83125000000
1789+80937500000+65312500000+61250000000+69687500000+75937500000+73437500000
1758+69375000000+63437500000+62187500000+64062500000+73125000000+75000000000
1726+77812500000+81875000000+83125000000+83750000000+84375000000+84687500000
1695+84687500000+85312500000+85937500000+86562500000+86875000000+86875000000
1663+86875000000+86875000000+86875000000+86875000000+86875000000+87187500000
1632+87187500000+87187500000+87187500000+87187500000+87187500000+87500000000
1600+87500000000+87812500000+88125000000+88125000000+88437500000+88437500000
1568+88750000000+89062500000+89062500000+89375000000+89375000000+88750000000
1537+87812500000+88125000000+89062500000+89375000000+89687500000+90000000000
1505+90000000000+90000000000+89687500000+89687500000+89062500000+87812500000
1474+85937500000+88125000000+89062500000+89062500000+88750000000+88437500000
1442+88125000000+88125000000+89062500000+89062500000+89375000000+89375000000
1411+89687500000+89687500000+89687500000+89687500000+89687500000+89687500000
1379+89687500000+89687500000+89687500000+89375000000+89375000000+89375000000
1347+89375000000+89062500000+86875000000+84687500000+80312500000+84375000000
1316+88750000000+89375000000+90000000000+90000000000+89687500000+89375000000
1284+89062500000+88125000000+85312500000+81562500000+81562500000+85000000000
1253+86875000000+85000000000+81875000000+84375000000+87187500000+88125000000
1221+87500000000+88750000000+89062500000+89375000000+89375000000+89375000000
1189+89687500000+89687500000+89687500000+90000000000+90312500000+90312500000
1158+90312500000+90312500000+90312500000+90000000000+90000000000+89687500000
1126+89687500000+89375000000+89687500000+89687500000+84687500000+84375000000
1095+90000000000+90625000000+90937500000+91250000000+90937500000+90625000000
1063+90625000000+90625000000+90312500000+90312500000+90312500000+90312500000
1032+90312500000+90312500000+90000000000+90000000000+90312500000+90312500000
1000+90625000000+90625000000+90937500000+90937500000+91250000000+91250000000
968+90937500000+90937500000+90312500000+88125000000+84062500000+86562500000
937+90625000000+90937500000+91250000000+91562500000+84687500000+68750000000
905+80312500000+87187500000+70000000000+64062500000+78437500000+85000000000
874+88437500000+78125000000+76562500000+87187500000+87812500000+86562500000
842+85937500000+86250000000+87187500000+86875000000+82500000000+59687500000
811+26562500000+25625000000+71250000000+80937500000+85937500000+88437500000
779+89062500000+89375000000+89687500000+90312500000+90937500000+91875000000
747+92187500000+89375000000+75937500000+80625000000+87500000000+86250000000
716+90625000000+90625000000+80937500000+83125000000+85312500000+85312500000
684+91562500000+91875000000+91562500000+91562500000+91250000000+90625000000
653+90625000000+90625000000+90625000000+90625000000+90937500000+91562500000
621+91875000000+92500000000+93437500000+93750000000+94375000000+94687500000
589+94062500000+90937500000+81875000000+85000000000+91562500000+91875000000
558+91875000000+91875000000+91562500000+90937500000+90625000000+90000000000
526+89687500000+89375000000+89062500000+88750000000+88750000000+89062500000
495+89062500000+89062500000+89375000000+89687500000+89687500000+90000000000
463+89687500000+89062500000+88125000000+86875000000+85937500000+84062500000
432+81875000000+79062500000+76562500000+73750000000+71250000000+69375000000
400+68750000000
##END=
