##TITLE=2-nitrothiophene
##JCAMP-DX=4.24
##DATA TYPE=INFRARED SPECTRUM
##DATE=10/06/2025
##SAMPLING PROCEDURE=ATR
##ORIGIN=SDBS
##XUNITS=1/CM
##YUNITS=TRANSMITTANCE
##RESOLUTION=5.2631578947368425
##FIRSTX=4000.0
##LASTX=400.0
##DELTAX=-5.2631578947368425
##MAXY=94.6875
##MINY=0.0
##XFACTOR=1
##YFACTOR=1
##NPOINTS=685
##FIRSTY=0.0
##XYDATA=(X++(Y..Y))
4000+0+94687500000+94687500000+94687500000+94687500000+94375000000
3968+94375000000+94062500000+94375000000+94375000000+94687500000+94687500000
3937+94687500000+94687500000+94687500000+94687500000+94687500000+94687500000
3905+94375000000+94375000000+94375000000+94375000000+94375000000+94375000000
3874+94375000000+94375000000+94375000000+94687500000+94687500000+94687500000
3842+94375000000+94375000000+94375000000+94375000000+94375000000+94375000000
3811+94375000000+94375000000+94687500000+94687500000+94687500000+94687500000
3779+94375000000+94375000000+94375000000+94375000000+94375000000+94687500000
3747+94375000000+94375000000+94375000000+94687500000+94687500000+94687500000
3716+94687500000+94687500000+94687500000+94687500000+94687500000+94687500000
3684+94687500000+94687500000+94687500000+94375000000+94375000000+94375000000
3653+94687500000+94687500000+94375000000+94375000000+94062500000+94062500000
3621+94062500000+94062500000+94062500000+94062500000+93750000000+93750000000
3589+93437500000+93437500000+93437500000+93437500000+93437500000+93437500000
3558+93437500000+93125000000+93125000000+93125000000+93125000000+93125000000
3526+92812500000+92812500000+92500000000+92500000000+92187500000+92187500000
3495+92187500000+92187500000+92187500000+92187500000+92187500000+92187500000
3463+92187500000+92187500000+92187500000+92187500000+92187500000+92187500000
3432+92187500000+92187500000+92187500000+92187500000+92187500000+91562500000
3400+90000000000+90312500000+85000000000+80312500000+73125000000+77187500000
3368+86562500000+90000000000+91875000000+92187500000+92500000000+93125000000
3337+93437500000+93750000000+93750000000+94062500000+94062500000+94062500000
3305+94375000000+94375000000+94062500000+93437500000+93437500000+93437500000
3274+93437500000+93750000000+93750000000+93437500000+93437500000+93125000000
3242+94062500000+94062500000+94062500000+93437500000+93437500000+93437500000
3211+93437500000+93125000000+93125000000+93750000000+93437500000+92812500000
3179+92187500000+92812500000+94062500000+94062500000+94062500000+94375000000
3147+94687500000+94687500000+93750000000+93437500000+93437500000+93125000000
3116+93125000000+93750000000+94375000000+94062500000+94062500000+94062500000
3084+94062500000+94375000000+94375000000+94375000000+94375000000+94375000000
3053+94375000000+94375000000+94375000000+94375000000+94375000000+94687500000
3021+94687500000+94687500000+94687500000+94687500000+94687500000+94687500000
2989+94687500000+94687500000+94687500000+94687500000+94687500000+94687500000
2958+94375000000+94375000000+94375000000+94375000000+94062500000+93125000000
2926+93437500000+94375000000+94375000000+94375000000+94375000000+94375000000
2895+94687500000+94687500000+94375000000+94375000000+94375000000+94375000000
2863+94375000000+94375000000+94375000000+94375000000+94375000000+94062500000
2832+94062500000+94062500000+94062500000+94375000000+94375000000+94375000000
2800+94375000000+94375000000+94375000000+94375000000+94375000000+94375000000
2768+94375000000+94375000000+94062500000+94375000000+94375000000+94375000000
2737+94375000000+94375000000+94375000000+94375000000+94375000000+94375000000
2705+94375000000+94375000000+94375000000+94375000000+94375000000+94375000000
2674+94375000000+94375000000+94062500000+94062500000+94062500000+94375000000
2642+94375000000+94375000000+94375000000+94375000000+94062500000+94062500000
2611+94062500000+94062500000+94375000000+94375000000+94375000000+94375000000
2579+94375000000+94375000000+94375000000+94375000000+94375000000+94375000000
2547+94375000000+94375000000+94375000000+94375000000+94375000000+94375000000
2516+94375000000+94375000000+94375000000+94375000000+94375000000+94375000000
2484+94375000000+94375000000+94375000000+94375000000+94375000000+94375000000
2453+94375000000+94375000000+94375000000+94375000000+94375000000+94375000000
2421+94375000000+94375000000+94062500000+93125000000+92812500000+93125000000
2389+93437500000+94062500000+94375000000+94375000000+94375000000+94375000000
2358+94375000000+94375000000+94375000000+94375000000+94062500000+94062500000
2326+93750000000+93125000000+92500000000+92500000000+92812500000+93437500000
2295+93750000000+94062500000+94062500000+94062500000+94062500000+94062500000
2263+93750000000+93750000000+93437500000+93437500000+92812500000+92500000000
2232+92500000000+92500000000+92812500000+93437500000+93437500000+93437500000
2200+93437500000+93437500000+93437500000+93437500000+93437500000+93437500000
2168+93437500000+93750000000+93750000000+93750000000+93750000000+93437500000
2137+93437500000+93125000000+93125000000+93125000000+93437500000+93437500000
2105+93437500000+93125000000+93125000000+92812500000+92812500000+91875000000
2074+90937500000+90937500000+90937500000+90937500000+90937500000+91250000000
2042+91250000000+91562500000+91875000000+91875000000+91875000000+91250000000
2011+90625000000+89375000000+87812500000+85625000000+83437500000+83437500000
1979+84687500000+82812500000+71562500000+57500000000+57500000000+45937500000
1947+45937500000+51562500000+72187500000+80312500000+77812500000+64062500000
1916+34687500000+15312500000+15312500000+35625000000+60937500000+74687500000
1884+82500000000+85625000000+87187500000+87812500000+88437500000+88437500000
1853+89062500000+90000000000+90625000000+90312500000+88125000000+85312500000
1821+85625000000+88437500000+88437500000+88750000000+89375000000+89687500000
1789+88437500000+81562500000+42812500000+43125000000+75000000000+69687500000
1758+70937500000+81250000000+85937500000+85312500000+82500000000+75000000000
1726+60625000000+54375000000+57500000000+32812500000+6250000000+4687500000
1695+7500000000+20000000000+39062500000+58437500000+68437500000+73125000000
1663+75312500000+77500000000+79687500000+79687500000+79062500000+79062500000
1632+79375000000+82187500000+84375000000+85625000000+86250000000+86875000000
1600+87500000000+88437500000+89062500000+90000000000+90312500000+90000000000
1568+89062500000+86562500000+86250000000+85937500000+79375000000+81562500000
1537+88437500000+90312500000+91250000000+91250000000+89687500000+87812500000
1505+90000000000+91250000000+91562500000+91250000000+90937500000+90937500000
1474+90937500000+91250000000+91250000000+91562500000+92187500000+92500000000
1442+92812500000+92812500000+92812500000+92500000000+92187500000+91875000000
1411+89062500000+85625000000+86875000000+90625000000+91250000000+89375000000
1379+88125000000+88125000000+91875000000+92812500000+93125000000+93125000000
1347+92500000000+88750000000+87187500000+89062500000+91875000000+92187500000
1316+91875000000+91875000000+92812500000+93437500000+94062500000+93437500000
1284+92500000000+84062500000+66875000000+60625000000+69062500000+87500000000
1253+91875000000+92812500000+93125000000+93437500000+93437500000+93437500000
1221+93750000000+93750000000+94062500000+94062500000+94062500000+94062500000
1189+94062500000+94062500000+94062500000+94062500000+94062500000+94062500000
1158+94062500000+94062500000+94062500000+93750000000+93437500000+93437500000
1126+93437500000+93437500000+93750000000+93750000000+94062500000+94062500000
1095+94062500000+93750000000+93437500000+92812500000+92187500000+89062500000
1063+89062500000+91562500000+92500000000+91875000000+88437500000+83437500000
1032+65000000000+70625000000+88125000000+91875000000+92812500000+92187500000
1000+84062500000+82187500000+89687500000+88750000000+84375000000+54375000000
968+53125000000+80312500000+89375000000+91562500000+91875000000+92187500000
937+92500000000+92812500000+92187500000+89375000000+84375000000+89687500000
905+91562500000+91875000000+91250000000+87187500000+76250000000+75000000000
874+47500000000+30625000000+29687500000+49687499999+75312500000+72500000000
842+82500000000+87187500000+89062500000+90000000000+90625000000+90625000000
811+91562500000+92812500000+93750000000+93750000000+93750000000+93750000000
779+93750000000+94062500000+94062500000+93437500000+85000000000+83437500000
747+87187500000+90937500000+92812500000+93125000000+93125000000+93437500000
716+93437500000+93750000000+93750000000+93750000000+94062500000+94062500000
684+94062500000+94062500000+94062500000+94062500000+93750000000+93750000000
653+93750000000+93750000000+93750000000+93750000000+93750000000+93750000000
621+93750000000+93437500000+92187500000+89062500000+93437500000+94375000000
589+94687500000+94687500000+94375000000+94375000000+94375000000+94375000000
558+94375000000+94375000000+94375000000+94062500000+93750000000+93437500000
526+93125000000+92812500000+92812500000+92812500000+92812500000+92812500000
495+93125000000+93437500000+93437500000+93750000000+93750000000+93437500000
463+92812500000+92500000000+91875000000+91562500000+91562500000+91562500000
432+91875000000+91875000000+91562500000+90937500000+90312500000+89687500000
400+89687500000
##END=
