##TITLE=2-octanol
##JCAMP-DX=4.24
##DATA TYPE=INFRARED SPECTRUM
##DATE=10/06/2025
##SAMPLING PROCEDURE=ATR
##ORIGIN=SDBS
##XUNITS=1/CM
##YUNITS=TRANSMITTANCE
##RESOLUTION=5.2631578947368425
##FIRSTX=4000.0
##LASTX=400.0
##DELTAX=-5.2631578947368425
##MAXY=95.0
##MINY=0.0
##XFACTOR=1
##YFACTOR=1
##NPOINTS=685
##FIRSTY=0.0
##XYDATA=(X++(Y..Y))
4000+0+91875000000+91875000000+91875000000+92187500000+92187500000
3968+92187500000+92187500000+92187500000+92187500000+92187500000+92187500000
3937+92500000000+92500000000+92500000000+92500000000+92500000000+92500000000
3905+92500000000+92187500000+92187500000+92187500000+92187500000+92187500000
3874+92500000000+92500000000+92500000000+92500000000+92500000000+92500000000
3842+92500000000+92187500000+92187500000+92187500000+92187500000+92187500000
3811+92187500000+92187500000+91875000000+91250000000+90937500000+90312500000
3779+90000000000+90000000000+90312500000+90000000000+89375000000+88437500000
3747+87500000000+86250000000+85937500000+85312500000+85000000000+84375000000
3716+83437500000+82187500000+80625000000+78750000000+77187500000+75312500000
3684+72812500000+70312500000+67500000000+65000000000+62187500000+59687500000
3653+56562500000+54062500000+51250000000+48437500000+46250000000+43750000000
3621+41250000000+39062500000+37187499999+35937500000+33750000000+32500000000
3589+30937500000+30000000000+28750000000+27812500000+26562500000+26250000000
3558+25625000000+25312500000+25312500000+25312500000+25625000000+25937500000
3526+26250000000+26875000000+27812500000+28750000000+30000000000+31562500000
3495+32812500000+34687500000+36562500000+38437500000+40000000000+42500000000
3463+44999999999+47500000000+49062500000+51562500000+53750000000+56250000000
3432+58125000000+60625000000+62812500000+65000000000+66562500000+68437500000
3400+70312500000+71875000000+73125000000+74687500000+75937500000+76875000000
3368+77500000000+78125000000+78750000000+79375000000+79687500000+79687500000
3337+79375000000+79062500000+78125000000+76562500000+74687500000+72500000000
3305+67500000000+56875000000+38125000000+22500000000+11562500000+9375000000
3274+9687500000+14375000000+6875000000+4687500000+4687500000+6562500000
3242+11562500000+16562500000+22187500000+28125000000+21562500000+20000000000
3211+13437500000+12500000000+16562500000+35000000000+51562500000+60000000000
3179+66250000000+70000000000+72812500000+75000000000+77187500000+79062500000
3147+80937500000+81562500000+81875000000+81875000000+81250000000+80937500000
3116+80937500000+81250000000+82187500000+82812500000+83437500000+83125000000
3084+82812500000+82500000000+82500000000+82812500000+83437500000+84375000000
3053+84687500000+85312500000+85937500000+85937500000+86250000000+86562500000
3021+86562500000+86875000000+87500000000+87812500000+88437500000+88750000000
2989+88750000000+89062500000+89062500000+89375000000+89687500000+90000000000
2958+90312500000+90625000000+90625000000+90937500000+90937500000+91250000000
2926+91250000000+91250000000+91562500000+91562500000+91562500000+91562500000
2895+91562500000+91562500000+91875000000+91875000000+91875000000+91875000000
2863+91875000000+91875000000+91875000000+91875000000+91875000000+92187500000
2832+92187500000+92187500000+92500000000+92812500000+93125000000+93437500000
2800+93437500000+93437500000+93437500000+93437500000+93437500000+93437500000
2768+93437500000+93437500000+93437500000+93750000000+93750000000+93750000000
2737+93750000000+93750000000+93750000000+93750000000+94062500000+94062500000
2705+94062500000+94375000000+94375000000+94375000000+94375000000+94375000000
2674+94375000000+94375000000+94375000000+94375000000+94375000000+94375000000
2642+94375000000+94375000000+94375000000+94375000000+94375000000+94375000000
2611+94375000000+94687500000+94687500000+94687500000+94687500000+94687500000
2579+94687500000+94687500000+94687500000+94687500000+94687500000+94687500000
2547+94687500000+94687500000+94687500000+94687500000+94687500000+94687500000
2516+94687500000+94687500000+94687500000+94687500000+94687500000+94687500000
2484+94687500000+94687500000+94687500000+94687500000+94687500000+94687500000
2453+94687500000+94687500000+94687500000+94687500000+94687500000+94687500000
2421+94687500000+94687500000+94687500000+95000000000+95000000000+95000000000
2389+95000000000+95000000000+95000000000+94687500000+94687500000+94687500000
2358+94687500000+94687500000+94687500000+94687500000+94687500000+94687500000
2326+94687500000+94375000000+94375000000+94375000000+94062500000+94062500000
2295+93750000000+93437500000+93437500000+93125000000+93125000000+93125000000
2263+92812500000+92812500000+92812500000+92500000000+91875000000+90312500000
2232+88125000000+86562500000+84375000000+82812500000+82812500000+83125000000
2200+85312500000+87812500000+89687500000+90937500000+91875000000+92187500000
2168+92187500000+92187500000+92187500000+92187500000+92187500000+92187500000
2137+91875000000+91875000000+91875000000+91875000000+92187500000+92187500000
2105+92187500000+92187500000+92187500000+92500000000+92500000000+92812500000
2074+92812500000+92812500000+93125000000+93125000000+93437500000+93750000000
2042+93750000000+94062500000+94062500000+94062500000+94375000000+94375000000
2011+94375000000+94375000000+94062500000+94062500000+93750000000+93750000000
1979+93437500000+93125000000+92812500000+92500000000+91875000000+91562500000
1947+90937500000+90937500000+90625000000+90312500000+89687500000+88750000000
1916+87812500000+86250000000+84687500000+82187500000+79375000000+74375000000
1884+64062500000+47500000000+41562500000+42187500000+44687500000+45937500000
1853+49375000000+57187500000+62812500000+66562500000+67812500000+68437500000
1821+68750000000+68750000000+68437500000+68437500000+68125000000+68437500000
1789+68750000000+69687500000+71562500000+73437500000+74375000000+71562500000
1758+62187500000+49687499999+47187500000+47812500000+53125000000+61250000000
1726+69062500000+73750000000+74687500000+73750000000+71875000000+70000000000
1695+70000000000+69687500000+69687500000+69687500000+69375000000+69375000000
1663+69375000000+69375000000+69375000000+69687500000+70000000000+70937500000
1632+72187500000+72500000000+73125000000+75000000000+77187500000+78437500000
1600+78750000000+79375000000+80312500000+81250000000+81562500000+81562500000
1568+82187500000+83437500000+85000000000+86250000000+85937500000+84062500000
1537+82500000000+82812500000+84375000000+86250000000+87187500000+86875000000
1505+85312500000+83750000000+83125000000+83125000000+83437500000+84687500000
1474+85625000000+87187500000+87187500000+85937500000+83437500000+79062500000
1442+72187500000+66250000000+60937500000+59687500000+60000000000+61562500000
1411+62812500000+62812500000+62187500000+58750000000+55312500000+54687500000
1379+55625000000+60312500000+68125000000+75312500000+79687500000+80000000000
1347+76250000000+70625000000+67500000000+65937500000+63437500000+62812500000
1316+63125000000+65000000000+68437500000+71250000000+73437500000+72500000000
1284+70937500000+70937500000+71250000000+73125000000+75312500000+77187500000
1253+78750000000+79062500000+79687500000+81250000000+84375000000+85312500000
1221+85937500000+86875000000+87187500000+85312500000+80937500000+77500000000
1189+77187500000+78125000000+81250000000+84062500000+86250000000+86875000000
1158+81875000000+74687500000+70000000000+69062500000+69687500000+71250000000
1126+75625000000+81250000000+82187500000+82500000000+85625000000+89687500000
1095+92812500000+92500000000+92187500000+92187500000+92500000000+92500000000
1063+92812500000+92812500000+93125000000+92812500000+92812500000+92187500000
1032+91250000000+89687500000+88125000000+85000000000+81562500000+80937500000
1000+81875000000+86250000000+90937500000+94062500000+94062500000+94062500000
968+94062500000+93750000000+93437500000+93125000000+93125000000+92812500000
937+92812500000+92812500000+92500000000+92500000000+92187500000+91875000000
905+90937500000+90000000000+89062500000+88437500000+88125000000+88125000000
874+87500000000+87187500000+86562500000+85000000000+81250000000+76562500000
842+75937500000+78437500000+82500000000+84687500000+85625000000+85937500000
811+85937500000+85937500000+85937500000+85625000000+85312500000+85000000000
779+85000000000+84687500000+84687500000+84375000000+84375000000+84375000000
747+84375000000+84375000000+84687500000+84687500000+84687500000+85000000000
716+85000000000+85312500000+85625000000+85625000000+85937500000+86250000000
684+86250000000+86562500000+86875000000+87187500000+87500000000+88125000000
653+88437500000+88750000000+89062500000+89375000000+89687500000+90000000000
621+90312500000+90625000000+90937500000+91250000000+91250000000+91562500000
589+91562500000+91875000000+91875000000+91875000000+92187500000+92187500000
558+92187500000+92500000000+92500000000+92500000000+92500000000+92500000000
526+92500000000+92500000000+92500000000+92812500000+92812500000+93125000000
495+93437500000+93437500000+93437500000+93437500000+93437500000+93437500000
463+93437500000+93437500000+93750000000+93750000000+93437500000+93125000000
432+92500000000+91875000000+91250000000+90937500000+90625000000+90312500000
400+90312500000
##END=
