##TITLE=2-pyrrolecarbaldehyde
##JCAMP-DX=4.24
##DATA TYPE=INFRARED SPECTRUM
##DATE=10/06/2025
##SAMPLING PROCEDURE=ATR
##ORIGIN=SDBS
##XUNITS=1/CM
##YUNITS=TRANSMITTANCE
##RESOLUTION=5.2631578947368425
##FIRSTX=4000.0
##LASTX=400.0
##DELTAX=-5.2631578947368425
##MAXY=94.6875
##MINY=0.0
##XFACTOR=1
##YFACTOR=1
##NPOINTS=685
##FIRSTY=0.0
##XYDATA=(X++(Y..Y))
4000+0+83437500000+83437500000+83437500000+83437500000+83437500000
3968+83750000000+83750000000+83437500000+83125000000+83125000000+83125000000
3937+83125000000+83125000000+83125000000+82812500000+82500000000+82187500000
3905+81875000000+81875000000+81875000000+81562500000+81562500000+81250000000
3874+81562500000+81562500000+81875000000+81875000000+81562500000+81250000000
3842+81250000000+81250000000+81250000000+81250000000+80937500000+80937500000
3811+81250000000+81250000000+81250000000+80937500000+80937500000+80937500000
3779+80937500000+80937500000+80625000000+80312500000+80312500000+80312500000
3747+80312500000+80312500000+80625000000+80625000000+80625000000+80625000000
3716+80937500000+80937500000+80937500000+80937500000+80937500000+80937500000
3684+80937500000+80937500000+80937500000+80937500000+80937500000+80937500000
3653+80937500000+80625000000+80625000000+80312500000+80312500000+80312500000
3621+80312500000+80312500000+80625000000+80625000000+80625000000+80625000000
3589+80312500000+80312500000+80000000000+79687500000+79375000000+79375000000
3558+79062500000+78437500000+78125000000+77500000000+76562500000+75000000000
3526+72812500000+71250000000+69375000000+66250000000+62812500000+60625000000
3495+58437500000+57812500000+57812500000+57500000000+57187500000+56250000000
3463+55000000000+53750000000+52812500000+51875000000+50937500000+50000000000
3432+48437500000+46875000000+45625000000+44687500000+44062500000+43750000000
3400+43437499999+43750000000+44062500000+44999999999+44999999999+45312500000
3368+47187500000+44999999999+44687500000+44687500000+44687500000+45312500000
3337+45312500000+45625000000+45937500000+46250000000+44999999999+43750000000
3305+41250000000+36562500000+27187500000+18750000000+10312500000+7187500000
3274+6875000000+7187500000+5937500000+4687500000+4687500000+5312500000
3242+7500000000+9062500000+11875000000+15312500000+14062500000+10937500000
3211+9375000000+7812500000+8750000000+19062500000+35312500000+45625000000
3179+51250000000+54062500000+55312500000+56875000000+59062500000+60000000000
3147+60625000000+56875000000+54375000000+55312500000+58750000000+60000000000
3116+61250000000+62187500000+62812500000+62812500000+60312500000+59687500000
3084+60312500000+61875000000+62500000000+63750000000+64375000000+64375000000
3053+62812500000+62812500000+64062500000+65312500000+65312500000+65000000000
3021+63750000000+60937500000+61875000000+63750000000+65937500000+67187500000
2989+66875000000+66875000000+67812500000+68750000000+69062500000+69062500000
2958+69062500000+69062500000+69687500000+70312500000+70625000000+69062500000
2926+68437500000+68437500000+69375000000+70000000000+70625000000+70625000000
2895+70312500000+70312500000+70625000000+70625000000+70937500000+71250000000
2863+71250000000+71562500000+71562500000+71875000000+71875000000+71875000000
2832+72187500000+72500000000+73125000000+73437500000+72812500000+72187500000
2800+72187500000+73437500000+74062500000+74375000000+74687500000+75000000000
2768+75000000000+75312500000+75312500000+75625000000+75937500000+75937500000
2737+76250000000+76250000000+76562500000+76562500000+76562500000+76875000000
2705+76875000000+77187500000+77812500000+78125000000+78437500000+78750000000
2674+78437500000+78437500000+78437500000+78750000000+79375000000+79687500000
2642+80312500000+80937500000+81250000000+81562500000+81875000000+82187500000
2611+82500000000+82812500000+83125000000+83125000000+83437500000+83750000000
2579+83750000000+84062500000+84375000000+84375000000+84687500000+84687500000
2547+85000000000+85625000000+85625000000+85937500000+86250000000+86562500000
2516+86562500000+86562500000+86875000000+86875000000+86875000000+87187500000
2484+87500000000+87500000000+87812500000+88125000000+88437500000+88750000000
2453+89062500000+88750000000+88750000000+88437500000+88437500000+88437500000
2421+88437500000+88437500000+88437500000+89062500000+89375000000+89687500000
2389+90000000000+90000000000+89687500000+89687500000+90000000000+90312500000
2358+90937500000+91875000000+92500000000+92812500000+93437500000+93750000000
2326+94375000000+94687500000+94687500000+94687500000+94062500000+93125000000
2295+92812500000+92187500000+91875000000+91250000000+90625000000+89687500000
2263+88437500000+87187500000+85937500000+84375000000+82187500000+79062500000
2232+75625000000+75000000000+75625000000+78125000000+77500000000+75312500000
2200+71562500000+67500000000+64375000000+60312500000+57187500000+54687500000
2168+54062500000+52812500000+48437500000+47812500000+46875000000+35312500000
2137+31250000000+36250000000+45312500000+48437500000+50000000000+50000000000
2105+50312500000+45312500000+43437499999+44687500000+47187500000+48124999999
2074+48750000000+49375000000+49687499999+49687499999+49687499999+49687499999
2042+49687499999+49687499999+50000000000+50000000000+50312500000+50937500000
2011+51562500000+51875000000+51250000000+50937500000+51250000000+52187500000
1979+54062500000+54687500000+55625000000+56250000000+56875000000+56562500000
1947+56562500000+56562500000+56875000000+57500000000+58437500000+58750000000
1916+59062500000+59062500000+58750000000+58437500000+57500000000+55312500000
1884+50312500000+42187500000+34687500000+32812500000+28125000000+28437500000
1853+30000000000+29375000000+29375000000+32500000000+42187500000+52187500000
1821+57812500000+60000000000+61250000000+59375000000+50000000000+37187499999
1789+33125000000+33125000000+33437500000+33750000000+35000000000+39062500000
1758+40937500000+43750000000+43750000000+50937500000+60312500000+44999999999
1726+36250000000+29687500000+28437500000+29375000000+37500000000+44687500000
1695+49687499999+54062500000+57812500000+61875000000+55312500000+47187500000
1663+45625000000+45937500000+47187500000+49062500000+50625000000+51562500000
1632+54062500000+55937500000+57812500000+58750000000+59375000000+60000000000
1600+60312500000+60937500000+61562500000+62187500000+62500000000+62812500000
1568+63750000000+63125000000+63125000000+65312500000+66250000000+66875000000
1537+67187500000+67812500000+68125000000+68437500000+69062500000+69687500000
1505+70312500000+70625000000+70625000000+71250000000+71562500000+72187500000
1474+72500000000+72500000000+72812500000+73437500000+74062500000+74062500000
1442+72812500000+70937500000+63750000000+47500000000+39375000000+39375000000
1411+44375000000+55312500000+62500000000+67187500000+70937500000+73750000000
1379+76562500000+78437500000+80937500000+63125000000+52500000000+52500000000
1347+52500000000+62812500000+67812500000+71875000000+75000000000+78125000000
1316+80312500000+81250000000+69375000000+53750000000+51562500000+51250000000
1284+51250000000+51562500000+53750000000+55937500000+60000000000+62500000000
1253+64687500000+65937500000+67187500000+68437500000+70000000000+62812500000
1221+63750000000+69375000000+70937500000+71562500000+72187500000+72187500000
1189+71562500000+70937500000+70312500000+70000000000+70000000000+70937500000
1158+72500000000+73750000000+74375000000+74687500000+75000000000+75000000000
1126+75000000000+75000000000+75000000000+75000000000+75312500000+75312500000
1095+75000000000+75000000000+74687500000+73750000000+71875000000+68437500000
1063+65625000000+58437500000+56562500000+53437500000+51562500000+51250000000
1032+52500000000+55937500000+61562500000+66250000000+70000000000+73437500000
1000+75937500000+78125000000+79687500000+79375000000+78125000000+75937500000
968+72187500000+66875000000+63437500000+60937500000+59062500000+57500000000
937+56875000000+56875000000+57812500000+59687500000+59687500000+50937500000
905+40625000000+38125000000+32812500000+28750000000+27812500000+28125000000
874+34687500000+36250000000+34375000000+37187499999+45937500000+52500000000
842+56250000000+59375000000+63125000000+67812500000+69687500000+71250000000
811+72812500000+74375000000+76562500000+77812500000+78437500000+78750000000
779+79062500000+79687500000+80000000000+80625000000+80937500000+81562500000
747+81875000000+82187500000+82187500000+81562500000+80937500000+80625000000
716+85312500000+85625000000+85625000000+86250000000+87187500000+87187500000
684+71562500000+52500000000+74375000000+83437500000+85000000000+86250000000
653+87187500000+87500000000+87500000000+87500000000+87500000000+87812500000
621+88125000000+88437500000+89062500000+90000000000+90625000000+91562500000
589+92187500000+92812500000+92812500000+91875000000+88125000000+70625000000
558+65312500000+69062500000+78125000000+81562500000+84375000000+86250000000
526+87500000000+88750000000+89687500000+90625000000+91250000000+91875000000
495+92187500000+91562500000+91250000000+90625000000+90000000000+89375000000
463+89062500000+88125000000+87500000000+86250000000+85312500000+84062500000
432+82812500000+81250000000+80000000000+78750000000+77500000000+76562500000
400+76250000000
##END=
