##TITLE=2-pyridone
##JCAMP-DX=4.24
##DATA TYPE=INFRARED SPECTRUM
##DATE=10/06/2025
##SAMPLING PROCEDURE=ATR
##ORIGIN=SDBS
##XUNITS=1/CM
##YUNITS=TRANSMITTANCE
##RESOLUTION=5.2631578947368425
##FIRSTX=4000.0
##LASTX=400.0
##DELTAX=-5.2631578947368425
##MAXY=94.6875
##MINY=0.0
##XFACTOR=1
##YFACTOR=1
##NPOINTS=685
##FIRSTY=0.0
##XYDATA=(X++(Y..Y))
4000+0+82812500000+82500000000+82500000000+82187500000+81875000000
3968+81875000000+81875000000+81875000000+81875000000+81875000000+82187500000
3937+82187500000+82187500000+82187500000+81875000000+81562500000+81250000000
3905+81250000000+81562500000+82187500000+82187500000+82187500000+82187500000
3874+82187500000+82187500000+81875000000+81875000000+82187500000+82187500000
3842+81875000000+81875000000+81562500000+81562500000+81562500000+81562500000
3811+81875000000+82187500000+81875000000+81875000000+81875000000+82187500000
3779+82187500000+82500000000+82500000000+82187500000+81875000000+81875000000
3747+81875000000+82187500000+82187500000+82187500000+82187500000+82187500000
3716+82187500000+82500000000+82500000000+82812500000+83125000000+83437500000
3684+83437500000+83437500000+83125000000+82812500000+82812500000+82812500000
3653+83125000000+83125000000+83125000000+83125000000+83437500000+83437500000
3621+83437500000+83437500000+83437500000+83437500000+83437500000+83437500000
3589+83437500000+83750000000+83750000000+83750000000+83437500000+83437500000
3558+83437500000+83750000000+83750000000+83750000000+83750000000+83750000000
3526+83750000000+83437500000+82812500000+81875000000+80937500000+80312500000
3495+79375000000+78125000000+76250000000+74687500000+73750000000+72500000000
3463+70937500000+69375000000+66875000000+65937500000+65312500000+65000000000
3432+64375000000+62500000000+59687500000+56562500000+54687500000+52812500000
3400+50000000000+48124999999+45937500000+45312500000+44999999999+44687500000
3368+44687500000+44375000000+42500000000+42187500000+42187500000+42812500000
3337+44375000000+44062500000+43125000000+42187500000+40625000000+39062500000
3305+36562500000+33125000000+26562500000+20625000000+12812500000+9375000000
3274+9062500000+9062500000+6562500000+4687500000+4687500000+5625000000
3242+9375000000+13125000000+17500000000+20625000000+20312500000+18125000000
3211+15937500000+13125000000+13437500000+23750000000+39062500000+47812500000
3179+51875000000+51875000000+55625000000+57500000000+57812500000+58125000000
3147+60000000000+62187500000+63125000000+64687500000+65625000000+65937500000
3116+65937500000+66562500000+68125000000+68750000000+69062500000+68750000000
3084+68437500000+68437500000+69375000000+70625000000+70937500000+71562500000
3053+72500000000+73125000000+73750000000+73437500000+73125000000+73437500000
3021+73750000000+74687500000+75937500000+76875000000+77187500000+77187500000
2989+77500000000+77812500000+77812500000+77812500000+78125000000+79062500000
2958+80000000000+80000000000+78437500000+74062500000+73750000000+73125000000
2926+75312500000+78125000000+78750000000+79375000000+79375000000+79375000000
2895+79687500000+80000000000+80312500000+80625000000+80937500000+81250000000
2863+81562500000+81875000000+82500000000+82500000000+83125000000+83437500000
2832+83750000000+84062500000+84062500000+84062500000+84062500000+84375000000
2800+85000000000+85000000000+82187500000+81875000000+83750000000+84687500000
2768+85000000000+85312500000+85625000000+85937500000+85937500000+86250000000
2737+86250000000+86562500000+86875000000+86875000000+87187500000+87500000000
2705+87812500000+88125000000+88125000000+88437500000+88437500000+88750000000
2674+88750000000+89062500000+88750000000+88750000000+89062500000+89375000000
2642+90000000000+90312500000+90000000000+90000000000+90312500000+90312500000
2611+90312500000+89687500000+89375000000+89062500000+88750000000+88750000000
2579+89062500000+89375000000+89687500000+90312500000+90625000000+90625000000
2547+90937500000+90937500000+90625000000+90625000000+90625000000+90625000000
2516+90625000000+90625000000+90625000000+90625000000+90937500000+90937500000
2484+91250000000+91562500000+91875000000+91875000000+92187500000+92187500000
2453+91875000000+91875000000+91562500000+91250000000+90937500000+90312500000
2421+89062500000+86875000000+85937500000+85937500000+86875000000+88125000000
2389+88750000000+89687500000+90312500000+89687500000+89062500000+89062500000
2358+89062500000+90000000000+90625000000+91250000000+91250000000+91250000000
2326+91250000000+92187500000+93437500000+94062500000+94062500000+94062500000
2295+94062500000+94062500000+94062500000+94062500000+94062500000+94062500000
2263+94062500000+93750000000+93750000000+93437500000+92500000000+91562500000
2232+90625000000+89062500000+86250000000+83437500000+80937500000+78750000000
2200+75000000000+69687500000+62812500000+54687500000+48750000000+44687500000
2168+44687500000+50937500000+50937500000+48437500000+41562500000+35312500000
2137+30312500000+25000000000+23750000000+23750000000+23750000000+23750000000
2105+24062500000+27500000000+39375000000+49375000000+51875000000+48437500000
2074+26875000000+24375000000+25000000000+27500000000+29062500000+29687500000
2042+30000000000+29687500000+29375000000+29062500000+28125000000+27812500000
2011+27500000000+27812500000+28125000000+29062500000+29687500000+30625000000
1979+26250000000+23750000000+23437500000+26875000000+30000000000+33125000000
1947+35937500000+37187499999+37500000000+39062500000+41250000000+42500000000
1916+44062500000+45312500000+46250000000+44999999999+43750000000+42812500000
1884+40937500000+35625000000+30312500000+29687500000+27500000000+25000000000
1853+25625000000+36875000000+42812500000+44062500000+38125000000+36562500000
1821+36562500000+37187499999+37500000000+37812500000+38125000000+40625000000
1789+44375000000+48750000000+52187500000+54062500000+55000000000+51875000000
1758+49687499999+46562499999+45937500000+48437500000+53125000000+50625000000
1726+52187500000+56875000000+59375000000+60937500000+62187500000+63750000000
1695+64687500000+66250000000+67187500000+68437500000+69375000000+70000000000
1663+70312500000+70937500000+71875000000+72187500000+72812500000+73125000000
1632+73750000000+74375000000+75000000000+75937500000+77187500000+78125000000
1600+78750000000+78750000000+76250000000+76250000000+75312500000+63750000000
1568+44687500000+35937500000+33437500000+43750000000+51562500000+55312500000
1537+63437500000+62812500000+62812500000+70625000000+72812500000+74687500000
1505+76562500000+78125000000+79062500000+80000000000+81250000000+80000000000
1474+75312500000+70625000000+70625000000+74375000000+74687500000+49687499999
1442+37500000000+39062500000+50937500000+54687500000+64375000000+68437500000
1411+68750000000+70937500000+73125000000+74375000000+76562500000+77812500000
1379+79062500000+79687500000+61875000000+44375000000+47812500000+63437500000
1347+70625000000+74062500000+75937500000+77187500000+78750000000+79687500000
1316+80312500000+80625000000+81250000000+81875000000+82187500000+82187500000
1284+82500000000+83125000000+83437500000+83750000000+84062500000+84062500000
1253+83125000000+76250000000+58437500000+53437500000+61562500000+65000000000
1221+64375000000+59062500000+57500000000+49375000000+46875000000+48124999999
1189+55000000000+59375000000+63750000000+65625000000+66562500000+70312500000
1158+74687500000+79375000000+80625000000+77812500000+71562500000+63125000000
1126+60312500000+60312500000+62812500000+65937500000+69375000000+70625000000
1095+70937500000+70625000000+70937500000+71250000000+72187500000+73750000000
1063+75312500000+76250000000+77812500000+78750000000+78750000000+78750000000
1032+80625000000+82500000000+84062500000+81250000000+77812500000+84375000000
1000+81875000000+81875000000+85937500000+86250000000+87187500000+88437500000
968+89375000000+90000000000+90937500000+91250000000+88437500000+84062500000
937+72500000000+42500000000+25000000000+25000000000+29375000000+40625000000
905+54375000000+64687500000+70000000000+74062500000+77187500000+80625000000
874+82500000000+83750000000+80625000000+65312500000+51875000000+59687500000
842+74375000000+77500000000+81875000000+85000000000+86562500000+86875000000
811+87500000000+87812500000+88437500000+88750000000+89062500000+89375000000
779+89687500000+90000000000+90312500000+90625000000+90937500000+91250000000
747+91562500000+91875000000+92187500000+92187500000+92187500000+92187500000
716+91875000000+91250000000+90625000000+85312500000+82187500000+80625000000
684+80625000000+85937500000+90625000000+92500000000+93125000000+93750000000
653+94062500000+94687500000+94687500000+94687500000+94062500000+90937500000
621+66250000000+49687499999+47812500000+44062500000+71250000000+86875000000
589+91250000000+93125000000+90937500000+41562500000+36875000000+64375000000
558+82812500000+84687500000+86250000000+89375000000+90625000000+92187500000
526+93125000000+92500000000+89687500000+81562500000+53750000000+40937500000
495+41874999999+60625000000+78437500000+85312500000+86875000000+87812500000
463+91875000000+90625000000+90312500000+89687500000+88437500000+87187500000
432+85937500000+84687500000+83750000000+82500000000+81875000000+81250000000
400+81250000000
##END=
