##TITLE=2-pyridinepropanol
##JCAMP-DX=4.24
##DATA TYPE=INFRARED SPECTRUM
##DATE=10/06/2025
##SAMPLING PROCEDURE=ATR
##ORIGIN=SDBS
##XUNITS=1/CM
##YUNITS=TRANSMITTANCE
##RESOLUTION=5.2631578947368425
##FIRSTX=4000.0
##LASTX=400.0
##DELTAX=-5.2631578947368425
##MAXY=94.6875
##MINY=0.0
##XFACTOR=1
##YFACTOR=1
##NPOINTS=685
##FIRSTY=0.0
##XYDATA=(X++(Y..Y))
4000+0+91562500000+91250000000+91562500000+91562500000+91875000000
3968+92187500000+92500000000+92187500000+91875000000+91562500000+91562500000
3937+91250000000+91250000000+91250000000+90937500000+90937500000+90625000000
3905+90312500000+90312500000+90000000000+90000000000+90000000000+90000000000
3874+90000000000+89687500000+89687500000+89375000000+89375000000+89062500000
3842+88750000000+88437500000+88437500000+88437500000+88750000000+88437500000
3811+88125000000+87812500000+87187500000+86875000000+85937500000+84687500000
3779+83437500000+82187500000+80937500000+79687500000+78437500000+76875000000
3747+75625000000+73437500000+70625000000+68125000000+66250000000+63437500000
3716+60937500000+58437500000+55000000000+51250000000+47500000000+44999999999
3684+40937500000+37187499999+34062500000+31250000000+27812500000+25000000000
3653+22187500000+20000000000+17812500000+15312500000+13437500000+12187500000
3621+10937500000+9687500000+8750000000+7812500000+7187500000+6562500000
3589+6250000000+5937500000+5625000000+5312500000+5000000000+5000000000
3558+5000000000+5000000000+5000000000+4687500000+4687500000+4687500000
3526+4687500000+4687500000+4687500000+4687500000+4687500000+4687500000
3495+4687500000+4687500000+5000000000+5000000000+5000000000+5312500000
3463+5312500000+5625000000+5937500000+6250000000+6562500000+6875000000
3432+7187500000+7500000000+8125000000+8750000000+9062500000+9687500000
3400+10312500000+10937500000+12500000000+12812500000+14375000000+15000000000
3368+15312500000+15312500000+15625000000+16250000000+16562500000+17812500000
3337+19375000000+21562500000+24062500000+21875000000+20000000000+20312500000
3305+22500000000+27812500000+26875000000+23125000000+15625000000+9687500000
3274+6562500000+5937500000+5937500000+5937500000+6250000000+7187500000
3242+8437500000+10937500000+12500000000+11250000000+9687500000+8125000000
3211+8125000000+8750000000+11250000000+13750000000+17187500000+20312500000
3179+23750000000+27187500000+30937500000+33750000000+36250000000+38437500000
3147+40000000000+40937500000+42500000000+43750000000+44375000000+45625000000
3116+46875000000+48750000000+49687499999+51562500000+53125000000+54687500000
3084+55625000000+57500000000+57812500000+59062500000+60312500000+61250000000
3053+62187500000+63125000000+63750000000+64375000000+65312500000+66250000000
3021+67187500000+67812500000+69687500000+70625000000+72187500000+72812500000
2989+73437500000+73750000000+74062500000+74375000000+74375000000+74375000000
2958+74687500000+75000000000+75312500000+75937500000+77187500000+78125000000
2926+79375000000+80312500000+80937500000+81250000000+81875000000+82500000000
2895+83125000000+83437500000+83750000000+84062500000+84375000000+84375000000
2863+84375000000+84375000000+84375000000+84062500000+84062500000+83750000000
2832+83750000000+83750000000+83750000000+84375000000+85000000000+85312500000
2800+85625000000+85625000000+85625000000+85625000000+85937500000+85937500000
2768+85937500000+85625000000+85625000000+85625000000+85937500000+86562500000
2737+87187500000+87812500000+88125000000+88437500000+88437500000+89062500000
2705+89375000000+89375000000+89062500000+89062500000+89375000000+89375000000
2674+89687500000+90000000000+90000000000+90312500000+90625000000+90937500000
2642+91250000000+91562500000+91562500000+91250000000+90625000000+89687500000
2611+88750000000+88125000000+87812500000+87500000000+87187500000+87187500000
2579+87187500000+87187500000+87187500000+87187500000+87187500000+87187500000
2547+87500000000+88125000000+88437500000+89375000000+90312500000+90937500000
2516+90937500000+90625000000+90312500000+90312500000+90312500000+90937500000
2484+91250000000+91562500000+91875000000+91875000000+91875000000+91875000000
2453+91875000000+91875000000+91875000000+91875000000+91562500000+91562500000
2421+91250000000+90937500000+90937500000+90937500000+91250000000+91875000000
2389+92187500000+92812500000+93437500000+94062500000+94062500000+94375000000
2358+94687500000+94687500000+94687500000+94687500000+94375000000+94375000000
2326+94062500000+94062500000+93750000000+93437500000+93437500000+93125000000
2295+93125000000+93125000000+93125000000+93125000000+93125000000+93125000000
2263+93437500000+93125000000+92812500000+92187500000+91562500000+90625000000
2232+90000000000+89375000000+89062500000+87812500000+86875000000+86250000000
2200+85000000000+83437500000+81562500000+79375000000+77187500000+75000000000
2168+73750000000+72500000000+71562500000+70937500000+70625000000+70625000000
2137+70625000000+70937500000+71250000000+71562500000+71875000000+72187500000
2105+72187500000+71875000000+70625000000+67500000000+63125000000+56562500000
2074+47812500000+34375000000+20937500000+9375000000+5625000000+5625000000
2042+7812500000+13125000000+25937500000+39062500000+21250000000+11562500000
2011+11875000000+37500000000+61250000000+69375000000+74687500000+76562500000
1979+79375000000+80000000000+80000000000+79062500000+78437500000+77500000000
1947+75937500000+73750000000+72187500000+70000000000+67187500000+63437500000
1916+59062500000+52187500000+41250000000+23750000000+10625000000+6875000000
1884+6875000000+9375000000+18750000000+29687500000+32500000000+26250000000
1853+19375000000+16250000000+13125000000+8750000000+5937500000+5937500000
1821+9375000000+17812500000+25625000000+32500000000+37187499999+40625000000
1789+42812500000+45625000000+48124999999+50000000000+50937500000+49375000000
1758+46875000000+44687500000+43750000000+44062500000+45937500000+48124999999
1726+47812500000+47187500000+45937500000+45312500000+45625000000+47812500000
1695+49375000000+50937500000+51875000000+53125000000+52187500000+49687499999
1663+49375000000+49687499999+52812500000+54062500000+53125000000+53125000000
1632+54375000000+57812500000+60312500000+61250000000+60937500000+61250000000
1600+62812500000+65625000000+68437500000+70937500000+70000000000+67187500000
1568+65312500000+64687500000+63750000000+63750000000+64062500000+65625000000
1537+67187500000+68750000000+69687500000+71875000000+73437500000+75000000000
1505+75625000000+75937500000+75937500000+76562500000+76875000000+77187500000
1474+76250000000+74375000000+71562500000+69375000000+64062500000+57187500000
1442+46875000000+37812500000+36250000000+38749999999+55625000000+68750000000
1411+79687500000+83437500000+85625000000+86250000000+85625000000+82812500000
1379+76250000000+66562500000+61562500000+61562500000+65937500000+60000000000
1347+44999999999+28750000000+18750000000+14062500000+11562500000+9375000000
1316+8437500000+7500000000+7187500000+7187500000+7812500000+9062500000
1284+10000000000+11562500000+15000000000+20625000000+28125000000+36875000000
1253+40625000000+40625000000+40937500000+30312500000+20937500000+20625000000
1221+32187500000+35625000000+49375000000+72500000000+80312500000+87187500000
1189+90937500000+90000000000+88125000000+87500000000+87812500000+90625000000
1158+94375000000+91875000000+85625000000+76250000000+70625000000+68125000000
1126+65312500000+59687500000+53750000000+52812500000+53437500000+59062500000
1095+70000000000+78437500000+80312500000+80000000000+79687500000+79687500000
1063+79687500000+80625000000+83125000000+85000000000+84375000000+81250000000
1032+78750000000+78750000000+79687500000+79687500000+76562500000+69687500000
1000+63125000000+58125000000+57500000000+57812500000+62187500000+67187500000
968+69687500000+70000000000+69375000000+68437500000+67500000000+65937500000
937+60000000000+51250000000+38437500000+25937500000+15937500000+11875000000
905+10625000000+10625000000+12187500000+12812500000+13125000000+13750000000
874+16875000000+27500000000+39687500000+45937500000+47812500000+48750000000
842+49062500000+49375000000+49687499999+50000000000+50312500000+50625000000
811+50937500000+50937500000+50937500000+50937500000+50937500000+50937500000
779+50625000000+50625000000+50625000000+50625000000+50312500000+50312500000
747+50312500000+50000000000+49687499999+48124999999+42812500000+33125000000
716+32812500000+40312499999+44687500000+50000000000+49375000000+46250000000
684+44999999999+45625000000+47187500000+47187500000+47812500000+48124999999
653+48437500000+49375000000+51562500000+56250000000+60000000000+62187500000
621+64062500000+65625000000+67500000000+69375000000+70625000000+71250000000
589+68437500000+64062500000+59687500000+58750000000+59062500000+61875000000
558+64062500000+66562500000+62812500000+57500000000+57500000000+65937500000
526+66250000000+66562500000+66875000000+67500000000+68125000000+69375000000
495+71875000000+75000000000+78125000000+80625000000+83437500000+85937500000
463+88125000000+89375000000+90937500000+91250000000+89687500000+86562500000
432+80937500000+74687500000+69687500000+64062500000+59062500000+56250000000
400+55312500000
##END=
