##TITLE=3,3-dimethyl-1-butene
##JCAMP-DX=4.24
##DATA TYPE=INFRARED SPECTRUM
##DATE=10/06/2025
##SAMPLING PROCEDURE=ATR
##ORIGIN=SDBS
##XUNITS=1/CM
##YUNITS=TRANSMITTANCE
##RESOLUTION=5.2631578947368425
##FIRSTX=4000.0
##LASTX=400.0
##DELTAX=-5.2631578947368425
##MAXY=95.0
##MINY=0.0
##XFACTOR=1
##YFACTOR=1
##NPOINTS=685
##FIRSTY=0.0
##XYDATA=(X++(Y..Y))
4000+0+91250000000+91250000000+91250000000+91250000000+91250000000
3968+91562500000+91562500000+91562500000+91562500000+91562500000+91562500000
3937+91562500000+90937500000+90937500000+90937500000+90937500000+90937500000
3905+91250000000+91562500000+91562500000+91562500000+91875000000+91875000000
3874+91875000000+91562500000+91562500000+91562500000+91875000000+91875000000
3842+92187500000+92187500000+92187500000+92187500000+92187500000+92500000000
3811+92500000000+92500000000+92500000000+92500000000+92500000000+92500000000
3779+92500000000+92187500000+92187500000+92187500000+92187500000+92187500000
3747+92187500000+92187500000+92187500000+92187500000+92187500000+92187500000
3716+92187500000+92187500000+92187500000+92187500000+92500000000+92500000000
3684+92500000000+92187500000+92187500000+92187500000+92187500000+92187500000
3653+92187500000+91875000000+91875000000+91875000000+91875000000+92187500000
3621+92187500000+92187500000+92187500000+92187500000+92187500000+91875000000
3589+91875000000+91562500000+91562500000+91250000000+90625000000+90312500000
3558+90000000000+90000000000+90000000000+90312500000+90312500000+90000000000
3526+90000000000+90000000000+90312500000+90312500000+90312500000+90000000000
3495+89375000000+88750000000+88125000000+87812500000+87187500000+87187500000
3463+87187500000+87187500000+87500000000+87187500000+87187500000+86875000000
3432+87187500000+87500000000+88125000000+88437500000+89062500000+89375000000
3400+89375000000+88750000000+87500000000+85312500000+79375000000+69375000000
3368+46562499999+42187500000+53125000000+67500000000+70625000000+79687500000
3337+83437500000+82812500000+79375000000+75000000000+64375000000+47812500000
3305+42500000000+42500000000+24687500000+13750000000+5312500000+4687500000
3274+5312500000+9062500000+16875000000+21250000000+25625000000+28437500000
3242+25937500000+26250000000+33125000000+33125000000+29375000000+24375000000
3211+24375000000+35312500000+60000000000+73125000000+79375000000+81562500000
3179+82500000000+84687500000+84687500000+85625000000+88750000000+90000000000
3147+90625000000+90937500000+91562500000+90625000000+89375000000+89375000000
3116+90312500000+87500000000+86875000000+87187500000+90937500000+91562500000
3084+91562500000+91562500000+91562500000+91875000000+92187500000+92187500000
3053+92500000000+92812500000+92812500000+93125000000+93125000000+93125000000
3021+92812500000+92812500000+92812500000+92812500000+92812500000+93125000000
2989+93437500000+93437500000+93437500000+93437500000+93437500000+93750000000
2958+93750000000+94062500000+94062500000+94062500000+94062500000+94062500000
2926+94062500000+94062500000+94062500000+94062500000+94062500000+93750000000
2895+93750000000+93437500000+93437500000+93437500000+93437500000+93125000000
2863+93125000000+93125000000+93125000000+93437500000+93437500000+93437500000
2832+93437500000+93125000000+92812500000+92812500000+92812500000+93125000000
2800+93750000000+94062500000+94062500000+94062500000+94375000000+94375000000
2768+94687500000+94687500000+94687500000+94687500000+94687500000+94687500000
2737+94687500000+94687500000+94687500000+94687500000+94687500000+94687500000
2705+94687500000+94687500000+94687500000+95000000000+94687500000+94375000000
2674+94375000000+94062500000+94062500000+94375000000+94375000000+94687500000
2642+94687500000+94687500000+94687500000+94687500000+94375000000+93750000000
2611+93125000000+92812500000+92812500000+92812500000+92812500000+93125000000
2579+93437500000+93750000000+94062500000+94375000000+94375000000+94687500000
2547+94687500000+94687500000+94687500000+94375000000+94375000000+94062500000
2516+94062500000+94062500000+94062500000+94062500000+94062500000+94062500000
2484+94062500000+94062500000+94062500000+94375000000+94375000000+94375000000
2453+94375000000+94375000000+94375000000+94687500000+94375000000+94375000000
2421+94375000000+94062500000+93750000000+93437500000+92500000000+91562500000
2389+89687500000+86875000000+83437500000+80937500000+80625000000+81562500000
2358+85625000000+89062500000+90937500000+92187500000+93125000000+93437500000
2326+93750000000+94062500000+94062500000+93750000000+93750000000+93437500000
2295+93437500000+93437500000+93437500000+93437500000+93437500000+93437500000
2263+93437500000+93437500000+93437500000+93437500000+93437500000+93437500000
2232+93437500000+93437500000+93437500000+93437500000+93437500000+93437500000
2200+93437500000+93125000000+92812500000+92187500000+91250000000+90000000000
2168+90000000000+90000000000+90000000000+89375000000+88437500000+85937500000
2137+82500000000+76250000000+64375000000+38437500000+29062500000+35000000000
2105+61250000000+75625000000+83437500000+86875000000+88437500000+89375000000
2074+90625000000+91562500000+90625000000+88437500000+85312500000+82812500000
2042+82812500000+84375000000+88437500000+90937500000+92500000000+93125000000
2011+93437500000+93750000000+94062500000+94062500000+94062500000+94062500000
1979+93750000000+93437500000+93125000000+93125000000+92812500000+92500000000
1947+92187500000+91562500000+90937500000+89687500000+87812500000+85000000000
1916+82187500000+77187500000+69687500000+55312500000+39062500000+35000000000
1884+38749999999+49062500000+43125000000+40000000000+40312499999+47812500000
1853+56562500000+64062500000+68437500000+71875000000+74062500000+74062500000
1821+72500000000+69375000000+61250000000+51875000000+51875000000+62500000000
1789+71250000000+76875000000+78750000000+77812500000+69687500000+55312500000
1758+53750000000+60000000000+66562500000+60937500000+44999999999+27500000000
1726+25625000000+31562500000+55937500000+71562500000+79062500000+84062500000
1695+86875000000+88437500000+89687500000+90625000000+90937500000+91250000000
1663+91250000000+91250000000+91250000000+91250000000+91250000000+90937500000
1632+90937500000+90937500000+90625000000+89687500000+86875000000+81562500000
1600+76562500000+76875000000+81562500000+85625000000+87500000000+88750000000
1568+88437500000+87812500000+86562500000+85625000000+84062500000+82500000000
1537+79375000000+73437500000+62812500000+52500000000+46875000000+47187500000
1505+54062500000+66250000000+74687500000+81250000000+85000000000+87187500000
1474+90000000000+90625000000+90625000000+90937500000+90937500000+91250000000
1442+91562500000+92187500000+92812500000+93125000000+93437500000+93125000000
1411+93125000000+92812500000+92500000000+92187500000+91875000000+91562500000
1379+91250000000+91250000000+90937500000+90625000000+90625000000+90312500000
1347+90000000000+89062500000+87812500000+84687500000+77812500000+74062500000
1316+74375000000+78437500000+83437500000+85937500000+87187500000+87187500000
1284+86250000000+84375000000+81562500000+75312500000+69375000000+69375000000
1253+74062500000+74687500000+68437500000+55312500000+38125000000+30000000000
1221+30937500000+44687500000+60000000000+68750000000+75312500000+79062500000
1189+81250000000+82812500000+83750000000+84375000000+84375000000+83750000000
1158+83125000000+82187500000+80625000000+77812500000+72812500000+67187500000
1126+60312500000+50000000000+35625000000+19375000000+12500000000+12187500000
1095+16562500000+30312500000+45625000000+57812500000+64375000000+67187500000
1063+63437500000+64062500000+76250000000+84062500000+87500000000+89375000000
1032+90625000000+91562500000+91875000000+92500000000+92812500000+93125000000
1000+93437500000+93437500000+93437500000+93437500000+93125000000+93125000000
968+92812500000+92812500000+92812500000+92812500000+93125000000+93125000000
937+93437500000+93437500000+93750000000+93750000000+94062500000+94062500000
905+94062500000+94062500000+94062500000+94062500000+94062500000+94062500000
874+94062500000+94062500000+93750000000+93750000000+93437500000+92812500000
842+92187500000+91562500000+90937500000+90312500000+89375000000+87812500000
811+85000000000+80312500000+70937500000+56875000000+42812500000+42500000000
779+51250000000+67812500000+77187500000+83125000000+87187500000+89375000000
747+90625000000+91562500000+92187500000+92812500000+93125000000+93437500000
716+93750000000+93750000000+94062500000+94062500000+94062500000+94062500000
684+94375000000+94375000000+94375000000+94687500000+94687500000+94687500000
653+94687500000+94687500000+94687500000+95000000000+94687500000+94687500000
621+94687500000+94687500000+94375000000+94375000000+94375000000+94375000000
589+94062500000+94062500000+94062500000+94062500000+94062500000+93750000000
558+93750000000+93750000000+93750000000+93750000000+93437500000+93437500000
526+93125000000+93125000000+92812500000+92812500000+92500000000+92500000000
495+92187500000+92187500000+91875000000+91562500000+91250000000+90937500000
463+90937500000+90625000000+90625000000+90625000000+90937500000+90937500000
432+90937500000+90000000000+89375000000+88125000000+86875000000+86250000000
400+85937500000
##END=
