##TITLE=3,3-dimethyloctane
##JCAMP-DX=4.24
##DATA TYPE=INFRARED SPECTRUM
##DATE=10/06/2025
##SAMPLING PROCEDURE=ATR
##ORIGIN=SDBS
##XUNITS=1/CM
##YUNITS=TRANSMITTANCE
##RESOLUTION=5.2631578947368425
##FIRSTX=4000.0
##LASTX=400.0
##DELTAX=-5.2631578947368425
##MAXY=94.6875
##MINY=0.0
##XFACTOR=1
##YFACTOR=1
##NPOINTS=685
##FIRSTY=0.0
##XYDATA=(X++(Y..Y))
4000+0+90937500000+90625000000+90625000000+90625000000+90625000000
3968+90625000000+90625000000+90625000000+90312500000+90312500000+90000000000
3937+90000000000+90000000000+89687500000+89687500000+89687500000+89687500000
3905+89687500000+89687500000+89687500000+89687500000+89687500000+89687500000
3874+89687500000+89687500000+89687500000+89687500000+90000000000+90312500000
3842+90312500000+90312500000+90000000000+89687500000+89687500000+90000000000
3811+90000000000+90312500000+90312500000+90312500000+90312500000+90000000000
3779+90000000000+90000000000+90000000000+90312500000+90312500000+90312500000
3747+90312500000+90312500000+90312500000+90312500000+90312500000+90312500000
3716+90312500000+90625000000+90625000000+90625000000+90625000000+90625000000
3684+90625000000+90625000000+90312500000+90312500000+90312500000+90312500000
3653+90312500000+90000000000+90000000000+90000000000+90000000000+90000000000
3621+89687500000+89687500000+89375000000+89375000000+89062500000+89062500000
3589+88750000000+88750000000+88437500000+88125000000+88125000000+88125000000
3558+88125000000+87812500000+87812500000+87812500000+87500000000+87187500000
3526+87187500000+86875000000+86875000000+86562500000+86250000000+86250000000
3495+85937500000+85625000000+85312500000+85000000000+84687500000+84375000000
3463+84375000000+84062500000+84062500000+83750000000+83750000000+83750000000
3432+83750000000+84062500000+84375000000+85000000000+85312500000+85937500000
3400+86250000000+86875000000+86875000000+87187500000+87187500000+87187500000
3368+87187500000+86875000000+86250000000+85625000000+85000000000+84687500000
3337+84062500000+82812500000+81250000000+79062500000+75937500000+73125000000
3305+66875000000+56562500000+38437500000+17500000000+6250000000+4687500000
3274+5000000000+7812500000+6875000000+5937500000+5937500000+8750000000
3242+12812500000+14375000000+16562500000+19062500000+16250000000+15937500000
3211+15937500000+15937500000+19687500000+33437500000+52187500000+62812500000
3179+70312500000+74687500000+77500000000+78750000000+81875000000+83437500000
3147+84687500000+84687500000+85625000000+85937500000+85625000000+84687500000
3116+84062500000+84687500000+85937500000+86562500000+87187500000+86875000000
3084+86562500000+86562500000+86562500000+86562500000+86875000000+87187500000
3053+87500000000+87812500000+88125000000+88437500000+88750000000+89062500000
3021+89062500000+89375000000+89375000000+89687500000+89687500000+90000000000
2989+90312500000+90625000000+90625000000+90625000000+90937500000+90937500000
2958+91250000000+91250000000+90937500000+90937500000+90937500000+90937500000
2926+90625000000+90625000000+90625000000+90937500000+90937500000+90625000000
2895+90625000000+90625000000+90625000000+90625000000+90625000000+90625000000
2863+90625000000+90625000000+90625000000+90625000000+90625000000+90625000000
2832+90625000000+90937500000+90937500000+90937500000+91250000000+91250000000
2800+91562500000+91562500000+91562500000+91250000000+91250000000+91250000000
2768+91250000000+91562500000+91562500000+91562500000+91562500000+91562500000
2737+91562500000+91875000000+91875000000+91875000000+91875000000+91875000000
2705+92187500000+92187500000+92187500000+92187500000+92187500000+92187500000
2674+92187500000+92187500000+92187500000+92187500000+92500000000+92500000000
2642+92500000000+92187500000+92187500000+92187500000+92187500000+92500000000
2611+92500000000+92500000000+92500000000+92500000000+92500000000+92812500000
2579+92812500000+92812500000+92812500000+92812500000+92812500000+92812500000
2547+92812500000+93125000000+93125000000+93125000000+93125000000+93125000000
2516+93125000000+93125000000+92812500000+92812500000+92812500000+92812500000
2484+92812500000+92812500000+92812500000+92812500000+92812500000+92812500000
2453+92812500000+92812500000+92812500000+92812500000+92812500000+92812500000
2421+92812500000+92812500000+92812500000+92812500000+92500000000+92500000000
2389+92500000000+92812500000+92812500000+92812500000+92812500000+92812500000
2358+92812500000+92812500000+92812500000+92812500000+92812500000+92812500000
2326+92812500000+92812500000+92812500000+92812500000+92812500000+92812500000
2295+92812500000+92812500000+92812500000+92812500000+92812500000+92812500000
2263+92812500000+92812500000+92812500000+92812500000+92500000000+92500000000
2232+92187500000+92187500000+92187500000+91875000000+91875000000+91875000000
2200+91875000000+91875000000+91875000000+91875000000+91875000000+91875000000
2168+91562500000+91562500000+91562500000+91562500000+91562500000+91562500000
2137+91875000000+91875000000+91875000000+91875000000+91875000000+91875000000
2105+91875000000+91875000000+91875000000+91875000000+92187500000+92187500000
2074+92187500000+92187500000+92187500000+92187500000+92187500000+92187500000
2042+92187500000+92187500000+91875000000+91875000000+91562500000+91562500000
2011+91562500000+91250000000+91250000000+90937500000+90937500000+90625000000
1979+90625000000+90312500000+90312500000+90312500000+90000000000+90000000000
1947+90000000000+90000000000+89687500000+88750000000+87812500000+86250000000
1916+85312500000+83750000000+80937500000+76250000000+69687500000+55000000000
1884+38749999999+33750000000+31250000000+30312500000+31250000000+36250000000
1853+42187500000+51250000000+59687500000+66562500000+70312500000+74375000000
1821+78437500000+81250000000+83125000000+84375000000+85000000000+85312500000
1789+85000000000+84375000000+82500000000+79687500000+71562500000+50625000000
1758+49687499999+45937500000+44687500000+55937500000+62500000000+43125000000
1726+44062500000+71250000000+80625000000+83750000000+84062500000+82187500000
1695+82500000000+85937500000+87812500000+88750000000+87500000000+86250000000
1663+85000000000+84687500000+85312500000+87187500000+87500000000+87500000000
1632+87500000000+87500000000+87812500000+88437500000+89062500000+90000000000
1600+90937500000+91875000000+91875000000+91875000000+90937500000+90312500000
1568+90312500000+90312500000+90312500000+89687500000+88437500000+87500000000
1537+86875000000+85312500000+84687500000+84687500000+85312500000+87500000000
1505+89375000000+89062500000+87812500000+86250000000+85625000000+85625000000
1474+87187500000+88750000000+89687500000+91250000000+92187500000+93125000000
1442+93750000000+94062500000+94375000000+94687500000+94687500000+94687500000
1411+94687500000+94687500000+94687500000+94375000000+93750000000+91875000000
1379+90625000000+90937500000+92187500000+92187500000+92500000000+92812500000
1347+93125000000+93437500000+93437500000+93125000000+92812500000+92187500000
1316+90937500000+89687500000+89062500000+89375000000+90625000000+90937500000
1284+91875000000+91562500000+91562500000+90937500000+90625000000+90312500000
1253+87187500000+84062500000+82187500000+82187500000+84062500000+86250000000
1221+88125000000+88750000000+89687500000+90625000000+91250000000+91562500000
1189+91562500000+91562500000+91250000000+91250000000+91562500000+91562500000
1158+91875000000+91875000000+91875000000+91562500000+91562500000+91562500000
1126+91562500000+91562500000+91875000000+91875000000+91875000000+91562500000
1095+91562500000+91562500000+91250000000+91250000000+91250000000+91250000000
1063+91250000000+91250000000+91250000000+91562500000+91562500000+91562500000
1032+91875000000+91875000000+91875000000+91875000000+91875000000+91875000000
1000+91875000000+92187500000+92187500000+92500000000+92500000000+92812500000
968+92812500000+93125000000+92812500000+92500000000+91875000000+90937500000
937+89375000000+85312500000+80937500000+80937500000+84375000000+87500000000
905+87187500000+87500000000+89062500000+90625000000+90937500000+90625000000
874+89687500000+88750000000+87187500000+85000000000+83125000000+80312500000
842+80312500000+84687500000+87500000000+89062500000+90625000000+91875000000
811+92500000000+92500000000+92812500000+93125000000+93125000000+93125000000
779+92812500000+92812500000+92500000000+92500000000+92500000000+92500000000
747+92500000000+92500000000+92500000000+92500000000+92500000000+92500000000
716+92500000000+92812500000+92812500000+92812500000+92812500000+92812500000
684+92812500000+92500000000+92187500000+92187500000+91875000000+91562500000
653+91562500000+91562500000+91562500000+91562500000+91562500000+91562500000
621+91562500000+91875000000+91875000000+92187500000+92187500000+92500000000
589+92500000000+92500000000+92500000000+92187500000+91875000000+91875000000
558+91562500000+91250000000+90937500000+90937500000+90625000000+90312500000
526+90000000000+89687500000+89687500000+89687500000+89687500000+89687500000
495+89375000000+89375000000+89375000000+89062500000+88750000000+88437500000
463+88437500000+88125000000+87812500000+87500000000+87187500000+86250000000
432+85000000000+83437500000+82187500000+80312500000+78437500000+77500000000
400+76875000000
##END=
