##TITLE=3,4-dimethoxyphenethylamine
##JCAMP-DX=4.24
##DATA TYPE=INFRARED SPECTRUM
##DATE=10/06/2025
##SAMPLING PROCEDURE=ATR
##ORIGIN=SDBS
##XUNITS=1/CM
##YUNITS=TRANSMITTANCE
##RESOLUTION=5.2631578947368425
##FIRSTX=4000.0
##LASTX=400.0
##DELTAX=-5.2631578947368425
##MAXY=94.6875
##MINY=0.0
##XFACTOR=1
##YFACTOR=1
##NPOINTS=685
##FIRSTY=0.0
##XYDATA=(X++(Y..Y))
4000+0+84687500000+84687500000+84687500000+84687500000+85000000000
3968+85312500000+85625000000+86250000000+86562500000+86875000000+87187500000
3937+87500000000+87812500000+87500000000+87187500000+86875000000+86562500000
3905+86562500000+86875000000+87187500000+87812500000+88437500000+88437500000
3874+88125000000+88125000000+88125000000+88437500000+88750000000+89062500000
3842+89062500000+89062500000+89062500000+89062500000+89062500000+89375000000
3811+89375000000+89375000000+89375000000+89375000000+89375000000+89062500000
3779+88750000000+88437500000+88125000000+87812500000+87500000000+86875000000
3747+86562500000+85937500000+85312500000+84687500000+84375000000+84375000000
3716+84375000000+85000000000+85625000000+85937500000+86562500000+86562500000
3684+86562500000+86250000000+85937500000+85625000000+85312500000+84687500000
3653+83750000000+83125000000+82500000000+81875000000+80937500000+80312500000
3621+79375000000+78125000000+77187500000+76250000000+75312500000+73437500000
3589+70625000000+66875000000+60000000000+50312500000+43750000000+43125000000
3558+43437499999+48437500000+55000000000+60000000000+62500000000+60312500000
3526+57812500000+56562500000+56562500000+56562500000+56875000000+57500000000
3495+58437500000+59375000000+60625000000+62187500000+63125000000+64375000000
3463+65000000000+65625000000+65937500000+65937500000+66250000000+66250000000
3432+66250000000+66875000000+67812500000+69375000000+70625000000+71875000000
3400+72500000000+72812500000+73437500000+73750000000+73750000000+73437500000
3368+71875000000+68125000000+63750000000+61250000000+58437500000+58125000000
3337+57812500000+57187500000+55937500000+51562500000+41562500000+33437500000
3305+30625000000+30937500000+36875000000+36250000000+27812500000+21562500000
3274+18125000000+16250000000+13437500000+13437500000+15000000000+16562500000
3242+17812500000+19375000000+24062500000+30000000000+34687500000+30000000000
3211+27812500000+26875000000+24062500000+19375000000+19062500000+22500000000
3179+39375000000+54062500000+63750000000+68437500000+71875000000+75000000000
3147+75937500000+76250000000+75312500000+73750000000+73750000000+74062500000
3116+75937500000+78750000000+80000000000+80625000000+80937500000+80937500000
3084+80937500000+81250000000+81562500000+81875000000+82187500000+82500000000
3053+82812500000+82812500000+82187500000+80937500000+78750000000+77812500000
3021+77812500000+79062500000+80312500000+81250000000+82500000000+83437500000
2989+84687500000+85000000000+85000000000+85000000000+85312500000+86562500000
2958+87500000000+87500000000+87500000000+87500000000+87500000000+87500000000
2926+87812500000+88125000000+88750000000+89687500000+90312500000+90625000000
2895+90937500000+91250000000+91250000000+91250000000+91250000000+91250000000
2863+91562500000+91562500000+91562500000+91875000000+91875000000+91875000000
2832+92187500000+92187500000+91875000000+90312500000+87500000000+86250000000
2800+86875000000+89375000000+90625000000+91562500000+92187500000+92812500000
2768+92500000000+92187500000+91562500000+90937500000+90625000000+90312500000
2737+90312500000+90937500000+91875000000+92812500000+93437500000+94062500000
2705+94687500000+94687500000+94375000000+93750000000+93125000000+92500000000
2674+91250000000+89062500000+86562500000+84375000000+84375000000+84375000000
2642+85000000000+85625000000+85312500000+85312500000+86250000000+86250000000
2611+85625000000+85937500000+86562500000+88125000000+89687500000+90312500000
2579+90937500000+91250000000+91562500000+91875000000+91875000000+92187500000
2547+92812500000+93125000000+93437500000+93750000000+93750000000+93437500000
2516+92812500000+92187500000+91875000000+91875000000+91562500000+91562500000
2484+91250000000+91250000000+91250000000+91250000000+91250000000+91250000000
2453+91250000000+91250000000+91250000000+91250000000+91250000000+90937500000
2421+90625000000+90312500000+90000000000+89687500000+89375000000+89375000000
2389+89375000000+89375000000+90000000000+90625000000+91250000000+92187500000
2358+93125000000+94062500000+94375000000+94687500000+94687500000+94375000000
2326+94062500000+93750000000+93750000000+93437500000+93437500000+93437500000
2295+93125000000+93125000000+92812500000+92500000000+92187500000+91562500000
2263+91250000000+90312500000+89687500000+89062500000+88125000000+87500000000
2232+87500000000+87187500000+87187500000+86562500000+86250000000+85312500000
2200+84687500000+84375000000+83750000000+82812500000+82187500000+81562500000
2168+81250000000+80937500000+80000000000+78750000000+77500000000+75937500000
2137+73750000000+71875000000+70312500000+68125000000+66562500000+64687500000
2105+63750000000+62187500000+60000000000+56562500000+52500000000+43750000000
2074+33125000000+28437500000+28437500000+31875000000+27812500000+17812500000
2042+16875000000+19375000000+29375000000+37187499999+43437499999+48437500000
2011+52500000000+55312500000+57187500000+57812500000+57500000000+55312500000
1979+52500000000+48124999999+41874999999+33437500000+23750000000+12812500000
1947+5937500000+4687500000+4687500000+6250000000+9375000000+14687500000
1916+22812500000+30000000000+36562500000+40000000000+39062500000+33437500000
1884+24062500000+17187500000+12500000000+11875000000+12812500000+15000000000
1853+15000000000+15312500000+18125000000+18750000000+20625000000+29375000000
1821+39687500000+38125000000+25000000000+18437500000+18437500000+26562500000
1789+40312499999+54687500000+63750000000+67187500000+65312500000+61562500000
1758+59062500000+59062500000+60312500000+63125000000+65000000000+62812500000
1726+59062500000+54062500000+50625000000+49062500000+45625000000+40625000000
1695+37500000000+36875000000+36875000000+37500000000+39687500000+41562500000
1663+42500000000+42812500000+42187500000+40937500000+38749999999+35000000000
1632+31250000000+27812500000+23125000000+19062500000+15000000000+11875000000
1600+8750000000+6562500000+5937500000+5937500000+6875000000+9687500000
1568+13125000000+9687500000+6875000000+6562500000+6562500000+9062500000
1537+13437500000+19687500000+28125000000+36875000000+43750000000+50312500000
1505+53437500000+46875000000+37500000000+36250000000+38125000000+41562500000
1474+45937500000+50937500000+44687500000+33750000000+17812500000+10312500000
1442+9687500000+10312500000+12187500000+10000000000+9687500000+10000000000
1411+15312500000+20937500000+25000000000+30937500000+40000000000+50937500000
1379+60312500000+65312500000+69062500000+70937500000+69375000000+65937500000
1347+61875000000+57187500000+52500000000+49687499999+49375000000+50312500000
1316+55625000000+60625000000+61250000000+53125000000+40937500000+26250000000
1284+19062500000+14375000000+9687500000+7500000000+7500000000+9375000000
1253+14375000000+21250000000+27187500000+31875000000+38125000000+43437499999
1221+50625000000+57500000000+63750000000+68437500000+71562500000+72500000000
1189+72500000000+71875000000+70312500000+67187500000+64062500000+62812500000
1158+62500000000+60000000000+57187500000+55312500000+54687500000+54062500000
1126+53125000000+51875000000+50937500000+49687499999+48750000000+47187500000
1095+45625000000+44062500000+42500000000+40937500000+40000000000+38749999999
1063+37500000000+35312500000+33125000000+32187500000+32187500000+31875000000
1032+29375000000+26562500000+24375000000+23750000000+24062500000+24375000000
1000+25312500000+26250000000+25937500000+25000000000+23750000000+20625000000
968+17812500000+16250000000+15937500000+16250000000+18750000000+24687500000
937+32187500000+40312499999+45312500000+47187500000+45937500000+39687500000
905+26250000000+20000000000+20000000000+28125000000+43125000000+52812500000
874+56250000000+50625000000+49375000000+51875000000+59375000000+66250000000
842+68750000000+74375000000+79375000000+82500000000+83750000000+81562500000
811+77500000000+76250000000+77187500000+83750000000+87500000000+90000000000
779+91250000000+91875000000+92187500000+92187500000+90937500000+89375000000
747+86562500000+82187500000+75000000000+66250000000+59062500000+55625000000
716+53437500000+53750000000+61250000000+71875000000+79687500000+84062500000
684+84375000000+81875000000+73750000000+71875000000+72187500000+76875000000
653+81875000000+84375000000+83750000000+80625000000+73437500000+66875000000
621+65625000000+67187500000+74687500000+77187500000+75312500000+75312500000
589+76875000000+83125000000+88437500000+92187500000+93750000000+94375000000
558+94687500000+94062500000+93125000000+92500000000+92187500000+91562500000
526+90937500000+90312500000+89062500000+87812500000+86875000000+85625000000
495+85000000000+84375000000+83750000000+83125000000+82500000000+81562500000
463+81250000000+80625000000+80625000000+80625000000+81250000000+81875000000
432+82812500000+82187500000+80625000000+78437500000+75937500000+74375000000
400+73437500000
##END=
