##TITLE=3,4-dimethylpyridine
##JCAMP-DX=4.24
##DATA TYPE=INFRARED SPECTRUM
##DATE=10/06/2025
##SAMPLING PROCEDURE=ATR
##ORIGIN=SDBS
##XUNITS=1/CM
##YUNITS=TRANSMITTANCE
##RESOLUTION=5.2631578947368425
##FIRSTX=4000.0
##LASTX=400.0
##DELTAX=-5.2631578947368425
##MAXY=94.6875
##MINY=0.0
##XFACTOR=1
##YFACTOR=1
##NPOINTS=685
##FIRSTY=0.0
##XYDATA=(X++(Y..Y))
4000+0+83125000000+83125000000+82812500000+82812500000+82812500000
3968+82812500000+82812500000+82812500000+82812500000+83125000000+83125000000
3937+82812500000+82812500000+82812500000+82812500000+82812500000+82812500000
3905+82812500000+82812500000+83125000000+83437500000+83750000000+84062500000
3874+84375000000+84375000000+84687500000+84687500000+84687500000+84687500000
3842+84375000000+84375000000+84375000000+84375000000+84687500000+84687500000
3811+85000000000+85000000000+85000000000+85000000000+85000000000+84375000000
3779+83750000000+83437500000+83437500000+83125000000+83125000000+83125000000
3747+82812500000+82500000000+81875000000+81250000000+80937500000+80312500000
3716+79687500000+79062500000+78437500000+77812500000+77187500000+76562500000
3684+75937500000+75312500000+74687500000+74062500000+73125000000+72187500000
3653+70937500000+70000000000+69062500000+68437500000+68125000000+67812500000
3621+67500000000+67187500000+67187500000+67187500000+67187500000+67187500000
3589+67187500000+67187500000+67187500000+67500000000+67812500000+68437500000
3558+68750000000+69687500000+70312500000+70937500000+71250000000+71562500000
3526+71875000000+72187500000+72187500000+72500000000+72500000000+72500000000
3495+72812500000+73125000000+73750000000+74062500000+74062500000+74375000000
3463+74687500000+74687500000+74687500000+75000000000+75312500000+75937500000
3432+76250000000+76562500000+76875000000+76875000000+76875000000+76562500000
3400+76250000000+75937500000+75625000000+74687500000+72187500000+69062500000
3368+68125000000+67812500000+63437500000+55000000000+47187500000+46250000000
3337+47500000000+43437499999+33750000000+30625000000+32812500000+32500000000
3305+37187499999+32187500000+25000000000+23750000000+22812500000+26562500000
3274+26875000000+25000000000+25937500000+29687500000+24687500000+25000000000
3242+36250000000+45625000000+50312500000+47812500000+46875000000+46875000000
3211+48750000000+51562500000+57187500000+66562500000+73125000000+76250000000
3179+78750000000+80625000000+82500000000+83750000000+84375000000+85000000000
3147+85000000000+85312500000+85625000000+83750000000+81250000000+80937500000
3116+82187500000+85937500000+87187500000+87812500000+88125000000+88437500000
3084+88437500000+88750000000+88750000000+89062500000+89062500000+89062500000
3053+88437500000+88437500000+88437500000+88437500000+89062500000+89687500000
3021+90000000000+90000000000+90000000000+90000000000+90000000000+90000000000
2989+90312500000+90312500000+90625000000+90937500000+90937500000+90312500000
2958+89687500000+87500000000+83750000000+83437500000+84687500000+86562500000
2926+88437500000+89375000000+89375000000+89687500000+89687500000+89687500000
2895+89687500000+90000000000+90000000000+90000000000+90000000000+90000000000
2863+90000000000+90312500000+90312500000+90312500000+90312500000+90625000000
2832+90625000000+90625000000+91250000000+91875000000+92187500000+92500000000
2800+92500000000+92500000000+92187500000+91875000000+91562500000+90937500000
2768+90625000000+90625000000+90937500000+91562500000+91875000000+92500000000
2737+92812500000+93125000000+93125000000+92812500000+92812500000+92812500000
2705+92812500000+93125000000+93750000000+94062500000+94062500000+94062500000
2674+93750000000+93750000000+93750000000+94062500000+94062500000+94375000000
2642+94687500000+94687500000+94687500000+94687500000+94375000000+94062500000
2611+93750000000+93750000000+93437500000+93437500000+93437500000+93437500000
2579+93437500000+93437500000+93437500000+93437500000+93125000000+92500000000
2547+91562500000+90937500000+90000000000+89375000000+88750000000+88437500000
2516+88437500000+88437500000+88437500000+88750000000+89375000000+90312500000
2484+91250000000+91875000000+91875000000+91562500000+91562500000+91250000000
2453+90937500000+90937500000+91250000000+91875000000+92500000000+93125000000
2421+93750000000+93750000000+93437500000+93125000000+93125000000+92812500000
2389+92812500000+92812500000+93125000000+93125000000+93437500000+93750000000
2358+94062500000+94375000000+94375000000+94062500000+93750000000+93437500000
2326+93125000000+92812500000+92500000000+92500000000+92187500000+92187500000
2295+92187500000+92187500000+91562500000+90937500000+89687500000+87187500000
2263+83750000000+80312500000+79062500000+79062500000+80625000000+83750000000
2232+86875000000+89062500000+90000000000+90312500000+90625000000+90625000000
2200+90312500000+90000000000+89687500000+89062500000+87812500000+86562500000
2168+85000000000+84062500000+83750000000+83750000000+83750000000+83750000000
2137+82500000000+80000000000+77812500000+74062500000+72187500000+71562500000
2105+71875000000+72812500000+75000000000+76250000000+75000000000+71250000000
2074+61250000000+41562500000+22187500000+8125000000+4687500000+6562500000
2042+13750000000+21562500000+44062500000+57187500000+60625000000+61250000000
2011+53125000000+46875000000+47812500000+54375000000+64062500000+70937500000
1979+75625000000+78125000000+80625000000+82500000000+83125000000+83125000000
1947+82500000000+81562500000+79687500000+75937500000+69062500000+56562500000
1916+32187500000+19687500000+21562500000+33750000000+50000000000+60312500000
1884+60312500000+55000000000+49375000000+39687500000+26875000000+18437500000
1853+13750000000+11562500000+11562500000+14687500000+21250000000+33125000000
1821+44999999999+52500000000+56562500000+57500000000+49062500000+29375000000
1789+10937500000+10937500000+35625000000+54062500000+44375000000+24375000000
1758+22812500000+36250000000+53437500000+58437500000+72187500000+78437500000
1726+81250000000+83437500000+84375000000+85000000000+85312500000+86250000000
1695+87500000000+88437500000+89062500000+89062500000+89062500000+88437500000
1663+86875000000+80625000000+64375000000+63750000000+80312500000+87812500000
1632+90312500000+90937500000+91250000000+91562500000+91250000000+91250000000
1600+90625000000+90000000000+89375000000+88750000000+87812500000+86562500000
1568+84062500000+80000000000+79687500000+75625000000+75625000000+78437500000
1537+81875000000+85000000000+86875000000+86562500000+85000000000+81250000000
1505+67500000000+32500000000+15312500000+25000000000+65000000000+76250000000
1474+75000000000+74062500000+76250000000+82812500000+85000000000+86562500000
1442+86562500000+84375000000+84062500000+84687500000+86875000000+88750000000
1411+90000000000+90625000000+91250000000+91562500000+91562500000+91250000000
1379+91250000000+90937500000+90625000000+90312500000+90000000000+89375000000
1347+88437500000+85625000000+82187500000+70625000000+40000000000+31562500000
1316+45625000000+71250000000+80000000000+75625000000+73125000000+73125000000
1284+75625000000+77812500000+73125000000+61562500000+44375000000+40000000000
1253+42500000000+57187500000+68125000000+65000000000+59062500000+59062500000
1221+65312500000+74375000000+75625000000+75312500000+78125000000+83437500000
1189+86250000000+87500000000+88125000000+89062500000+90000000000+90625000000
1158+91250000000+91875000000+91875000000+91250000000+90937500000+90312500000
1126+90000000000+90000000000+90000000000+90312500000+90937500000+91562500000
1095+92187500000+92812500000+93125000000+93437500000+93750000000+94062500000
1063+94375000000+94062500000+93750000000+92812500000+91875000000+90312500000
1032+88125000000+85312500000+80625000000+67187500000+44375000000+11562500000
1000+11562500000+33125000000+22500000000+14375000000+13437500000+14687500000
968+28750000000+55000000000+71250000000+81250000000+86875000000+89687500000
937+91250000000+91875000000+92500000000+93125000000+93437500000+93750000000
905+94062500000+94062500000+93437500000+89687500000+76562500000+76562500000
874+87187500000+91250000000+90000000000+86562500000+61250000000+13125000000
842+17812500000+70625000000+88437500000+92500000000+93750000000+94375000000
811+94687500000+94687500000+94687500000+94687500000+94687500000+94687500000
779+94375000000+94375000000+94062500000+94062500000+93750000000+93437500000
747+93125000000+93125000000+92812500000+92812500000+92812500000+92812500000
716+92500000000+92500000000+92187500000+91875000000+91250000000+90937500000
684+88750000000+78437500000+54062500000+56875000000+83750000000+90000000000
653+91562500000+92187500000+92187500000+92500000000+91875000000+91875000000
621+91250000000+90625000000+90000000000+89375000000+88437500000+87187500000
589+85625000000+83125000000+75312500000+47500000000+17187500000+19062500000
558+56250000000+75000000000+46875000000+33750000000+56250000000+81250000000
526+86875000000+88750000000+89687500000+89062500000+88437500000+87187500000
495+86250000000+85312500000+84375000000+83125000000+81562500000+79687500000
463+77812500000+75000000000+72187500000+69375000000+66875000000+64375000000
432+61875000000+59375000000+57500000000+55312500000+53750000000+52500000000
400+51875000000
##END=
