##TITLE=3,5,5-trimethyl-2-cyclohexen-1-one
##JCAMP-DX=4.24
##DATA TYPE=INFRARED SPECTRUM
##DATE=10/06/2025
##SAMPLING PROCEDURE=ATR
##ORIGIN=SDBS
##XUNITS=1/CM
##YUNITS=TRANSMITTANCE
##RESOLUTION=5.2631578947368425
##FIRSTX=4000.0
##LASTX=400.0
##DELTAX=-5.2631578947368425
##MAXY=95.0
##MINY=0.0
##XFACTOR=1
##YFACTOR=1
##NPOINTS=685
##FIRSTY=0.0
##XYDATA=(X++(Y..Y))
4000+0+87187500000+87187500000+87500000000+87500000000+87500000000
3968+87500000000+87500000000+87500000000+87500000000+87500000000+87500000000
3937+87500000000+87500000000+87500000000+87812500000+87812500000+87812500000
3905+87812500000+87812500000+88125000000+88125000000+88125000000+88125000000
3874+88125000000+88125000000+88125000000+88437500000+88437500000+88437500000
3842+88750000000+88750000000+88750000000+89062500000+89062500000+89062500000
3811+89062500000+89062500000+89062500000+88750000000+88437500000+88437500000
3779+88125000000+88125000000+87812500000+87500000000+87187500000+86875000000
3747+86562500000+85937500000+85625000000+85312500000+85000000000+84687500000
3716+84687500000+84687500000+84375000000+84375000000+84375000000+84375000000
3684+84375000000+84062500000+84062500000+83750000000+83437500000+83437500000
3653+83437500000+83437500000+83750000000+83750000000+84062500000+84375000000
3621+84375000000+84687500000+85000000000+85312500000+85625000000+85937500000
3589+85937500000+86250000000+86250000000+86250000000+85937500000+85937500000
3558+85937500000+85625000000+85312500000+85000000000+84375000000+83750000000
3526+83750000000+83750000000+84062500000+84687500000+85312500000+85937500000
3495+86250000000+86562500000+86562500000+86875000000+86875000000+86875000000
3463+87187500000+87187500000+87187500000+86875000000+86875000000+86875000000
3432+86875000000+87187500000+87187500000+87187500000+87500000000+87500000000
3400+87500000000+87500000000+87500000000+87500000000+87500000000+87500000000
3368+87500000000+87187500000+86875000000+86562500000+86250000000+84375000000
3337+80937500000+78750000000+78750000000+81250000000+84062500000+83125000000
3305+79687500000+73437500000+62500000000+49375000000+34062500000+26875000000
3274+27187500000+34687500000+39687500000+42812500000+49062500000+52187500000
3242+50937500000+50937500000+51875000000+52812500000+50937500000+46562499999
3211+49062500000+63437500000+73750000000+78125000000+80625000000+76875000000
3179+76250000000+79062500000+82812500000+85937500000+87812500000+89062500000
3147+89687500000+90000000000+90000000000+89687500000+89375000000+89062500000
3116+89062500000+89375000000+90000000000+90312500000+90937500000+91250000000
3084+91562500000+91562500000+91562500000+91562500000+91562500000+91562500000
3053+91562500000+91875000000+91875000000+91875000000+91875000000+91875000000
3021+91875000000+91875000000+91875000000+91875000000+91875000000+91875000000
2989+92187500000+92187500000+92187500000+91875000000+91875000000+91875000000
2958+92187500000+92187500000+92500000000+92500000000+92500000000+92500000000
2926+92187500000+92187500000+92187500000+92500000000+92187500000+92187500000
2895+92187500000+92187500000+92187500000+92500000000+92500000000+92812500000
2863+92812500000+92812500000+92812500000+92812500000+92812500000+92812500000
2832+92812500000+92812500000+93125000000+93125000000+93125000000+93125000000
2800+93125000000+93125000000+93125000000+93125000000+93125000000+93437500000
2768+93437500000+93437500000+93750000000+93750000000+93750000000+93750000000
2737+93437500000+93437500000+93750000000+93750000000+93750000000+94062500000
2705+94062500000+94375000000+94375000000+94375000000+94375000000+94375000000
2674+94375000000+94375000000+94375000000+94375000000+94375000000+94375000000
2642+94687500000+94687500000+94687500000+94687500000+94687500000+94687500000
2611+94687500000+94687500000+94687500000+94687500000+94687500000+94687500000
2579+94687500000+94687500000+94687500000+94687500000+95000000000+95000000000
2547+95000000000+94687500000+94687500000+94687500000+94687500000+94687500000
2516+94687500000+95000000000+95000000000+95000000000+94687500000+94687500000
2484+94687500000+94687500000+94687500000+94687500000+94687500000+94687500000
2453+94687500000+94375000000+94375000000+94375000000+94375000000+94375000000
2421+94062500000+94062500000+94062500000+93750000000+93750000000+93750000000
2389+93750000000+93750000000+93750000000+93750000000+93437500000+93125000000
2358+92812500000+92812500000+92500000000+92187500000+92187500000+92500000000
2326+92500000000+92500000000+92187500000+91875000000+91250000000+90625000000
2295+90312500000+89687500000+89375000000+89375000000+89062500000+88125000000
2263+86562500000+85625000000+85312500000+85000000000+83437500000+79375000000
2232+73437500000+67187500000+64062500000+64062500000+65312500000+68125000000
2200+70625000000+68437500000+62812500000+51562500000+35625000000+22500000000
2168+15625000000+8750000000+5000000000+4687500000+5312500000+9062500000
2137+16875000000+23750000000+35312500000+46250000000+54062500000+42187500000
2105+35312500000+35625000000+48437500000+65312500000+74687500000+79062500000
2074+82500000000+84375000000+86250000000+86875000000+87500000000+88125000000
2042+88437500000+88750000000+89062500000+90000000000+90625000000+91250000000
2011+91562500000+91875000000+92187500000+92187500000+92500000000+92812500000
1979+93125000000+93125000000+93125000000+93125000000+93125000000+93125000000
1947+93125000000+93125000000+93125000000+93125000000+92812500000+92500000000
1916+91875000000+91250000000+90312500000+89062500000+87187500000+83125000000
1884+75000000000+67187500000+66250000000+67187500000+70000000000+68437500000
1853+65000000000+65000000000+62500000000+57812500000+56562500000+57187500000
1821+59375000000+63125000000+68437500000+71250000000+63437500000+62812500000
1789+67812500000+79687500000+83437500000+81562500000+72812500000+61250000000
1758+48124999999+35312500000+35312500000+57500000000+42187500000+43125000000
1726+53750000000+57187500000+74062500000+82812500000+85937500000+88125000000
1695+89062500000+87500000000+83750000000+80000000000+79375000000+76250000000
1663+75000000000+75937500000+78125000000+70000000000+55625000000+52187500000
1632+57812500000+72812500000+61875000000+48750000000+48124999999+59062500000
1600+75000000000+76250000000+73125000000+74687500000+70000000000+56250000000
1568+48437500000+48750000000+60000000000+75937500000+83125000000+85625000000
1537+87187500000+88125000000+89062500000+90312500000+91250000000+92187500000
1505+92500000000+92187500000+90000000000+85000000000+85000000000+87812500000
1474+87812500000+90937500000+91562500000+90625000000+89062500000+86250000000
1442+80937500000+72187500000+70312500000+75000000000+85937500000+89375000000
1411+84062500000+82187500000+82500000000+81562500000+82500000000+88125000000
1379+91562500000+92812500000+93437500000+94062500000+94375000000+94375000000
1347+94375000000+94375000000+94375000000+94375000000+94375000000+94375000000
1316+94375000000+94062500000+94062500000+93750000000+93437500000+93125000000
1284+92187500000+89687500000+87500000000+87500000000+86250000000+82812500000
1253+82812500000+85000000000+88437500000+88437500000+89375000000+89062500000
1221+88437500000+87812500000+87812500000+90000000000+92500000000+93437500000
1189+93750000000+94062500000+94062500000+93437500000+93125000000+92812500000
1158+92812500000+92812500000+92812500000+93125000000+93125000000+93125000000
1126+92812500000+91562500000+88437500000+84687500000+83437500000+76875000000
1095+64062500000+59062500000+61875000000+80312500000+89062500000+90625000000
1063+87500000000+86875000000+89687500000+90937500000+88125000000+79062500000
1032+75937500000+78125000000+86875000000+90937500000+92812500000+93125000000
1000+92500000000+90625000000+86875000000+80625000000+75625000000+75312500000
968+81875000000+90312500000+92812500000+93125000000+93125000000+93750000000
937+94062500000+94375000000+94375000000+94687500000+94687500000+94687500000
905+94687500000+95000000000+95000000000+95000000000+94687500000+94687500000
874+94687500000+94687500000+94687500000+94687500000+94687500000+94687500000
842+94687500000+94687500000+94687500000+94687500000+94687500000+94687500000
811+94687500000+94687500000+94687500000+94687500000+94687500000+94687500000
779+94687500000+94687500000+94687500000+94687500000+94687500000+94687500000
747+94375000000+94375000000+94375000000+94375000000+94375000000+94375000000
716+94062500000+93750000000+93750000000+93437500000+93437500000+93437500000
684+93437500000+93437500000+93437500000+93750000000+93750000000+94062500000
653+94062500000+94062500000+93437500000+93125000000+92187500000+91875000000
621+91875000000+91562500000+91875000000+91875000000+92187500000+91875000000
589+91250000000+90000000000+85937500000+73437500000+59062500000+65312500000
558+84687500000+89375000000+89687500000+88750000000+88437500000+88437500000
526+88125000000+88125000000+87812500000+87187500000+86875000000+86250000000
495+86250000000+86250000000+86250000000+85937500000+84687500000+82500000000
463+80000000000+76875000000+73125000000+70000000000+67500000000+65312500000
432+64062500000+63750000000+63750000000+63750000000+64375000000+65312500000
400+65937500000
##END=
