##TITLE=3,5-diphenyl-2-isoxazoline
##JCAMP-DX=4.24
##DATA TYPE=INFRARED SPECTRUM
##DATE=04/06/2025
##SAMPLING PROCEDURE=ATR
##ORIGIN=SDBS
##XUNITS=1/CM
##YUNITS=TRANSMITTANCE
##RESOLUTION=6.010016694490818
##FIRSTX=4000.0
##LASTX=400.0
##DELTAX=-6.010016694490818
##MAXY=0.9988047868365776
##MINY=0.0002666074521131545
##XFACTOR=1
##YFACTOR=1
##NPOINTS=600
##FIRSTY=0.8757908221787952
##XYDATA=(X++(Y..Y))
4000+875790822+379544721+261500924+3690621+801780872+126424611
3964+687288649+514167320+95080628+579022237+651591187+573321233
3928+477653662+998804786+445254940+859104616+616610800+552654529
3892+174792737+605096938+395565079+342008254+215560081+625583821
3856+102417958+587554247+571853274+895781146+192025842+53226934
3820+152420520+31479438+599947185+839912338+659642248+310499645
3784+326790489+219427792+95846124+881577284+180408244+49755220
3748+248634512+476142967+312140766+106904842+563227935+587325040
3712+563116199+274898985+837154103+330182846+129448869+886664879
3675+539814017+712981137+4266950+86456523+514176032+621337374
3639+341458104+843613101+138711287+942432675+616626590+810528896
3603+827591224+932242215+612214173+316363697+819995174+966190360
3567+445958562+23829246+334709281+671704666+622366248+656527014
3531+261603603+576144500+437026299+623038594+155194349+464083444
3495+221828621+431320521+604050300+337883710+206003014+346097659
3459+651276499+62372068+849967493+613457663+107830162+844147500
3423+261425610+944754046+191243017+121493150+718334538+350610375
3387+67742394+896437114+899936164+776599211+124013006+236931558
3351+456032920+218329105+259064687+240930352+322143883+778515269
3315+853591504+8896772+711916614+613532390+911115557+888433403
3279+920648572+610775945+29359762+86226563+242009204+888319616
3243+470746551+212591269+627031774+135790710+875401640+513402160
3207+869158126+902756556+211109965+626195338+392943914+812167375
3171+543246246+83029980+305250297+692407077+974586676+48351073
3135+315890477+483093187+16530320+108693341+395305780+447640437
3098+799330849+607546991+155392040+596605115+545290114+931857195
3062+950938917+246561050+935087110+924768401+436900199+290065210
3026+439959860+807701697+324399043+502217640+377456038+258080881
2990+408520488+399108283+193946551+112528416+690429943+685213206
2954+374943824+922997766+359541925+162337568+340915536+34358700
2918+130760869+575250523+735137782+684270740+3659826+757778369
2882+658597059+489918115+458056275+538334864+465246721+428487673
2846+473588051+331393836+839761342+282238222+472515874+171440444
2810+478067689+661691325+339529192+982774299+679042161+709827299
2774+893152794+323580955+642213762+921060603+426931776+232506377
2738+674255340+243425683+874299193+953795680+638255587+197737317
2702+884746968+792723050+54775666+423910561+184804082+276719734
2666+134808707+297094669+764030546+590126453+551761730+311411224
2630+736645267+113424333+769706754+378381118+866167137+770840709
2594+212721738+841681886+563583579+818592532+508451902+264254456
2558+702341870+598649103+284612087+807050125+207032411+921333288
2522+594185349+244537601+295358496+730721654+286859176+525980011
2485+132914698+994200878+461105332+755234289+483295273+570239870
2449+527491602+215372386+788866606+491505751+481099034+754654531
2413+276490137+557849658+703706127+274935145+720061426+543180123
2377+121654969+115779015+790247959+205853763+485843248+904716219
2341+665851730+939335821+763005213+398803742+46310756+36084118
2305+154213977+213291897+826913721+985011344+734887301+857845865
2269+400444329+173999272+436337734+323794161+539679757+198707780
2233+544674076+176256716+717577136+57349452+687852599+280014214
2197+788097937+809223996+69407646+457343290+698896276+955886475
2161+117704058+820370401+390585223+242728622+463158261+383270818
2125+478961752+443806240+324464606+416463802+741234987+157142193
2089+339600733+42025114+137321690+214976309+433160377+862572630
2053+822371457+548563709+886325223+512165665+246369655+51108614
2017+259467735+293093391+397592016+6564286+250467722+892724437
1981+390884172+790201083+742759308+773982548+70515120+660662010
1945+975186153+812137761+508031534+946067768+869729743+108057749
1909+263367781+195669794+506093682+136213795+397596664+607993031
1872+152271491+190086521+639811126+232119073+22509224+50569660
1836+528514259+742626498+879825508+43974085+841688520+222719547
1800+877401048+242204489+780531767+225145428+528602668+785928419
1764+142044321+285505962+482267369+179343551+854849287+71189140
1728+573558458+939512284+28169627+43901007+64936558+689494494
1692+477728386+749889554+641838313+551710061+250329643+635143377
1656+54106100+576550781+679590438+28210882+449575477+980899205
1620+438325858+125611789+913803154+980996710+219247458+92172487
1584+107476184+213327904+63504435+331263243+327601794+394573325
1548+410483774+652750251+755492739+540749024+855376103+412925722
1512+949390037+333881477+66192497+414384198+295263461+544658067
1476+93692399+153593536+333891373+982382250+64727855+486498614
1440+777885410+744775930+843929042+266607+827158007+314394669
1404+991178322+95822365+745830201+716773660+167624221+730212083
1368+320962068+532077526+609154799+214776297+679897231+92359796
1332+643202304+798888396+409005441+283587849+477847356+32288667
1295+936484475+243567778+995888146+970056582+302833697+245558400
1259+768150504+128216973+825890290+633938546+113540855+65883322
1223+706261863+464101132+938250413+612740291+247021458+539729696
1187+691089178+907426734+260225078+332009045+356132311+467099927
1151+808980591+179632212+768772578+86249187+563938877+762056265
1115+420888728+307864046+395349003+984192161+821555133+218377828
1079+376143648+714942364+23376344+305768004+775702512+814835272
1043+294168061+298212984+34481160+374336113+360763570+775548190
1007+475022301+522176785+647997936+740093763+968728911+792611301
971+996589219+294671058+382367132+125298462+953832853+172403470
935+321317299+230857997+477909756+798104249+300010046+501346542
899+220726470+110956852+196549296+873850260+380650312+900306750
863+45202076+838703136+773928725+756474182+76630644+249983549
827+596247759+781903077+96899474+653729600+645214101+754477764
791+589519138+160732579+526135624+550738889+449745880+969181827
755+859951350+345896785+961210315+777212733+131410159+343729685
719+811328181+916772579+396845618+320946287+83798785+526942999
682+101166801+849869466+489322059+45061788+220029818+195116945
646+155607332+9364439+853112301+819410732+15250106+416915256
610+211914449+288578606+666793060+590141717+735277226+906693510
574+806984566+388196055+764844866+328890742+252693564+605387726
538+579357846+331093468+993992175+875669007+832970574+620088375
502+394439138+736950192+806959186+19215863+825918694+701304286
466+330239725+540655965+167467907+63575663+559955710+856381252
430+335206566+857781483+267037128+538972197+380279628+940065173
##END=
