##TITLE=3,5-dimethyloctane
##JCAMP-DX=4.24
##DATA TYPE=INFRARED SPECTRUM
##DATE=10/06/2025
##SAMPLING PROCEDURE=ATR
##ORIGIN=SDBS
##XUNITS=1/CM
##YUNITS=TRANSMITTANCE
##RESOLUTION=5.2631578947368425
##FIRSTX=4000.0
##LASTX=400.0
##DELTAX=-5.2631578947368425
##MAXY=95.0
##MINY=0.0
##XFACTOR=1
##YFACTOR=1
##NPOINTS=685
##FIRSTY=0.0
##XYDATA=(X++(Y..Y))
4000+0+93437500000+93125000000+93125000000+92812500000+92812500000
3968+93125000000+93125000000+93437500000+93437500000+93125000000+92812500000
3937+92812500000+92812500000+92812500000+92812500000+92812500000+92812500000
3905+92812500000+92500000000+92500000000+92187500000+92187500000+92187500000
3874+92187500000+92500000000+92500000000+92812500000+92812500000+92812500000
3842+92500000000+92500000000+92187500000+92187500000+92187500000+92187500000
3811+92500000000+92500000000+92187500000+92187500000+92187500000+92187500000
3779+92187500000+92187500000+92500000000+92500000000+92500000000+92500000000
3747+92500000000+92500000000+92500000000+92500000000+92500000000+92500000000
3716+92500000000+92500000000+92812500000+92500000000+92500000000+92500000000
3684+92500000000+92187500000+92187500000+92187500000+92187500000+91875000000
3653+91875000000+91875000000+91562500000+91562500000+91562500000+91562500000
3621+91250000000+90937500000+90625000000+90625000000+90312500000+90312500000
3589+90312500000+90000000000+89687500000+89687500000+89687500000+89375000000
3558+89375000000+89062500000+89062500000+89062500000+88750000000+88750000000
3526+88750000000+88437500000+88437500000+88125000000+87812500000+87812500000
3495+87500000000+87500000000+87187500000+87187500000+87187500000+87187500000
3463+86875000000+86562500000+86250000000+86250000000+85937500000+85625000000
3432+85625000000+85625000000+85625000000+85937500000+86562500000+86875000000
3400+87500000000+88125000000+88437500000+88750000000+89062500000+89375000000
3368+89375000000+89375000000+88750000000+88125000000+87500000000+86562500000
3337+85937500000+85000000000+83750000000+81875000000+79062500000+75312500000
3305+69062500000+58125000000+39687500000+18125000000+5937500000+4687500000
3274+4687500000+8125000000+11250000000+8437500000+8437500000+8437500000
3242+8437500000+9687500000+12812500000+17187500000+12812500000+12500000000
3211+19687500000+27187500000+28125000000+28750000000+45312500000+60625000000
3179+69687500000+74062500000+78437500000+80937500000+83125000000+85625000000
3147+86875000000+88125000000+88437500000+89062500000+87500000000+84687500000
3116+84375000000+85312500000+87187500000+88437500000+89375000000+89687500000
3084+89687500000+90000000000+90312500000+90312500000+90625000000+90625000000
3053+90625000000+90625000000+90625000000+90625000000+90625000000+90625000000
3021+90937500000+90937500000+91250000000+91562500000+92187500000+92812500000
2989+93437500000+93750000000+94062500000+94062500000+94062500000+94062500000
2958+94375000000+94375000000+94375000000+94375000000+94062500000+94062500000
2926+94062500000+94062500000+94062500000+93750000000+93750000000+93437500000
2895+93437500000+93437500000+93437500000+93437500000+93437500000+93750000000
2863+93750000000+93750000000+93750000000+93750000000+93750000000+93750000000
2832+93750000000+93750000000+94062500000+94062500000+94375000000+94375000000
2800+94375000000+94375000000+94375000000+94062500000+94062500000+94062500000
2768+94375000000+94375000000+94375000000+94375000000+94375000000+94375000000
2737+94375000000+94375000000+94375000000+94375000000+94375000000+94375000000
2705+94375000000+94375000000+94687500000+94687500000+94687500000+94687500000
2674+94687500000+94687500000+94687500000+94687500000+94687500000+94687500000
2642+94687500000+94687500000+94687500000+94687500000+94687500000+94687500000
2611+94687500000+94687500000+94687500000+94687500000+94687500000+94375000000
2579+94375000000+94375000000+94375000000+94375000000+94375000000+94687500000
2547+94687500000+94687500000+94687500000+94687500000+94687500000+95000000000
2516+94687500000+94687500000+94687500000+94687500000+94687500000+94687500000
2484+94687500000+94687500000+94375000000+94375000000+94375000000+94375000000
2453+94375000000+94375000000+94375000000+94375000000+94375000000+94375000000
2421+94375000000+94375000000+94375000000+94375000000+94375000000+94375000000
2389+94375000000+94375000000+94375000000+94375000000+94375000000+94375000000
2358+94375000000+94375000000+94375000000+94375000000+94375000000+94375000000
2326+94375000000+94375000000+94375000000+94375000000+94062500000+94062500000
2295+94062500000+94062500000+94062500000+94062500000+94062500000+94062500000
2263+94062500000+94062500000+94062500000+94062500000+94062500000+93750000000
2232+93750000000+93437500000+93437500000+93125000000+93125000000+93125000000
2200+92812500000+92812500000+92812500000+92812500000+92812500000+92812500000
2168+92812500000+92812500000+92812500000+92812500000+92812500000+92812500000
2137+92812500000+92812500000+92812500000+92500000000+92500000000+92500000000
2105+92500000000+92500000000+92500000000+92812500000+92812500000+92812500000
2074+93125000000+93125000000+92812500000+92812500000+92812500000+92812500000
2042+92812500000+92812500000+92812500000+92500000000+92500000000+92187500000
2011+92187500000+91875000000+91875000000+91562500000+91562500000+91250000000
1979+90937500000+90937500000+90625000000+90625000000+90625000000+90625000000
1947+90625000000+90312500000+90312500000+89375000000+88437500000+86562500000
1916+85312500000+84375000000+82812500000+79687500000+75625000000+68437500000
1884+56250000000+41250000000+27500000000+26250000000+26562500000+28437500000
1853+32187500000+42187500000+52812500000+61562500000+66250000000+72812500000
1821+78125000000+80937500000+82812500000+84062500000+85000000000+85312500000
1789+85312500000+84687500000+82812500000+80312500000+76562500000+67812500000
1758+44687500000+30625000000+30625000000+41562500000+61562500000+70312500000
1726+73750000000+76250000000+79375000000+80937500000+82812500000+84375000000
1695+85000000000+85937500000+86562500000+87187500000+88125000000+88750000000
1663+89062500000+89062500000+89062500000+89062500000+89062500000+89062500000
1632+89062500000+89062500000+89062500000+89062500000+89062500000+89375000000
1600+90312500000+90937500000+91562500000+91562500000+91562500000+91562500000
1568+91562500000+91562500000+91875000000+91875000000+92187500000+92187500000
1537+92500000000+92500000000+92812500000+93125000000+93125000000+93437500000
1505+93750000000+94062500000+94062500000+94062500000+93750000000+93437500000
1474+92812500000+91250000000+88437500000+86875000000+85312500000+84375000000
1442+82187500000+81250000000+80625000000+80937500000+84687500000+87187500000
1411+89375000000+91562500000+92812500000+93750000000+94062500000+94375000000
1379+94062500000+94062500000+93750000000+93437500000+93125000000+93125000000
1347+92812500000+92812500000+92500000000+92500000000+92500000000+92812500000
1316+92812500000+93125000000+93437500000+93437500000+93125000000+93125000000
1284+92812500000+92500000000+92187500000+91875000000+91250000000+90625000000
1253+90312500000+90000000000+90000000000+90312500000+90000000000+90312500000
1221+90312500000+89062500000+88750000000+87812500000+88750000000+89062500000
1189+87812500000+82500000000+80937500000+81562500000+81875000000+82500000000
1158+83437500000+86250000000+88750000000+90625000000+92187500000+92500000000
1126+92187500000+92187500000+91875000000+91562500000+91250000000+91250000000
1095+90937500000+90937500000+90937500000+90937500000+90937500000+90937500000
1063+90937500000+90937500000+90625000000+90312500000+90312500000+90312500000
1032+90312500000+90312500000+90937500000+90937500000+91562500000+91875000000
1000+92187500000+92500000000+92812500000+92812500000+92812500000+92812500000
968+92500000000+92500000000+92500000000+92500000000+92500000000+92500000000
937+92187500000+91875000000+91250000000+90000000000+87500000000+85625000000
905+85625000000+86562500000+88750000000+90625000000+90625000000+89375000000
874+86562500000+80937500000+79062500000+80937500000+86875000000+90312500000
842+91562500000+92500000000+93125000000+93437500000+93750000000+93750000000
811+93750000000+94062500000+94062500000+94375000000+94375000000+94062500000
779+94062500000+94062500000+93750000000+93750000000+93750000000+93750000000
747+93750000000+93750000000+93750000000+93750000000+93750000000+93750000000
716+94062500000+94062500000+94375000000+94375000000+94375000000+94375000000
684+94375000000+94375000000+94062500000+94062500000+93750000000+93437500000
653+93125000000+92812500000+92812500000+92812500000+92812500000+92812500000
621+92812500000+92812500000+93125000000+93437500000+93437500000+94062500000
589+94375000000+94687500000+94687500000+94687500000+94375000000+94062500000
558+93437500000+93125000000+92500000000+92187500000+91875000000+91562500000
526+91250000000+90937500000+90937500000+90937500000+90937500000+91250000000
495+91250000000+91562500000+91562500000+91250000000+90312500000+89062500000
463+87500000000+85625000000+83750000000+81875000000+80625000000+79375000000
432+77187500000+75000000000+73125000000+70937500000+68750000000+67812500000
400+67187500000
##END=
