##TITLE=3-bromomethyltricyclo[3.3.1.1[3,7]]decane-1-carboxylic acid
##JCAMP-DX=4.24
##DATA TYPE=INFRARED SPECTRUM
##DATE=10/06/2025
##SAMPLING PROCEDURE=ATR
##ORIGIN=SDBS
##XUNITS=1/CM
##YUNITS=TRANSMITTANCE
##RESOLUTION=5.2631578947368425
##FIRSTX=4000.0
##LASTX=400.0
##DELTAX=-5.2631578947368425
##MAXY=95.0
##MINY=0.0
##XFACTOR=1
##YFACTOR=1
##NPOINTS=685
##FIRSTY=0.0
##XYDATA=(X++(Y..Y))
4000+0+93437500000+93125000000+93125000000+92812500000+92812500000
3968+93125000000+93437500000+93437500000+93125000000+92812500000+92500000000
3937+92500000000+92500000000+92500000000+92500000000+92500000000+92500000000
3905+92187500000+92187500000+92187500000+92187500000+91875000000+91875000000
3874+91562500000+91562500000+91562500000+91562500000+91562500000+91875000000
3842+91875000000+91875000000+91875000000+91562500000+91562500000+91562500000
3811+91562500000+91562500000+91562500000+91562500000+91562500000+91250000000
3779+91250000000+91250000000+91562500000+91562500000+91562500000+91562500000
3747+91562500000+91562500000+91875000000+91875000000+91875000000+92187500000
3716+92187500000+92187500000+92187500000+92500000000+92500000000+92500000000
3684+92500000000+92187500000+91875000000+91875000000+91562500000+91562500000
3653+91562500000+91562500000+91562500000+91250000000+90937500000+90937500000
3621+90625000000+90625000000+90312500000+90000000000+89687500000+89375000000
3589+89375000000+89062500000+88750000000+88437500000+88125000000+87812500000
3558+87812500000+87812500000+87500000000+87187500000+87187500000+86875000000
3526+86562500000+86250000000+85937500000+85625000000+85000000000+84687500000
3495+84375000000+84375000000+84062500000+84062500000+83750000000+83750000000
3463+83750000000+83750000000+83750000000+83437500000+83437500000+83437500000
3432+83437500000+83437500000+83437500000+83750000000+84062500000+84062500000
3400+84375000000+84687500000+85000000000+85312500000+85312500000+85000000000
3368+84687500000+84375000000+83750000000+83437500000+83437500000+83125000000
3337+82500000000+81875000000+80625000000+79375000000+77812500000+75937500000
3305+72187500000+67187500000+58750000000+46562499999+29375000000+20312500000
3274+17500000000+17812500000+10937500000+5312500000+4687500000+5000000000
3242+10625000000+16250000000+22187500000+28750000000+31250000000+27187500000
3211+21250000000+15937500000+16562500000+32500000000+53750000000+65000000000
3179+70937500000+74062500000+76250000000+77812500000+79062500000+80625000000
3147+81875000000+82500000000+83125000000+83437500000+83437500000+83437500000
3116+83437500000+83125000000+83125000000+82812500000+82500000000+82187500000
3084+82187500000+82187500000+82187500000+82187500000+82187500000+81875000000
3053+81875000000+82187500000+82187500000+82500000000+82812500000+83125000000
3021+83437500000+83750000000+84062500000+84062500000+84062500000+84375000000
2989+84687500000+84687500000+85000000000+85312500000+85625000000+85937500000
2958+86562500000+87187500000+87500000000+88125000000+88437500000+88437500000
2926+89062500000+89375000000+89375000000+89687500000+89687500000+89687500000
2895+90000000000+90000000000+90312500000+90312500000+90312500000+90312500000
2863+90625000000+90625000000+90625000000+90625000000+90937500000+90937500000
2832+91250000000+91250000000+91250000000+91250000000+91562500000+91562500000
2800+91875000000+91875000000+91875000000+91875000000+92187500000+92187500000
2768+92187500000+92187500000+92500000000+92812500000+92812500000+92812500000
2737+92812500000+92812500000+92812500000+92812500000+93125000000+93125000000
2705+93125000000+93437500000+93437500000+93750000000+93750000000+93750000000
2674+93750000000+93750000000+93750000000+93750000000+93750000000+93750000000
2642+93750000000+93750000000+93437500000+93437500000+93437500000+93437500000
2611+93437500000+93437500000+93750000000+93750000000+93750000000+93750000000
2579+93750000000+93437500000+93437500000+93437500000+93437500000+93437500000
2547+93437500000+93437500000+93750000000+93750000000+93750000000+93437500000
2516+93437500000+93437500000+93125000000+93125000000+93125000000+93125000000
2484+93125000000+93125000000+93125000000+93437500000+93437500000+93437500000
2453+93437500000+93437500000+93437500000+93125000000+93125000000+92812500000
2421+92812500000+92812500000+92500000000+92500000000+92812500000+92812500000
2389+92812500000+93125000000+93437500000+93437500000+93437500000+93750000000
2358+93750000000+94062500000+94062500000+94062500000+94375000000+94375000000
2326+94375000000+94375000000+94375000000+94375000000+94375000000+94375000000
2295+94375000000+94375000000+94687500000+94687500000+94687500000+95000000000
2263+94687500000+94687500000+94375000000+94062500000+93750000000+93125000000
2232+92812500000+91562500000+90625000000+89687500000+88125000000+84375000000
2200+77812500000+65625000000+51875000000+44687500000+42500000000+42500000000
2168+47187500000+57187500000+66562500000+72500000000+77187500000+80937500000
2137+83750000000+85625000000+86875000000+87500000000+88437500000+88750000000
2105+89375000000+90000000000+90625000000+90937500000+91562500000+91875000000
2074+92187500000+92500000000+92812500000+93125000000+93125000000+93437500000
2042+93437500000+93750000000+93750000000+93750000000+94062500000+94062500000
2011+94062500000+94062500000+94062500000+94062500000+94062500000+94062500000
1979+94062500000+94062500000+93750000000+93750000000+93750000000+93750000000
1947+93437500000+93437500000+93437500000+93125000000+92812500000+92500000000
1916+92187500000+91562500000+90625000000+89375000000+87500000000+83437500000
1884+75000000000+66250000000+55625000000+54375000000+53750000000+53750000000
1853+54687500000+58750000000+65937500000+69375000000+74375000000+80000000000
1821+85000000000+85937500000+82500000000+81875000000+81875000000+82187500000
1789+83437500000+86562500000+88125000000+88750000000+87500000000+81875000000
1758+76875000000+70000000000+68437500000+70625000000+79687500000+79375000000
1726+80937500000+81875000000+85000000000+84375000000+81562500000+80625000000
1695+80625000000+86875000000+85937500000+80625000000+79687500000+84687500000
1663+87500000000+86250000000+80937500000+72500000000+72500000000+67812500000
1632+67187500000+68125000000+65312500000+65312500000+72500000000+75312500000
1600+79062500000+84375000000+87187500000+87500000000+85625000000+85625000000
1568+86562500000+82187500000+78750000000+78750000000+87187500000+90625000000
1537+91562500000+92500000000+92187500000+86562500000+86562500000+90625000000
1505+92187500000+93125000000+93437500000+94062500000+94375000000+93437500000
1474+89062500000+91250000000+92187500000+88750000000+85625000000+90312500000
1442+92500000000+92500000000+91250000000+87187500000+86250000000+87187500000
1411+92500000000+93437500000+92187500000+89062500000+92187500000+93125000000
1379+93437500000+93125000000+93437500000+93437500000+93750000000+93750000000
1347+94062500000+94062500000+94062500000+93750000000+93437500000+93437500000
1316+93125000000+93125000000+92812500000+92812500000+92812500000+92500000000
1284+92500000000+92500000000+92812500000+92812500000+92812500000+92812500000
1253+92812500000+92812500000+92812500000+92500000000+92500000000+92187500000
1221+91875000000+90937500000+90000000000+88437500000+86250000000+80000000000
1189+78750000000+83125000000+84687500000+85000000000+85000000000+85937500000
1158+87500000000+88750000000+89687500000+89687500000+89687500000+90312500000
1126+90312500000+90625000000+90937500000+91250000000+91562500000+91875000000
1095+91875000000+91875000000+91562500000+90937500000+90000000000+89062500000
1063+87812500000+81250000000+88125000000+90625000000+90937500000+91250000000
1032+91562500000+91875000000+91875000000+91875000000+91875000000+91875000000
1000+91875000000+91875000000+91875000000+91562500000+91562500000+91250000000
968+91250000000+91250000000+91250000000+91250000000+91250000000+91562500000
937+91250000000+91250000000+91250000000+91250000000+91250000000+91250000000
905+91562500000+91562500000+91562500000+91250000000+90937500000+90625000000
874+90312500000+90000000000+90000000000+89375000000+86562500000+79687500000
842+80625000000+84375000000+86875000000+89375000000+90937500000+91562500000
811+92187500000+92500000000+93125000000+93437500000+93125000000+85937500000
779+82187500000+86875000000+91250000000+91875000000+90625000000+87187500000
747+85000000000+90625000000+90312500000+89687500000+86875000000+76562500000
716+73750000000+78437500000+86250000000+88125000000+89062500000+90000000000
684+90312500000+90625000000+90625000000+90312500000+89687500000+89375000000
653+88750000000+88437500000+88125000000+88125000000+88125000000+88437500000
621+88750000000+89375000000+90000000000+90937500000+91562500000+91875000000
589+91562500000+90625000000+87812500000+84375000000+84375000000+86875000000
558+86875000000+87187500000+87812500000+88437500000+88437500000+88437500000
526+88125000000+87812500000+87500000000+87187500000+87187500000+87187500000
495+87187500000+86875000000+86875000000+86250000000+85625000000+84687500000
463+83750000000+81875000000+79687500000+76875000000+74375000000+70937500000
432+68125000000+65312500000+63437500000+61562500000+60312500000+59062500000
400+58750000000
##END=
