##TITLE=3-hydroxy-3-methylglutaric acid
##JCAMP-DX=4.24
##DATA TYPE=INFRARED SPECTRUM
##DATE=10/06/2025
##SAMPLING PROCEDURE=ATR
##ORIGIN=SDBS
##XUNITS=1/CM
##YUNITS=TRANSMITTANCE
##RESOLUTION=5.2631578947368425
##FIRSTX=4000.0
##LASTX=400.0
##DELTAX=-5.2631578947368425
##MAXY=94.6875
##MINY=0.0
##XFACTOR=1
##YFACTOR=1
##NPOINTS=685
##FIRSTY=0.0
##XYDATA=(X++(Y..Y))
4000+0+86875000000+86562500000+86250000000+86250000000+86250000000
3968+86250000000+86250000000+86250000000+86562500000+86562500000+86250000000
3937+85937500000+85937500000+85937500000+85625000000+85625000000+85937500000
3905+85625000000+85000000000+84687500000+84062500000+83750000000+83750000000
3874+83750000000+83437500000+83437500000+83125000000+82812500000+82187500000
3842+81875000000+81250000000+80625000000+80312500000+79687500000+79062500000
3811+78125000000+76875000000+75312500000+73750000000+71875000000+69375000000
3779+66875000000+63437500000+60000000000+55937500000+51875000000+47812500000
3747+45312500000+42187500000+40000000000+38437500000+37187499999+35625000000
3716+34062500000+33125000000+32500000000+31562500000+30625000000+30000000000
3684+29375000000+28437500000+27812500000+27187500000+26562500000+25937500000
3653+25000000000+24375000000+23750000000+23125000000+22812500000+22500000000
3621+21875000000+21562500000+21250000000+20625000000+20312500000+19687500000
3589+19062500000+18750000000+18125000000+17812500000+17500000000+17187500000
3558+17187500000+16875000000+16875000000+16875000000+16562500000+16250000000
3526+15937500000+15625000000+15000000000+14375000000+13750000000+13125000000
3495+12500000000+12187500000+12187500000+12187500000+12500000000+13125000000
3463+14062500000+15000000000+15625000000+16250000000+16875000000+17500000000
3432+17812500000+18437500000+18750000000+19062500000+19062500000+19375000000
3400+19375000000+19062500000+19375000000+19375000000+19375000000+19687500000
3368+19687500000+19687500000+20000000000+19375000000+19062500000+18750000000
3337+18437500000+18125000000+18125000000+18125000000+18125000000+18750000000
3305+18125000000+15000000000+11875000000+10625000000+8125000000+6562500000
3274+6562500000+6875000000+6250000000+5312500000+5000000000+5625000000
3242+7500000000+9687500000+11562500000+13437500000+15000000000+14062500000
3211+13750000000+12812500000+13125000000+18125000000+24687500000+28750000000
3179+32187500000+33750000000+35312500000+36562500000+37812500000+37812500000
3147+37500000000+37500000000+37812500000+39375000000+40625000000+41874999999
3116+42187500000+42500000000+41562500000+39375000000+38437500000+38125000000
3084+37812500000+37812500000+37812500000+38437500000+39062500000+40625000000
3053+42187500000+43125000000+43750000000+44062500000+44687500000+45312500000
3021+45625000000+44375000000+43437499999+43437499999+45625000000+47500000000
2989+49687499999+52812500000+54375000000+55625000000+57187500000+59062500000
2958+59687500000+60312500000+62500000000+65000000000+66250000000+67812500000
2926+69687500000+71250000000+72500000000+73437500000+74375000000+75312500000
2895+76250000000+76875000000+77812500000+78750000000+79687500000+80000000000
2863+80625000000+80937500000+81250000000+81562500000+81875000000+82187500000
2832+82500000000+82812500000+83125000000+83750000000+84062500000+84687500000
2800+85000000000+85625000000+85937500000+86250000000+86250000000+86562500000
2768+86875000000+86875000000+86875000000+86875000000+86875000000+86875000000
2737+86875000000+87187500000+87187500000+87187500000+87187500000+87187500000
2705+87187500000+87500000000+87812500000+87500000000+87500000000+87500000000
2674+87500000000+87500000000+87500000000+87187500000+86875000000+86875000000
2642+86875000000+86875000000+86875000000+87187500000+87187500000+87500000000
2611+87500000000+87500000000+87500000000+87812500000+87812500000+87812500000
2579+88125000000+88125000000+88125000000+88437500000+88437500000+88750000000
2547+88750000000+88750000000+88750000000+88750000000+88750000000+88437500000
2516+88437500000+88437500000+88437500000+88437500000+88437500000+88437500000
2484+88437500000+88437500000+88437500000+88437500000+88437500000+88125000000
2453+88125000000+87812500000+87500000000+87187500000+86875000000+86562500000
2421+86250000000+85937500000+85312500000+84687500000+84062500000+83750000000
2389+83125000000+82500000000+81562500000+80625000000+79375000000+78125000000
2358+77187500000+76250000000+74687500000+72500000000+71250000000+70000000000
2326+69375000000+68750000000+67812500000+66250000000+65000000000+61562500000
2295+59375000000+55625000000+50937500000+45625000000+40000000000+33437500000
2263+27812500000+22500000000+18750000000+15000000000+11875000000+9062500000
2232+7187500000+5625000000+5000000000+4687500000+4375000000+4375000000
2200+4375000000+5000000000+5937500000+6875000000+8125000000+11562500000
2168+17187500000+22500000000+28125000000+32812500000+37187499999+40000000000
2137+41562500000+43437499999+45312500000+47187500000+48750000000+50312500000
2105+51562500000+53437500000+55312500000+57500000000+60000000000+62187500000
2074+65312500000+68125000000+71562500000+74062500000+76875000000+78750000000
2042+80937500000+82500000000+84375000000+85937500000+86875000000+87500000000
2011+88437500000+89062500000+89375000000+90000000000+90312500000+90625000000
1979+90937500000+91250000000+91250000000+91562500000+91875000000+91875000000
1947+92187500000+92187500000+92187500000+91875000000+91562500000+90625000000
1916+90000000000+89062500000+87187500000+85312500000+81875000000+78125000000
1884+71250000000+62500000000+54062500000+50937500000+45312500000+41562500000
1853+41562500000+42812500000+35937500000+33750000000+28125000000+21875000000
1821+18437500000+17812500000+19062500000+25625000000+34687500000+38437500000
1789+35625000000+38437500000+47187500000+50625000000+47812500000+41250000000
1758+32812500000+21875000000+21562500000+39062500000+53437500000+57500000000
1726+57812500000+52812500000+42500000000+37500000000+37500000000+41562500000
1695+46562499999+49687499999+48750000000+46250000000+42812500000+38749999999
1663+34375000000+33750000000+36250000000+42812500000+40000000000+34687500000
1632+29375000000+26875000000+25937500000+25625000000+26562500000+28750000000
1600+31250000000+33125000000+36250000000+40312499999+42812500000+37187499999
1568+26875000000+25625000000+27812500000+37187499999+44062500000+43437499999
1537+40312499999+35312500000+28750000000+24375000000+22500000000+22812500000
1505+26562500000+32500000000+38125000000+44062500000+50625000000+55625000000
1474+60625000000+64062500000+65937500000+65312500000+58437500000+44375000000
1442+31875000000+30625000000+32187500000+38125000000+41562500000+48437500000
1411+58125000000+63125000000+65625000000+62812500000+54062500000+52500000000
1379+58750000000+69375000000+61562500000+45312500000+45625000000+44375000000
1347+46562499999+66250000000+77500000000+82187500000+85312500000+87812500000
1316+89062500000+90312500000+91562500000+92812500000+93437500000+93750000000
1284+94062500000+94375000000+94687500000+94687500000+94687500000+94375000000
1253+94062500000+93437500000+92500000000+91250000000+89687500000+84062500000
1221+66250000000+64687500000+74687500000+82500000000+83750000000+82500000000
1189+80625000000+75937500000+74687500000+75937500000+75937500000+71562500000
1158+65625000000+58437500000+55000000000+54062500000+54062500000+55000000000
1126+57187500000+61562500000+64062500000+60937500000+51875000000+50312500000
1095+56562500000+52500000000+44999999999+46562499999+54062500000+54687500000
1063+55312500000+65312500000+70312500000+71875000000+73125000000+74062500000
1032+75937500000+77812500000+79062500000+80000000000+81562500000+84062500000
1000+85000000000+80312500000+64687500000+59687500000+61250000000+70312500000
968+75937500000+79062500000+80312500000+81875000000+82812500000+83750000000
937+84375000000+85000000000+85312500000+85312500000+85000000000+84687500000
905+84062500000+83437500000+82500000000+81875000000+80937500000+80312500000
874+79375000000+78125000000+76562500000+74687500000+70625000000+65625000000
842+56875000000+54062500000+54062500000+58125000000+46250000000+39687500000
811+40625000000+53125000000+63750000000+68125000000+68750000000+68125000000
779+67187500000+66562500000+65625000000+65625000000+65625000000+66562500000
747+67500000000+68750000000+70000000000+71250000000+71875000000+72500000000
716+72812500000+71875000000+70000000000+66562500000+65312500000+65937500000
684+68125000000+70625000000+73125000000+74062500000+75937500000+76875000000
653+77500000000+78125000000+78437500000+79062500000+79687500000+80312500000
621+80312500000+79687500000+78437500000+76875000000+75625000000+74375000000
589+73750000000+73750000000+74062500000+75000000000+76250000000+77500000000
558+78437500000+79062500000+78437500000+77500000000+76562500000+76250000000
526+76250000000+76875000000+77812500000+79375000000+81562500000+83437500000
495+85312500000+86875000000+86562500000+85312500000+83437500000+81250000000
463+79375000000+77187500000+74687500000+71875000000+69375000000+66250000000
432+63125000000+60937500000+59687500000+58750000000+58125000000+57812500000
400+57812500000
##END=
