##TITLE=3-methyl-2-morpholinobutyronitrile-2-d
##JCAMP-DX=4.24
##DATA TYPE=INFRARED SPECTRUM
##DATE=10/06/2025
##SAMPLING PROCEDURE=ATR
##ORIGIN=SDBS
##XUNITS=1/CM
##YUNITS=TRANSMITTANCE
##RESOLUTION=5.2631578947368425
##FIRSTX=4000.0
##LASTX=400.0
##DELTAX=-5.2631578947368425
##MAXY=94.6875
##MINY=0.0
##XFACTOR=1
##YFACTOR=1
##NPOINTS=685
##FIRSTY=0.0
##XYDATA=(X++(Y..Y))
4000+0+89062500000+89062500000+89062500000+89375000000+89375000000
3968+89687500000+89375000000+89375000000+89375000000+89375000000+89375000000
3937+89687500000+89687500000+89375000000+89375000000+89375000000+89375000000
3905+89375000000+89375000000+89375000000+89375000000+89375000000+89062500000
3874+89062500000+89062500000+89062500000+89062500000+89062500000+89062500000
3842+89062500000+89062500000+89062500000+89062500000+89062500000+89062500000
3811+89062500000+89062500000+89062500000+89062500000+89062500000+89062500000
3779+89062500000+88750000000+88437500000+88437500000+88437500000+88750000000
3747+88750000000+88437500000+88437500000+88437500000+88750000000+88750000000
3716+88750000000+88750000000+88750000000+88750000000+89062500000+89062500000
3684+88750000000+88437500000+88437500000+88437500000+88437500000+88437500000
3653+88125000000+88125000000+88125000000+88125000000+88125000000+87812500000
3621+87812500000+87500000000+87500000000+87500000000+87500000000+87500000000
3589+87187500000+87187500000+86875000000+86875000000+86562500000+86562500000
3558+86562500000+86875000000+86875000000+87187500000+87187500000+86875000000
3526+86875000000+86875000000+86562500000+86250000000+86250000000+86250000000
3495+86250000000+86250000000+85937500000+85937500000+85937500000+85937500000
3463+85937500000+85937500000+85625000000+85625000000+85625000000+85625000000
3432+85625000000+85312500000+85312500000+85312500000+85312500000+85312500000
3400+85312500000+85000000000+85000000000+85000000000+85000000000+85000000000
3368+84375000000+84062500000+83437500000+82500000000+82187500000+81875000000
3337+80937500000+79687500000+78750000000+77812500000+75937500000+73437500000
3305+67812500000+52187500000+23750000000+14687500000+11562500000+12187500000
3274+8750000000+4687500000+9375000000+7500000000+7187500000+7187500000
3242+10000000000+10312500000+15625000000+22500000000+19062500000+13437500000
3211+11875000000+11875000000+16250000000+29062500000+44062500000+34375000000
3179+31875000000+37812500000+61562500000+70937500000+76875000000+79687500000
3147+76562500000+73750000000+75937500000+72812500000+73125000000+77187500000
3116+80937500000+82187500000+82187500000+78125000000+75000000000+78125000000
3084+77812500000+81250000000+81562500000+84062500000+85625000000+86250000000
3053+87187500000+87812500000+87500000000+87500000000+87500000000+87812500000
3021+88750000000+88750000000+88437500000+88750000000+89375000000+90312500000
2989+90625000000+90625000000+90937500000+90937500000+90937500000+90937500000
2958+90937500000+90937500000+90937500000+91250000000+91250000000+91250000000
2926+91562500000+91562500000+91562500000+91250000000+91250000000+91250000000
2895+91250000000+91250000000+90937500000+90937500000+90937500000+90625000000
2863+90625000000+90625000000+90625000000+90625000000+90625000000+90312500000
2832+90312500000+90312500000+90625000000+90937500000+91562500000+91875000000
2800+91562500000+91562500000+91562500000+91875000000+91562500000+89375000000
2768+74062500000+76562500000+88125000000+90312500000+89062500000+89062500000
2737+90937500000+91250000000+91250000000+90937500000+90937500000+91562500000
2705+91562500000+92187500000+92187500000+92500000000+92500000000+92500000000
2674+92500000000+92500000000+92500000000+92187500000+92187500000+92187500000
2642+92187500000+92500000000+92812500000+92812500000+92812500000+92812500000
2611+93125000000+93125000000+93125000000+93125000000+92812500000+92187500000
2579+90625000000+90312500000+90312500000+90937500000+91875000000+92187500000
2547+92500000000+92812500000+92812500000+92812500000+92500000000+92500000000
2516+92500000000+92500000000+92812500000+93125000000+93125000000+93437500000
2484+93437500000+93437500000+93437500000+93437500000+93437500000+93437500000
2453+93437500000+93437500000+93437500000+93437500000+93750000000+93750000000
2421+93750000000+93750000000+93750000000+94062500000+94062500000+94062500000
2389+94062500000+94375000000+94375000000+94375000000+94375000000+94375000000
2358+94375000000+94375000000+94375000000+94375000000+94375000000+94375000000
2326+94375000000+94375000000+94375000000+94375000000+94375000000+94375000000
2295+94062500000+94062500000+94062500000+93750000000+93750000000+93750000000
2263+93750000000+94062500000+94375000000+94687500000+94375000000+94375000000
2232+94062500000+94062500000+94062500000+94062500000+94062500000+94062500000
2200+94062500000+94062500000+94062500000+94062500000+94375000000+94375000000
2168+94375000000+94375000000+94375000000+94687500000+94687500000+94687500000
2137+94687500000+94687500000+94375000000+94375000000+94375000000+94375000000
2105+94375000000+94062500000+94062500000+94062500000+94062500000+94375000000
2074+94375000000+94375000000+94375000000+94375000000+94375000000+94375000000
2042+94375000000+94375000000+94375000000+94375000000+94375000000+94375000000
2011+94062500000+93750000000+93750000000+93437500000+93437500000+93125000000
1979+93125000000+93125000000+93125000000+92812500000+92812500000+92812500000
1947+92500000000+92187500000+92187500000+91875000000+91562500000+91250000000
1916+90625000000+89375000000+87812500000+84375000000+78437500000+63437500000
1884+48437500000+46250000000+40312499999+34375000000+33125000000+26250000000
1853+26250000000+37187499999+42812500000+51875000000+62812500000+70000000000
1821+80000000000+83437500000+85625000000+86875000000+87812500000+89062500000
1789+88750000000+87500000000+78125000000+65937500000+61250000000+70000000000
1758+55937500000+56250000000+58437500000+49687499999+55000000000+67812500000
1726+72187500000+81875000000+84062500000+84375000000+85625000000+81562500000
1695+81875000000+82187500000+80937500000+86562500000+87812500000+88437500000
1663+88437500000+87500000000+86250000000+85625000000+82187500000+70937500000
1632+46562499999+45625000000+54687500000+55625000000+42812500000+42812500000
1600+52187500000+72812500000+81875000000+80937500000+80937500000+87812500000
1568+89375000000+90312500000+90625000000+90937500000+91250000000+91875000000
1537+91562500000+90937500000+82812500000+80937500000+88750000000+89375000000
1505+87187500000+82500000000+82187500000+86250000000+85000000000+82812500000
1474+82812500000+82812500000+78125000000+74687500000+65625000000+50937500000
1442+49062500000+51875000000+62500000000+65000000000+67187500000+55312500000
1411+48750000000+44375000000+40312499999+35625000000+34062500000+32187500000
1379+30937500000+34062500000+46562499999+58437500000+68437500000+73750000000
1347+79062500000+82500000000+83750000000+75937500000+52812500000+59375000000
1316+65000000000+59062500000+60625000000+68750000000+76875000000+81875000000
1284+82812500000+79062500000+65312500000+65312500000+51875000000+52500000000
1253+62812500000+59375000000+70937500000+82500000000+86562500000+87500000000
1221+86250000000+82812500000+76562500000+60625000000+50937500000+44687500000
1189+45625000000+57187500000+74375000000+73437500000+80625000000+85937500000
1158+86250000000+88125000000+90312500000+89687500000+85312500000+83750000000
1126+87500000000+74375000000+68750000000+53125000000+61875000000+80000000000
1095+86562500000+89062500000+88750000000+83125000000+61250000000+61562500000
1063+75312500000+83125000000+81250000000+64062500000+55625000000+40312499999
1032+41250000000+65625000000+69375000000+59062500000+50312500000+51562500000
1000+67187500000+76875000000+83750000000+87187500000+87812500000+75937500000
968+63437500000+73750000000+85000000000+88750000000+90937500000+91875000000
937+90625000000+87500000000+89375000000+89687500000+77812500000+70937500000
905+75625000000+84062500000+87187500000+88750000000+90312500000+90937500000
874+91250000000+90937500000+90625000000+90312500000+89375000000+87187500000
842+85937500000+86250000000+88125000000+90625000000+92187500000+91875000000
811+91562500000+88125000000+88125000000+92500000000+93125000000+93437500000
779+93750000000+94062500000+94062500000+94375000000+94375000000+94375000000
747+94375000000+94375000000+94375000000+94375000000+94375000000+94375000000
716+94375000000+94375000000+94375000000+94375000000+94375000000+94375000000
684+94375000000+94375000000+94062500000+93750000000+93437500000+92812500000
653+92187500000+91875000000+91562500000+89687500000+79687500000+57187500000
621+56250000000+76250000000+85625000000+89687500000+91250000000+93125000000
589+93437500000+92187500000+90000000000+84062500000+84062500000+89375000000
558+90937500000+91875000000+91875000000+91875000000+91562500000+91250000000
526+90625000000+90625000000+90312500000+90000000000+89687500000+89687500000
495+90000000000+90000000000+90312500000+90625000000+90625000000+90000000000
463+89062500000+87187500000+85000000000+82500000000+80625000000+78437500000
432+76875000000+75625000000+75000000000+74375000000+74062500000+74062500000
400+74062500000
##END=
