##TITLE=3-methylpentane
##JCAMP-DX=4.24
##DATA TYPE=INFRARED SPECTRUM
##DATE=10/06/2025
##SAMPLING PROCEDURE=ATR
##ORIGIN=SDBS
##XUNITS=1/CM
##YUNITS=TRANSMITTANCE
##RESOLUTION=5.2631578947368425
##FIRSTX=4000.0
##LASTX=400.0
##DELTAX=-5.2631578947368425
##MAXY=95.0
##MINY=0.0
##XFACTOR=1
##YFACTOR=1
##NPOINTS=685
##FIRSTY=0.0
##XYDATA=(X++(Y..Y))
4000+0+90312500000+90312500000+90625000000+90625000000+90625000000
3968+90625000000+90625000000+90625000000+90625000000+90312500000+90312500000
3937+90312500000+90312500000+90625000000+90625000000+90625000000+90625000000
3905+90625000000+90625000000+90625000000+90625000000+90625000000+90937500000
3874+90937500000+91250000000+91250000000+91562500000+91562500000+91250000000
3842+91250000000+91250000000+91250000000+91250000000+91562500000+91562500000
3811+91562500000+91562500000+91562500000+91250000000+91250000000+91250000000
3779+91562500000+91562500000+91562500000+91562500000+91562500000+91562500000
3747+91875000000+91875000000+91875000000+91875000000+91875000000+92187500000
3716+92187500000+92187500000+92187500000+92187500000+92187500000+92187500000
3684+92187500000+92187500000+92187500000+92187500000+92187500000+92500000000
3653+92500000000+92500000000+92500000000+92500000000+92500000000+92500000000
3621+92500000000+92187500000+92187500000+92187500000+92187500000+92187500000
3589+92187500000+92187500000+92187500000+92187500000+92187500000+92187500000
3558+92187500000+92187500000+92187500000+92187500000+92187500000+92187500000
3526+92500000000+92500000000+92500000000+92500000000+92500000000+92500000000
3495+92500000000+92500000000+92500000000+92500000000+92500000000+92187500000
3463+92187500000+91875000000+91562500000+91250000000+90625000000+90312500000
3432+90000000000+89687500000+89687500000+90000000000+90312500000+90625000000
3400+90937500000+90937500000+91250000000+90937500000+90937500000+90625000000
3368+90312500000+89687500000+89375000000+89062500000+88437500000+88125000000
3337+87500000000+86875000000+85625000000+83750000000+80625000000+76562500000
3305+68750000000+55937500000+33750000000+11562500000+4687500000+4687500000
3274+6562500000+16250000000+13437500000+12812500000+12812500000+13437500000
3242+15625000000+21250000000+28750000000+21875000000+13750000000+15312500000
3211+24375000000+25312500000+40000000000+63750000000+72812500000+76250000000
3179+79062500000+80937500000+83750000000+85312500000+87187500000+89375000000
3147+90000000000+90312500000+90625000000+90312500000+88437500000+88125000000
3116+88437500000+90000000000+90312500000+90625000000+91250000000+91562500000
3084+91875000000+91875000000+92187500000+92187500000+92187500000+92187500000
3053+92187500000+92187500000+92187500000+91875000000+91562500000+91562500000
3021+91562500000+92187500000+93437500000+93750000000+93750000000+94062500000
2989+94375000000+94375000000+94687500000+94687500000+94687500000+94687500000
2958+94375000000+94375000000+94375000000+94687500000+94687500000+94687500000
2926+94687500000+94375000000+94062500000+94062500000+94062500000+94062500000
2895+94062500000+94062500000+94062500000+94062500000+94375000000+94375000000
2863+94375000000+94375000000+94375000000+94375000000+94375000000+94375000000
2832+94375000000+94375000000+94375000000+94375000000+94375000000+94375000000
2800+94375000000+94375000000+94375000000+94375000000+94375000000+94375000000
2768+94375000000+94375000000+94375000000+94375000000+94375000000+94375000000
2737+94375000000+94687500000+94375000000+94375000000+94375000000+94375000000
2705+94375000000+94375000000+94375000000+94375000000+94375000000+94375000000
2674+94375000000+94375000000+94375000000+94375000000+94375000000+94375000000
2642+94375000000+94375000000+94375000000+94375000000+94375000000+94375000000
2611+94375000000+94375000000+94375000000+94375000000+94375000000+94375000000
2579+94375000000+94375000000+94375000000+94375000000+94375000000+94375000000
2547+94375000000+94375000000+94375000000+94375000000+94375000000+94375000000
2516+94375000000+94062500000+94062500000+94062500000+94062500000+94375000000
2484+94375000000+94375000000+94375000000+94375000000+94375000000+94375000000
2453+94375000000+94375000000+94375000000+94375000000+94375000000+94375000000
2421+94062500000+94062500000+94062500000+94062500000+94062500000+94062500000
2389+94062500000+94062500000+94062500000+94062500000+94062500000+94062500000
2358+94062500000+94062500000+94062500000+94062500000+94062500000+94062500000
2326+94062500000+94062500000+94062500000+94062500000+94062500000+94062500000
2295+93750000000+93750000000+93750000000+93750000000+93750000000+93750000000
2263+93750000000+93750000000+93437500000+93437500000+92500000000+91875000000
2232+91562500000+91562500000+91875000000+92500000000+93125000000+93437500000
2200+93437500000+93437500000+93437500000+93437500000+93125000000+93125000000
2168+93125000000+93125000000+92812500000+92812500000+92812500000+92812500000
2137+92812500000+92812500000+92812500000+93125000000+93125000000+93125000000
2105+93125000000+93125000000+93125000000+93125000000+93125000000+93125000000
2074+93125000000+93125000000+93125000000+92812500000+92812500000+92812500000
2042+92812500000+92812500000+92812500000+92500000000+92500000000+92500000000
2011+92500000000+92187500000+92187500000+92187500000+92187500000+92187500000
1979+92187500000+91875000000+91875000000+91562500000+91562500000+91250000000
1947+90625000000+90312500000+90000000000+89687500000+89375000000+88125000000
1916+87187500000+85312500000+83125000000+79687500000+75312500000+67812500000
1884+57187500000+45625000000+29375000000+25937500000+28750000000+35000000000
1853+40000000000+57500000000+69687500000+75937500000+79375000000+82812500000
1821+84687500000+85625000000+86250000000+86875000000+87500000000+87500000000
1789+87187500000+86250000000+85000000000+83125000000+78437500000+69687500000
1758+51562500000+46875000000+49062500000+57187500000+75312500000+85000000000
1726+87500000000+87500000000+87500000000+88125000000+88750000000+89687500000
1695+90937500000+91562500000+91562500000+91875000000+91875000000+91875000000
1663+91562500000+91875000000+91562500000+90625000000+89375000000+89375000000
1632+91250000000+92500000000+92500000000+92500000000+92500000000+92812500000
1600+92812500000+93125000000+93125000000+92812500000+91875000000+91250000000
1568+91250000000+92187500000+93437500000+94062500000+94375000000+94687500000
1537+94687500000+94687500000+94687500000+94687500000+94375000000+94375000000
1505+94375000000+94375000000+94375000000+94375000000+94375000000+94375000000
1474+94062500000+93437500000+93125000000+92812500000+91875000000+90312500000
1442+88125000000+87812500000+88750000000+90312500000+90937500000+91875000000
1411+92500000000+92500000000+91562500000+91250000000+92812500000+93750000000
1379+94062500000+94375000000+94375000000+94375000000+94375000000+94375000000
1347+94375000000+94375000000+94375000000+94375000000+94375000000+94062500000
1316+94062500000+93750000000+93437500000+92500000000+91250000000+90000000000
1284+90000000000+90625000000+91562500000+92500000000+92187500000+91250000000
1253+90000000000+89687500000+89687500000+90000000000+90625000000+90000000000
1221+88125000000+84687500000+80625000000+80312500000+81875000000+85625000000
1189+88750000000+89687500000+88437500000+86875000000+85937500000+83437500000
1158+82812500000+84375000000+90312500000+92812500000+94062500000+94375000000
1126+94375000000+94687500000+94687500000+94687500000+94687500000+95000000000
1095+94687500000+94375000000+94375000000+94062500000+93750000000+93437500000
1063+93437500000+93437500000+93437500000+93750000000+94062500000+94062500000
1032+94375000000+94375000000+94687500000+94687500000+94687500000+94687500000
1000+94375000000+94062500000+93750000000+93125000000+91562500000+90312500000
968+90312500000+91250000000+92187500000+92812500000+93125000000+93125000000
937+92812500000+91875000000+90312500000+87812500000+87187500000+87500000000
905+87812500000+88437500000+90312500000+92500000000+92500000000+92500000000
874+92812500000+92812500000+93125000000+93437500000+93750000000+94062500000
842+94062500000+94062500000+94375000000+94375000000+94375000000+94375000000
811+94375000000+94375000000+94375000000+94375000000+94375000000+94375000000
779+94375000000+94375000000+94375000000+94375000000+94375000000+94375000000
747+94375000000+94375000000+94375000000+94375000000+94375000000+94375000000
716+94375000000+94375000000+94375000000+94062500000+94062500000+94062500000
684+94062500000+94062500000+94062500000+94062500000+94062500000+94062500000
653+94062500000+94062500000+94062500000+93750000000+93750000000+93750000000
621+93750000000+93437500000+93437500000+93437500000+93437500000+93437500000
589+93125000000+93125000000+93125000000+93125000000+93125000000+93125000000
558+93125000000+93125000000+93125000000+93125000000+93125000000+92812500000
526+92812500000+92500000000+92500000000+92187500000+92187500000+91875000000
495+91562500000+91562500000+91250000000+90625000000+90312500000+89687500000
463+89375000000+89062500000+89062500000+88750000000+89062500000+89062500000
432+89062500000+88437500000+87500000000+86250000000+84687500000+83750000000
400+83437500000
##END=
