##TITLE=3-methyl-1-butanol
##JCAMP-DX=4.24
##DATA TYPE=INFRARED SPECTRUM
##DATE=10/06/2025
##SAMPLING PROCEDURE=ATR
##ORIGIN=SDBS
##XUNITS=1/CM
##YUNITS=TRANSMITTANCE
##RESOLUTION=5.2631578947368425
##FIRSTX=4000.0
##LASTX=400.0
##DELTAX=-5.2631578947368425
##MAXY=95.0
##MINY=0.0
##XFACTOR=1
##YFACTOR=1
##NPOINTS=685
##FIRSTY=0.0
##XYDATA=(X++(Y..Y))
4000+0+92812500000+92812500000+93125000000+93125000000+93125000000
3968+93437500000+93437500000+93437500000+93125000000+93125000000+93125000000
3937+93437500000+93437500000+93125000000+92812500000+92500000000+92500000000
3905+92812500000+92812500000+93125000000+92812500000+92812500000+92812500000
3874+92812500000+92812500000+92812500000+92812500000+93125000000+93125000000
3842+93125000000+93125000000+92812500000+92812500000+92812500000+92812500000
3811+92812500000+92812500000+92812500000+92187500000+91562500000+90937500000
3779+90625000000+90625000000+90312500000+89687500000+88750000000+87500000000
3747+86250000000+85312500000+84687500000+83750000000+82812500000+81250000000
3716+79062500000+76875000000+74375000000+71250000000+68437500000+65625000000
3684+62187500000+58437500000+54062500000+51250000000+47812500000+44062500000
3653+41250000000+38749999999+35625000000+32812500000+30312500000+28125000000
3621+26250000000+24687500000+23125000000+21562500000+19375000000+18437500000
3589+17500000000+16562500000+15625000000+14687500000+13750000000+13437500000
3558+13125000000+12812500000+12500000000+12500000000+12500000000+12500000000
3526+12500000000+12812500000+12812500000+13125000000+13125000000+13750000000
3495+14062500000+15000000000+15625000000+16562500000+17500000000+18437500000
3463+19375000000+20625000000+21562500000+23125000000+25000000000+26875000000
3432+28437500000+30312500000+32812500000+35312500000+37187499999+39687500000
3400+42187500000+44375000000+46562499999+49062500000+51250000000+53750000000
3368+55312500000+57187500000+58750000000+60625000000+61562500000+62812500000
3337+63437500000+64375000000+64687500000+63125000000+62187500000+59062500000
3305+53750000000+45312500000+31250000000+17500000000+7812500000+4687500000
3274+4687500000+6562500000+8750000000+8125000000+8437500000+9687500000
3242+11562500000+12812500000+14062500000+13750000000+10937500000+10625000000
3211+12500000000+18750000000+25625000000+32500000000+36250000000+41562500000
3179+47187500000+50937500000+55625000000+59062500000+62187500000+64062500000
3147+66875000000+67500000000+67812500000+69062500000+69687500000+69062500000
3116+69062500000+69062500000+71562500000+73437500000+75000000000+76875000000
3084+77812500000+78437500000+79062500000+78750000000+78437500000+78437500000
3053+79062500000+80000000000+81250000000+81875000000+82187500000+82500000000
3021+82500000000+82812500000+83125000000+83437500000+83750000000+83750000000
2989+84687500000+85937500000+86562500000+86875000000+87500000000+87812500000
2958+88437500000+88437500000+88750000000+89062500000+89375000000+89687500000
2926+90000000000+90000000000+90000000000+90312500000+90312500000+90312500000
2895+90625000000+90937500000+90937500000+91250000000+91250000000+91562500000
2863+91562500000+91875000000+91875000000+92187500000+92187500000+92500000000
2832+92812500000+93125000000+93125000000+93125000000+93125000000+93125000000
2800+93125000000+93125000000+93125000000+93437500000+93437500000+93437500000
2768+93437500000+93750000000+93750000000+93750000000+93750000000+93750000000
2737+94062500000+94062500000+94062500000+94062500000+94062500000+94062500000
2705+93750000000+93750000000+93750000000+93750000000+93750000000+94062500000
2674+93750000000+93437500000+92500000000+92187500000+92187500000+92500000000
2642+92812500000+93125000000+93125000000+93125000000+93125000000+93437500000
2611+94062500000+94062500000+94375000000+94375000000+94375000000+94375000000
2579+94375000000+94687500000+94687500000+94687500000+94687500000+94687500000
2547+94687500000+94687500000+94687500000+94687500000+94687500000+94687500000
2516+94687500000+94687500000+94687500000+94375000000+94062500000+93750000000
2484+93750000000+93437500000+93750000000+93750000000+93750000000+94062500000
2453+94062500000+94062500000+94375000000+94375000000+94375000000+94375000000
2421+94375000000+94375000000+94375000000+94375000000+94375000000+94375000000
2389+94375000000+94687500000+94687500000+94687500000+94687500000+94687500000
2358+94375000000+94375000000+94375000000+94375000000+94375000000+94375000000
2326+94375000000+94375000000+94375000000+94375000000+94062500000+94062500000
2295+94062500000+94062500000+94062500000+94375000000+94375000000+94375000000
2263+94687500000+94687500000+95000000000+94687500000+94375000000+94375000000
2232+94062500000+93750000000+93437500000+93125000000+92812500000+92812500000
2200+92500000000+92187500000+92187500000+91875000000+91562500000+91250000000
2168+90937500000+90312500000+90000000000+89687500000+89687500000+89375000000
2137+89375000000+89375000000+89375000000+89375000000+89375000000+89375000000
2105+89375000000+89687500000+89687500000+90000000000+90312500000+90312500000
2074+90312500000+90312500000+90312500000+90312500000+90312500000+90312500000
2042+90312500000+90000000000+89687500000+89375000000+89375000000+89062500000
2011+88750000000+88437500000+88125000000+87812500000+87500000000+87187500000
1979+86562500000+86250000000+85000000000+84062500000+83750000000+82500000000
1947+81250000000+80000000000+78437500000+76562500000+74687500000+72187500000
1916+69687500000+65000000000+58750000000+48750000000+41250000000+36250000000
1884+30625000000+23437500000+19687500000+19687500000+21875000000+26250000000
1853+28750000000+33437500000+37812500000+41874999999+43750000000+40937500000
1821+40625000000+40937500000+42187500000+43437499999+44999999999+46562499999
1789+47500000000+48437500000+48437500000+47187500000+42500000000+29687500000
1758+27187500000+31875000000+36562500000+35625000000+24062500000+24062500000
1726+35625000000+42187500000+44687500000+48437500000+50625000000+52500000000
1695+54062500000+54687500000+54687500000+54687500000+55000000000+56250000000
1663+57500000000+59375000000+61250000000+62500000000+64062500000+65000000000
1632+65937500000+68437500000+70937500000+72500000000+73125000000+72500000000
1600+70625000000+70312500000+70312500000+70312500000+70312500000+70625000000
1568+71875000000+73125000000+73437500000+73125000000+71562500000+70000000000
1537+67500000000+65625000000+63437500000+63125000000+63125000000+66562500000
1505+72187500000+76250000000+78750000000+80625000000+80937500000+79375000000
1474+76875000000+69375000000+60312500000+60312500000+65937500000+72187500000
1442+74062500000+73750000000+71562500000+67812500000+63437500000+57500000000
1411+52812500000+48124999999+47500000000+47812500000+50312500000+54687500000
1379+60000000000+64687500000+70000000000+73125000000+74062500000+71250000000
1347+66562500000+59687500000+47812500000+31562500000+19375000000+13750000000
1316+11875000000+10625000000+10312500000+11250000000+15000000000+18437500000
1284+22500000000+28750000000+37500000000+44687500000+49062500000+41562500000
1253+28750000000+21875000000+20625000000+21562500000+26562500000+33750000000
1221+41562500000+49062500000+53437500000+58750000000+58437500000+57812500000
1189+51875000000+33125000000+31562500000+39375000000+58125000000+65000000000
1158+65000000000+75312500000+75000000000+74062500000+78437500000+84375000000
1126+85937500000+81562500000+78437500000+80000000000+84375000000+80625000000
1095+80312500000+81562500000+84375000000+86562500000+89375000000+90625000000
1063+90937500000+90625000000+90312500000+89687500000+88437500000+87187500000
1032+85625000000+83437500000+80625000000+78125000000+73125000000+61250000000
1000+55312500000+55312500000+64687500000+71562500000+77500000000+79375000000
968+79687500000+78750000000+77500000000+76562500000+76250000000+75937500000
937+75312500000+73437500000+71875000000+70000000000+68437500000+67500000000
905+67187500000+67187500000+67500000000+67812500000+68125000000+68125000000
874+67187500000+66562500000+65625000000+65000000000+64062500000+63125000000
842+62187500000+61562500000+60625000000+60000000000+59375000000+58750000000
811+58437500000+57812500000+57187500000+56562500000+55937500000+55312500000
779+55312500000+55000000000+55000000000+54687500000+54687500000+54375000000
747+54375000000+54375000000+54375000000+54375000000+54375000000+54062500000
716+55312500000+55937500000+56562500000+57187500000+57812500000+58437500000
684+58750000000+59375000000+60000000000+60625000000+61250000000+62187500000
653+63125000000+64062500000+65000000000+65937500000+66875000000+68125000000
621+69375000000+70625000000+71562500000+72500000000+73125000000+73125000000
589+72812500000+72812500000+72812500000+73125000000+73437500000+74375000000
558+75000000000+75625000000+76562500000+77187500000+77812500000+78125000000
526+77500000000+76875000000+76562500000+76250000000+76250000000+76875000000
495+77812500000+79375000000+80625000000+81875000000+83125000000+84687500000
463+85937500000+87187500000+88437500000+90000000000+91875000000+93125000000
432+94062500000+92187500000+90000000000+86562500000+83125000000+80937500000
400+80000000000
##END=
