##TITLE=3-methoxypropylamine
##JCAMP-DX=4.24
##DATA TYPE=INFRARED SPECTRUM
##DATE=10/06/2025
##SAMPLING PROCEDURE=ATR
##ORIGIN=SDBS
##XUNITS=1/CM
##YUNITS=TRANSMITTANCE
##RESOLUTION=5.2631578947368425
##FIRSTX=4000.0
##LASTX=400.0
##DELTAX=-5.2631578947368425
##MAXY=95.0
##MINY=0.0
##XFACTOR=1
##YFACTOR=1
##NPOINTS=685
##FIRSTY=0.0
##XYDATA=(X++(Y..Y))
4000+0+93437500000+93437500000+93750000000+93750000000+94062500000
3968+94062500000+94062500000+94062500000+94062500000+94062500000+94062500000
3937+94062500000+94062500000+94062500000+94062500000+93750000000+93750000000
3905+93437500000+93437500000+93125000000+93125000000+92812500000+92500000000
3874+92187500000+92187500000+92187500000+91875000000+91875000000+91562500000
3842+90937500000+90625000000+90000000000+89687500000+89375000000+89062500000
3811+89062500000+88750000000+88125000000+87187500000+85625000000+82187500000
3779+77812500000+74062500000+71562500000+68125000000+63437500000+60000000000
3747+56562500000+52500000000+48750000000+44375000000+40937500000+37187499999
3716+34062500000+30625000000+27500000000+24375000000+21562500000+19687500000
3684+17812500000+16562500000+15312500000+14062500000+13125000000+12500000000
3653+12187500000+11562500000+11250000000+10937500000+10625000000+10625000000
3621+10312500000+10312500000+10000000000+10000000000+10000000000+9687500000
3589+9687500000+9375000000+9062500000+8437500000+7187500000+6562500000
3558+6562500000+6875000000+7500000000+8437500000+9375000000+10000000000
3526+9687500000+9375000000+9062500000+9062500000+9375000000+10000000000
3495+10312500000+10937500000+11562500000+11875000000+12187500000+12500000000
3463+13125000000+13125000000+13437500000+13750000000+13750000000+14062500000
3432+14375000000+15000000000+15625000000+16250000000+16875000000+17812500000
3400+18750000000+19375000000+20000000000+20625000000+21250000000+21875000000
3368+22500000000+23125000000+23750000000+24062500000+25000000000+25625000000
3337+26250000000+26562500000+27187500000+27500000000+27187500000+25625000000
3305+22500000000+18437500000+16250000000+15625000000+14062500000+10937500000
3274+7500000000+5625000000+4687500000+4687500000+5000000000+6250000000
3242+8437500000+9062500000+8750000000+7812500000+6250000000+6250000000
3211+6562500000+7500000000+9687500000+11875000000+12187500000+12812500000
3179+16250000000+18125000000+24062500000+35312500000+42500000000+45937500000
3147+47187500000+47500000000+48437500000+49687499999+50937500000+52187500000
3116+55000000000+58125000000+60937500000+63125000000+65000000000+66250000000
3084+67500000000+68750000000+70000000000+70937500000+72187500000+73125000000
3053+73750000000+74375000000+75000000000+75312500000+75625000000+75937500000
3021+76562500000+77187500000+78125000000+79062500000+79687500000+80000000000
2989+80625000000+81250000000+82187500000+82500000000+82812500000+83125000000
2958+83437500000+83750000000+83750000000+83750000000+84062500000+84375000000
2926+84375000000+84687500000+84687500000+84687500000+84687500000+84687500000
2895+84687500000+84375000000+84375000000+84375000000+84062500000+84062500000
2863+83750000000+83750000000+83750000000+83437500000+83437500000+83437500000
2832+83437500000+83125000000+83125000000+83125000000+83125000000+82812500000
2800+82500000000+82500000000+82187500000+81875000000+81875000000+81562500000
2768+81562500000+81562500000+81562500000+81562500000+81875000000+81875000000
2737+81875000000+82187500000+82187500000+82500000000+82500000000+82812500000
2705+82812500000+83125000000+83437500000+83750000000+83750000000+84062500000
2674+84375000000+84375000000+84687500000+84687500000+85000000000+85312500000
2642+85625000000+85937500000+86250000000+86875000000+86875000000+86875000000
2611+87187500000+87187500000+87500000000+87812500000+88125000000+88437500000
2579+88750000000+89062500000+89375000000+89687500000+89687500000+90000000000
2547+90312500000+90625000000+90625000000+90937500000+91250000000+91562500000
2516+91875000000+91875000000+92187500000+92187500000+92500000000+92500000000
2484+92812500000+92812500000+92812500000+93125000000+93125000000+93125000000
2453+93125000000+93437500000+93437500000+93437500000+93437500000+93437500000
2421+93750000000+93750000000+94062500000+94062500000+94375000000+94375000000
2389+94375000000+94687500000+94687500000+94687500000+95000000000+95000000000
2358+94687500000+94687500000+94687500000+94687500000+94687500000+94687500000
2326+94375000000+94375000000+94375000000+94062500000+93750000000+93750000000
2295+93437500000+93125000000+92500000000+91875000000+91562500000+90937500000
2263+90312500000+89687500000+89062500000+88125000000+87187500000+85937500000
2232+84687500000+83125000000+81250000000+79687500000+77812500000+75312500000
2200+72500000000+69375000000+66875000000+63125000000+59375000000+55625000000
2168+52500000000+49375000000+46875000000+44687500000+43750000000+43125000000
2137+43125000000+43437499999+43750000000+44687500000+45937500000+47187500000
2105+48437500000+49062500000+49687499999+48750000000+47187500000+45312500000
2074+42500000000+40312499999+39687500000+39687500000+40625000000+43437499999
2042+47500000000+51562500000+55937500000+59687500000+62812500000+65000000000
2011+67187500000+68750000000+70312500000+71875000000+73125000000+74687500000
1979+75625000000+76562500000+77812500000+78437500000+79375000000+80000000000
1947+80937500000+81875000000+81875000000+81250000000+80625000000+79062500000
1916+77187500000+74062500000+67500000000+57500000000+53437500000+53125000000
1884+55312500000+52500000000+46250000000+42812500000+43125000000+46250000000
1853+45625000000+45625000000+50937500000+57187500000+60937500000+63437500000
1821+64375000000+66875000000+72187500000+76875000000+78437500000+76562500000
1789+71250000000+64375000000+56875000000+52500000000+49687499999+49687499999
1758+50312500000+55000000000+60625000000+65625000000+69687500000+72812500000
1726+75000000000+74687500000+74687500000+75625000000+79375000000+82187500000
1695+84062500000+84687500000+84375000000+83750000000+83125000000+82187500000
1663+81875000000+81875000000+82187500000+82187500000+82500000000+82812500000
1632+83437500000+83750000000+84687500000+85312500000+85937500000+86250000000
1600+86875000000+87187500000+87500000000+87187500000+86250000000+85312500000
1568+84687500000+84062500000+82812500000+80312500000+78437500000+77812500000
1537+77812500000+75625000000+70000000000+60625000000+53750000000+52187500000
1505+51562500000+51562500000+52187500000+54062500000+55937500000+57812500000
1474+55937500000+55000000000+55000000000+55937500000+56250000000+55937500000
1442+55625000000+55312500000+53750000000+51250000000+45937500000+37187499999
1411+27812500000+17812500000+11250000000+7500000000+5937500000+5937500000
1379+6250000000+7187500000+9062500000+12187500000+17187500000+21875000000
1347+26250000000+29687500000+34375000000+41874999999+47812500000+50000000000
1316+50937500000+54375000000+58125000000+60625000000+62812500000+59687500000
1284+56562500000+54062500000+53437500000+53437500000+55000000000+58125000000
1253+59687500000+59687500000+59375000000+58750000000+58437500000+58125000000
1221+57500000000+56250000000+55000000000+53125000000+51250000000+49687499999
1189+47812500000+44375000000+42187500000+40937500000+40000000000+39687500000
1158+39375000000+39375000000+39375000000+39687500000+40312499999+41250000000
1126+42500000000+43750000000+44999999999+45937500000+46875000000+47187500000
1095+46875000000+46250000000+44687500000+42812500000+41874999999+41874999999
1063+42500000000+43750000000+44999999999+45937500000+47187500000+48124999999
1032+49687499999+51250000000+52812500000+54062500000+55625000000+57187500000
1000+58125000000+59062500000+60312500000+61875000000+63437500000+64375000000
968+65312500000+66250000000+66875000000+67187500000+66875000000+66562500000
937+65625000000+64687500000+63750000000+62812500000+62187500000+61562500000
905+61250000000+61250000000+61250000000+61250000000+61562500000+62187500000
874+62187500000+62500000000+62812500000+62812500000+63125000000+63125000000
842+63125000000+63125000000+62812500000+62812500000+62812500000+63125000000
811+63125000000+63125000000+63437500000+63750000000+63750000000+64062500000
779+63750000000+63750000000+63750000000+64062500000+64062500000+64687500000
747+65000000000+65312500000+65625000000+66250000000+66562500000+66875000000
716+67187500000+67500000000+67812500000+68125000000+68437500000+68437500000
684+68750000000+68750000000+69062500000+69375000000+69375000000+70000000000
653+70312500000+70625000000+70937500000+71250000000+71562500000+71875000000
621+72187500000+72500000000+73125000000+73437500000+73750000000+74375000000
589+75000000000+75312500000+75937500000+76562500000+77187500000+78125000000
558+78750000000+79375000000+80000000000+80625000000+81250000000+82187500000
526+83125000000+84062500000+85000000000+86562500000+88437500000+90000000000
495+91875000000+93437500000+94375000000+94687500000+94687500000+94375000000
463+94375000000+94687500000+94687500000+94687500000+94375000000+93437500000
432+92500000000+90937500000+89375000000+87500000000+85937500000+84687500000
400+84375000000
##END=
