##TITLE=3-methyl-2-butanone
##JCAMP-DX=4.24
##DATA TYPE=INFRARED SPECTRUM
##DATE=10/06/2025
##SAMPLING PROCEDURE=ATR
##ORIGIN=SDBS
##XUNITS=1/CM
##YUNITS=TRANSMITTANCE
##RESOLUTION=5.2631578947368425
##FIRSTX=4000.0
##LASTX=400.0
##DELTAX=-5.2631578947368425
##MAXY=95.0
##MINY=0.0
##XFACTOR=1
##YFACTOR=1
##NPOINTS=685
##FIRSTY=0.0
##XYDATA=(X++(Y..Y))
4000+0+90000000000+90000000000+90312500000+90625000000+90625000000
3968+90625000000+90625000000+90625000000+90625000000+90937500000+90937500000
3937+90625000000+90625000000+90625000000+90625000000+90625000000+90625000000
3905+90937500000+90937500000+90937500000+90937500000+90937500000+90937500000
3874+90937500000+91250000000+91250000000+91250000000+91562500000+91562500000
3842+91562500000+91562500000+91562500000+91562500000+91562500000+91562500000
3811+91562500000+91562500000+91250000000+90625000000+90000000000+89375000000
3779+88750000000+88125000000+87187500000+86250000000+85312500000+84062500000
3747+83437500000+82812500000+82500000000+82500000000+82500000000+82500000000
3716+82812500000+82812500000+82500000000+82187500000+81875000000+81875000000
3684+81562500000+81250000000+81250000000+81250000000+81562500000+81875000000
3653+82187500000+82812500000+83125000000+83750000000+84062500000+84687500000
3621+85000000000+85000000000+84687500000+84062500000+82812500000+81562500000
3589+81562500000+81875000000+82500000000+84062500000+85625000000+86562500000
3558+87187500000+87500000000+87500000000+87500000000+87500000000+87500000000
3526+87187500000+87187500000+87187500000+87187500000+87187500000+87187500000
3495+86875000000+86875000000+86562500000+86562500000+86250000000+86250000000
3463+85937500000+85937500000+85937500000+85625000000+85625000000+85625000000
3432+85937500000+85937500000+85937500000+86250000000+86562500000+86875000000
3400+86875000000+87187500000+87500000000+87500000000+87500000000+87500000000
3368+87187500000+87187500000+86875000000+86562500000+85937500000+85312500000
3337+84687500000+83750000000+81562500000+77812500000+71875000000+65937500000
3305+58750000000+44999999999+24062500000+15000000000+14375000000+20000000000
3274+34062500000+40625000000+36562500000+36562500000+42500000000+47500000000
3242+50625000000+55312500000+55625000000+50312500000+46250000000+47500000000
3211+60937500000+72187500000+78125000000+81875000000+84375000000+85000000000
3179+85937500000+86250000000+87187500000+88125000000+89062500000+90000000000
3147+90625000000+90937500000+90937500000+90937500000+90625000000+90312500000
3116+90312500000+90312500000+90312500000+90312500000+90625000000+90937500000
3084+91250000000+91875000000+92500000000+92812500000+93125000000+93125000000
3053+93437500000+93437500000+93437500000+93437500000+93437500000+93437500000
3021+93750000000+93437500000+93437500000+93437500000+93125000000+93125000000
2989+93437500000+93437500000+93750000000+93750000000+94062500000+94062500000
2958+94062500000+94062500000+94062500000+94062500000+94062500000+94062500000
2926+94062500000+94062500000+94062500000+94062500000+94375000000+94375000000
2895+94375000000+94375000000+94375000000+94375000000+94062500000+94062500000
2863+94062500000+94062500000+94062500000+93750000000+93750000000+93750000000
2832+93750000000+93750000000+93750000000+94062500000+94062500000+94375000000
2800+94375000000+94375000000+94375000000+94375000000+94375000000+94375000000
2768+94375000000+94687500000+94687500000+94687500000+94687500000+94687500000
2737+95000000000+94687500000+94687500000+94687500000+94687500000+94687500000
2705+94687500000+94687500000+94687500000+94375000000+94375000000+94062500000
2674+94062500000+94062500000+94062500000+94062500000+94375000000+94375000000
2642+94375000000+94375000000+94375000000+94375000000+94375000000+94375000000
2611+94375000000+94375000000+94375000000+94375000000+94062500000+94062500000
2579+94062500000+94375000000+94375000000+94375000000+94375000000+94375000000
2547+94375000000+94375000000+94375000000+94375000000+94062500000+94062500000
2516+94062500000+93750000000+93750000000+93750000000+93750000000+93750000000
2484+93750000000+94062500000+94062500000+94062500000+94375000000+94375000000
2453+94375000000+94375000000+94375000000+94375000000+94687500000+94687500000
2421+94687500000+94375000000+94375000000+94375000000+94375000000+94062500000
2389+94062500000+94062500000+93750000000+93750000000+93750000000+93437500000
2358+93437500000+93125000000+93125000000+92812500000+92187500000+91875000000
2326+91562500000+90937500000+90625000000+89687500000+88437500000+86875000000
2295+85312500000+84062500000+82812500000+81250000000+79062500000+75625000000
2263+71250000000+65312500000+59062500000+50937500000+40625000000+26875000000
2232+15937500000+7812500000+5000000000+4687500000+5625000000+7187500000
2200+10312500000+17187500000+29062500000+40937500000+52187500000+59687500000
2168+65000000000+68437500000+71250000000+73437500000+75937500000+78125000000
2137+80625000000+81875000000+82500000000+82812500000+82812500000+83125000000
2105+83437500000+83750000000+84375000000+85000000000+86250000000+86875000000
2074+87812500000+88437500000+89062500000+89375000000+89687500000+90000000000
2042+90312500000+90312500000+90312500000+90312500000+90312500000+90312500000
2011+90312500000+90000000000+89687500000+89687500000+89375000000+89062500000
1979+89062500000+88750000000+88750000000+88437500000+88437500000+88437500000
1947+88125000000+87812500000+87500000000+86875000000+86250000000+85312500000
1916+84375000000+82812500000+80000000000+75937500000+70625000000+62187500000
1884+47187500000+35312500000+34687500000+37500000000+41562500000+49062500000
1853+54062500000+55312500000+55312500000+56875000000+56875000000+55937500000
1821+55312500000+55312500000+56250000000+59062500000+62812500000+66250000000
1789+68437500000+70000000000+69687500000+67812500000+62500000000+49687499999
1758+44999999999+48124999999+55000000000+46562499999+36875000000+29062500000
1726+23750000000+23437500000+28125000000+41874999999+53125000000+61562500000
1695+66875000000+72187500000+75937500000+79375000000+81875000000+83437500000
1663+84062500000+84687500000+85312500000+85312500000+84375000000+83125000000
1632+81250000000+80312500000+80312500000+81875000000+84062500000+85625000000
1600+86562500000+86250000000+84687500000+82187500000+80625000000+80937500000
1568+82500000000+83437500000+82500000000+80312500000+79687500000+80000000000
1537+80625000000+81250000000+80625000000+79062500000+75937500000+70625000000
1505+58125000000+42500000000+36250000000+37812500000+53437500000+66562500000
1474+73437500000+77187500000+79062500000+78750000000+75937500000+71875000000
1442+65312500000+55312500000+39687500000+35937500000+38437500000+50000000000
1411+63125000000+70000000000+73125000000+71562500000+68750000000+66875000000
1379+64687500000+56250000000+46250000000+45937500000+55937500000+68437500000
1347+76562500000+80000000000+79375000000+79375000000+80625000000+84062500000
1316+86875000000+88437500000+89375000000+90312500000+90937500000+91250000000
1284+91250000000+91250000000+91250000000+90937500000+90625000000+90625000000
1253+90312500000+89687500000+89062500000+88437500000+87500000000+86250000000
1221+84687500000+83437500000+82812500000+81875000000+81562500000+81250000000
1189+80625000000+78750000000+74062500000+67812500000+64687500000+64687500000
1158+67812500000+73437500000+77187500000+78437500000+80937500000+83750000000
1126+85312500000+85625000000+85937500000+87500000000+88750000000+89687500000
1095+90312500000+90625000000+90312500000+88437500000+85625000000+84062500000
1063+84375000000+88125000000+90625000000+91875000000+92500000000+92812500000
1032+93125000000+93437500000+93750000000+94062500000+94062500000+94375000000
1000+94375000000+94375000000+94375000000+94375000000+94375000000+94375000000
968+94375000000+94375000000+94375000000+94375000000+94375000000+94375000000
937+94062500000+94062500000+93750000000+93750000000+93750000000+93750000000
905+93750000000+93750000000+93750000000+94062500000+93750000000+93750000000
874+93437500000+92812500000+91875000000+90312500000+86875000000+84687500000
842+84687500000+85000000000+87187500000+90312500000+92187500000+93437500000
811+94062500000+94375000000+94375000000+94687500000+94375000000+94375000000
779+94375000000+94375000000+94375000000+94375000000+94375000000+94375000000
747+94375000000+94375000000+94375000000+94062500000+93750000000+93437500000
716+93437500000+93125000000+92500000000+91562500000+90000000000+86875000000
684+80000000000+79375000000+80625000000+82187500000+84375000000+85312500000
653+85625000000+85625000000+85625000000+85937500000+86250000000+86875000000
621+87187500000+88125000000+89062500000+89687500000+90000000000+89687500000
589+89375000000+89062500000+89062500000+89062500000+89062500000+89375000000
558+89375000000+89687500000+90000000000+90000000000+89687500000+89375000000
526+89375000000+89062500000+89062500000+89062500000+89062500000+89375000000
495+89687500000+89687500000+89375000000+88437500000+87187500000+86250000000
463+85625000000+84687500000+84375000000+83750000000+83125000000+82500000000
432+81562500000+80625000000+79687500000+78125000000+77187500000+76250000000
400+75937500000
##END=
