##TITLE=3-mercaptopropionic acid
##JCAMP-DX=4.24
##DATA TYPE=INFRARED SPECTRUM
##DATE=10/06/2025
##SAMPLING PROCEDURE=ATR
##ORIGIN=SDBS
##XUNITS=1/CM
##YUNITS=TRANSMITTANCE
##RESOLUTION=5.2631578947368425
##FIRSTX=4000.0
##LASTX=400.0
##DELTAX=-5.2631578947368425
##MAXY=94.6875
##MINY=0.0
##XFACTOR=1
##YFACTOR=1
##NPOINTS=685
##FIRSTY=0.0
##XYDATA=(X++(Y..Y))
4000+0+85312500000+85312500000+85625000000+85937500000+85937500000
3968+86250000000+86562500000+86875000000+87187500000+87500000000+88125000000
3937+88437500000+88750000000+89062500000+89062500000+89062500000+89375000000
3905+89375000000+89375000000+89687500000+89687500000+90000000000+90312500000
3874+90625000000+90937500000+91250000000+91562500000+91875000000+92187500000
3842+92187500000+92187500000+92500000000+92500000000+92500000000+92812500000
3811+92812500000+93125000000+93125000000+92812500000+92500000000+91875000000
3779+90312500000+88437500000+86562500000+84062500000+81562500000+79375000000
3747+77812500000+75937500000+74687500000+73437500000+72812500000+71875000000
3716+71250000000+70937500000+70312500000+70000000000+69687500000+69062500000
3684+68750000000+67812500000+66875000000+65937500000+65000000000+63750000000
3653+62187500000+60937500000+59062500000+57500000000+55937500000+54687500000
3621+52812500000+50937500000+49375000000+47812500000+46250000000+44687500000
3589+43125000000+41874999999+40000000000+38437500000+36562500000+35312500000
3558+33750000000+32187500000+30937500000+29687500000+28750000000+27500000000
3526+26250000000+25312500000+24375000000+23437500000+22500000000+21875000000
3495+20937500000+20312500000+19375000000+19062500000+18437500000+17812500000
3463+17500000000+16875000000+16562500000+16250000000+15937500000+15625000000
3432+15312500000+15000000000+15000000000+14687500000+14375000000+14062500000
3400+13750000000+13437500000+13437500000+13125000000+13125000000+13125000000
3368+12812500000+12812500000+12812500000+12812500000+12812500000+12500000000
3337+12500000000+12500000000+12500000000+12812500000+13125000000+13437500000
3305+13437500000+13437500000+13437500000+13437500000+13125000000+12812500000
3274+12812500000+12812500000+12812500000+13125000000+13750000000+13750000000
3242+14062500000+14062500000+14687500000+15312500000+16250000000+16875000000
3211+17500000000+18125000000+18750000000+19687500000+20625000000+21250000000
3179+22187500000+22812500000+23750000000+24062500000+24687500000+25000000000
3147+25312500000+25312500000+25312500000+25625000000+25937500000+26250000000
3116+26875000000+27500000000+27500000000+26875000000+25937500000+24687500000
3084+24062500000+23437500000+23437500000+23750000000+24375000000+25312500000
3053+26250000000+27187500000+28125000000+28125000000+26875000000+25625000000
3021+25000000000+24687500000+24687500000+24687500000+25312500000+26250000000
2989+27812500000+30000000000+31875000000+33750000000+36250000000+38437500000
2958+40625000000+42500000000+44375000000+46250000000+47812500000+49375000000
2926+51250000000+53750000000+56250000000+58125000000+60000000000+61875000000
2895+63750000000+65000000000+67187500000+69062500000+70937500000+71875000000
2863+73125000000+74062500000+75312500000+76250000000+77500000000+78750000000
2832+80000000000+80937500000+82187500000+83125000000+83750000000+84375000000
2800+84687500000+85312500000+85625000000+86250000000+87187500000+87500000000
2768+87812500000+87812500000+88437500000+89062500000+89687500000+90312500000
2737+90625000000+90937500000+91250000000+91562500000+91875000000+92187500000
2705+92187500000+92187500000+92500000000+92812500000+93125000000+93750000000
2674+94062500000+94375000000+94687500000+94687500000+94687500000+94687500000
2642+94687500000+94062500000+93437500000+92812500000+92187500000+91875000000
2611+91875000000+91562500000+91562500000+91562500000+91250000000+91250000000
2579+91250000000+90937500000+90937500000+90937500000+90625000000+90312500000
2547+90312500000+90000000000+89687500000+89062500000+88750000000+88125000000
2516+87500000000+86875000000+86250000000+85937500000+85312500000+85000000000
2484+84687500000+84375000000+84062500000+83750000000+83437500000+83125000000
2453+82500000000+82187500000+81250000000+80625000000+80000000000+79062500000
2421+78437500000+77812500000+77187500000+76562500000+75937500000+75625000000
2389+75000000000+74375000000+73437500000+72812500000+71875000000+70937500000
2358+69687500000+68750000000+67500000000+66250000000+64687500000+63125000000
2326+60937500000+59062500000+56562500000+54062500000+50625000000+46562499999
2295+42500000000+37187499999+31250000000+25312500000+20312500000+15625000000
2263+12187500000+10312500000+9375000000+8750000000+8125000000+7187500000
2232+6562500000+5625000000+5312500000+5000000000+4687500000+4687500000
2200+5000000000+5312500000+6250000000+7500000000+10000000000+12500000000
2168+15937500000+18750000000+21875000000+24687500000+27500000000+29687500000
2137+32500000000+35312500000+38125000000+40312499999+43125000000+45937500000
2105+48750000000+50937500000+53437500000+55937500000+58437500000+60000000000
2074+62187500000+64375000000+66875000000+69062500000+71562500000+73750000000
2042+75937500000+77187500000+78750000000+80000000000+81250000000+82187500000
2011+83125000000+83750000000+84375000000+85000000000+85937500000+86875000000
1979+87500000000+88125000000+88437500000+88750000000+88750000000+88437500000
1947+87812500000+86875000000+85937500000+84687500000+83437500000+82187500000
1916+81250000000+79687500000+78125000000+75937500000+74062500000+70937500000
1884+67187500000+63125000000+58125000000+51562500000+44062500000+37500000000
1853+30000000000+23437500000+18750000000+16250000000+14687500000+13750000000
1821+13125000000+13125000000+13125000000+13437500000+13750000000+13750000000
1789+14062500000+14375000000+15625000000+18125000000+21875000000+26250000000
1758+30312500000+33750000000+36875000000+39687500000+41874999999+43125000000
1726+41874999999+39375000000+36250000000+33750000000+30937500000+29062500000
1695+28125000000+28125000000+29062500000+31562500000+34687500000+36250000000
1663+33125000000+27812500000+24375000000+22812500000+21875000000+20312500000
1632+18125000000+17812500000+17812500000+17187500000+15000000000+13125000000
1600+12500000000+12500000000+12812500000+12500000000+12500000000+12500000000
1568+12812500000+13437500000+14687500000+16250000000+18437500000+20312500000
1537+20312500000+19062500000+18125000000+17500000000+17187500000+17187500000
1505+17812500000+19687500000+21875000000+24062500000+26250000000+28125000000
1474+29375000000+28125000000+25625000000+24375000000+23437500000+23437500000
1442+23437500000+24062500000+25000000000+26562500000+29375000000+32500000000
1411+37500000000+43750000000+50625000000+56250000000+62812500000+68750000000
1379+73437500000+77187500000+80000000000+82812500000+84375000000+85312500000
1347+85937500000+85312500000+84375000000+82500000000+79687500000+76250000000
1316+72187500000+67187500000+62500000000+57812500000+55312500000+54375000000
1284+54375000000+55625000000+58437500000+60625000000+63125000000+64687500000
1253+65937500000+66562500000+65312500000+62500000000+58125000000+50625000000
1221+45312500000+44375000000+44375000000+44687500000+45937500000+46875000000
1189+45625000000+43125000000+40000000000+36875000000+33750000000+30937500000
1158+26875000000+23750000000+22187500000+21875000000+21875000000+21875000000
1126+21875000000+22500000000+23437500000+24375000000+25312500000+26250000000
1095+27500000000+29062500000+30312500000+31562500000+33125000000+34375000000
1063+35312500000+34687500000+34062500000+33125000000+33125000000+33125000000
1032+34375000000+36875000000+39375000000+40937500000+42812500000+44375000000
1000+45625000000+46562499999+47187500000+47812500000+48437500000+48750000000
968+49062500000+49062500000+48750000000+48437500000+47500000000+46875000000
937+45937500000+44999999999+44062500000+43750000000+43750000000+43750000000
905+43750000000+44375000000+45312500000+47500000000+50937500000+54687500000
874+57500000000+59687500000+61250000000+62500000000+63125000000+64375000000
842+66250000000+68125000000+69375000000+70625000000+71875000000+72500000000
811+73125000000+72812500000+71875000000+70625000000+67500000000+60625000000
779+52500000000+47500000000+45625000000+45312500000+44062500000+42187500000
747+40937500000+40937500000+42500000000+45312500000+46875000000+47187500000
716+47500000000+48437500000+49687499999+51875000000+55000000000+57812500000
684+59687500000+61562500000+62812500000+63437500000+64062500000+64687500000
653+65625000000+66875000000+67812500000+69375000000+71250000000+73125000000
621+74687500000+76250000000+77500000000+78437500000+79062500000+79062500000
589+78437500000+77500000000+76250000000+74062500000+71250000000+68750000000
558+65937500000+63437500000+61250000000+59375000000+57187500000+55937500000
526+55312500000+55312500000+55312500000+55625000000+56562500000+57500000000
495+59062500000+61562500000+64687500000+67812500000+71875000000+76562500000
463+81562500000+85312500000+89687500000+92812500000+94375000000+94062500000
432+91875000000+88125000000+85000000000+80625000000+77187500000+74375000000
400+73437500000
##END=
