##TITLE=3-phthalimidopropionic acid
##JCAMP-DX=4.24
##DATA TYPE=INFRARED SPECTRUM
##DATE=10/06/2025
##SAMPLING PROCEDURE=ATR
##ORIGIN=SDBS
##XUNITS=1/CM
##YUNITS=TRANSMITTANCE
##RESOLUTION=5.2631578947368425
##FIRSTX=4000.0
##LASTX=400.0
##DELTAX=-5.2631578947368425
##MAXY=94.6875
##MINY=0.0
##XFACTOR=1
##YFACTOR=1
##NPOINTS=685
##FIRSTY=0.0
##XYDATA=(X++(Y..Y))
4000+0+79375000000+79062500000+79062500000+79062500000+79375000000
3968+79687500000+79687500000+79375000000+78750000000+78750000000+78437500000
3937+78437500000+78437500000+78437500000+78125000000+77812500000+77500000000
3905+77500000000+77500000000+77812500000+78125000000+78437500000+78125000000
3874+77812500000+77500000000+77187500000+77187500000+77500000000+77812500000
3842+77812500000+77812500000+77812500000+78125000000+78125000000+78125000000
3811+78125000000+78437500000+78437500000+78750000000+79062500000+78750000000
3779+78437500000+78437500000+78750000000+78750000000+79062500000+78750000000
3747+78750000000+78750000000+78750000000+79062500000+79687500000+79687500000
3716+79687500000+79687500000+79687500000+80000000000+80312500000+80937500000
3684+80625000000+80000000000+80000000000+80000000000+80312500000+80000000000
3653+79687500000+79687500000+79375000000+79062500000+78125000000+77187500000
3621+76562500000+76250000000+76250000000+76250000000+76250000000+75625000000
3589+75312500000+75000000000+75000000000+74375000000+73437500000+72500000000
3558+71562500000+70937500000+70312500000+69375000000+68125000000+66562500000
3526+64687500000+62812500000+60937500000+59062500000+56562500000+54062500000
3495+51250000000+47812500000+45625000000+44375000000+43437499999+40000000000
3463+36562500000+34687500000+32187500000+31875000000+32187500000+34687500000
3432+37187499999+40312499999+42812500000+45312500000+47187500000+48437500000
3400+50625000000+52500000000+53750000000+55937500000+56562500000+56562500000
3368+57187500000+59687500000+61562500000+62500000000+63125000000+63750000000
3337+64062500000+63750000000+63437500000+63125000000+62187500000+59687500000
3305+56875000000+51875000000+40000000000+30000000000+18437500000+12187500000
3274+11250000000+11875000000+8437500000+5312500000+4687500000+5000000000
3242+8750000000+12812500000+16562500000+20625000000+22812500000+19375000000
3211+16562500000+12812500000+13125000000+23750000000+44062500000+58437500000
3179+65937500000+68437500000+72187500000+74375000000+75937500000+76875000000
3147+77500000000+78125000000+78437500000+78437500000+78437500000+78125000000
3116+78125000000+78125000000+78125000000+78125000000+78125000000+78125000000
3084+78125000000+78125000000+78437500000+78750000000+79375000000+79375000000
3053+79062500000+79375000000+79375000000+79687500000+79062500000+78750000000
3021+78750000000+78750000000+79375000000+80312500000+81250000000+81875000000
2989+82187500000+82812500000+83125000000+83125000000+82812500000+82812500000
2958+83125000000+83125000000+82812500000+82500000000+82500000000+82500000000
2926+82812500000+83437500000+83750000000+83437500000+83437500000+83437500000
2895+83750000000+84375000000+84375000000+84375000000+84062500000+84062500000
2863+84062500000+84375000000+84375000000+84687500000+85000000000+85000000000
2832+85312500000+85625000000+85625000000+85937500000+86250000000+86875000000
2800+87187500000+87187500000+87187500000+87187500000+87187500000+87500000000
2768+87500000000+87812500000+87812500000+88125000000+88125000000+88437500000
2737+88437500000+88437500000+88437500000+89062500000+89375000000+89687500000
2705+90000000000+90312500000+90312500000+90312500000+90625000000+90625000000
2674+90625000000+90625000000+90625000000+90625000000+90625000000+90937500000
2642+90937500000+91250000000+91250000000+91250000000+91250000000+91562500000
2611+91562500000+91250000000+90937500000+90937500000+90625000000+90625000000
2579+90625000000+90625000000+90937500000+91250000000+91562500000+91875000000
2547+91875000000+91875000000+91875000000+91875000000+92187500000+92500000000
2516+92812500000+93125000000+93437500000+93437500000+93750000000+94062500000
2484+94062500000+94375000000+94375000000+94375000000+94062500000+94062500000
2453+93750000000+93750000000+93750000000+93750000000+93750000000+93750000000
2421+93750000000+93750000000+93750000000+94062500000+94375000000+94687500000
2389+94687500000+94375000000+93125000000+91562500000+89687500000+88437500000
2358+87812500000+87500000000+86562500000+84375000000+83750000000+82500000000
2326+80000000000+75312500000+67812500000+61562500000+52812500000+29375000000
2295+11562500000+11562500000+37187499999+59375000000+69062500000+64687500000
2263+55937500000+47500000000+40937500000+25937500000+16875000000+10000000000
2232+5937500000+5937500000+8437500000+11875000000+7500000000+5937500000
2200+5937500000+7500000000+7812500000+7812500000+9375000000+15937500000
2168+23125000000+28437500000+34687500000+38749999999+43125000000+46250000000
2137+48750000000+51250000000+54375000000+56562500000+58437500000+59062500000
2105+59062500000+59687500000+61250000000+62812500000+63437500000+59375000000
2074+54375000000+54375000000+57187500000+62187500000+64375000000+65937500000
2042+68125000000+69375000000+71562500000+73750000000+75312500000+76562500000
2011+77500000000+78437500000+78750000000+79062500000+79687500000+79375000000
1979+79062500000+78750000000+78437500000+78125000000+78437500000+78437500000
1947+79062500000+79375000000+80000000000+80625000000+80937500000+81250000000
1916+81250000000+80937500000+80000000000+78437500000+75312500000+69062500000
1884+58437500000+41562500000+16562500000+16875000000+28437500000+30625000000
1853+32187500000+34375000000+21562500000+11875000000+12187500000+25312500000
1821+36562500000+49375000000+59062500000+44999999999+37187499999+22812500000
1789+20937500000+28437500000+42187500000+47187500000+42187500000+32187500000
1758+20625000000+9687500000+7500000000+11562500000+24375000000+33125000000
1726+40312499999+48437500000+53125000000+55312500000+54375000000+53750000000
1695+54062500000+61875000000+65937500000+68437500000+69687500000+70312500000
1663+70625000000+70625000000+70937500000+71875000000+73125000000+69375000000
1632+71562500000+72812500000+66875000000+66875000000+74687500000+77187500000
1600+75625000000+72500000000+65937500000+54687500000+46250000000+47500000000
1568+61250000000+70937500000+72812500000+68750000000+63125000000+54687500000
1537+38125000000+21250000000+14375000000+14062500000+15937500000+25000000000
1505+35625000000+45312500000+40625000000+35625000000+44375000000+56875000000
1474+61875000000+60937500000+62187500000+67187500000+70312500000+71562500000
1442+72812500000+74375000000+75625000000+76562500000+77812500000+78437500000
1411+79375000000+80312500000+80625000000+80625000000+80625000000+80937500000
1379+79375000000+66250000000+60000000000+68125000000+78125000000+72187500000
1347+68125000000+73125000000+79062500000+75000000000+65625000000+69062500000
1316+78125000000+81562500000+82812500000+83750000000+84375000000+84062500000
1284+83125000000+81250000000+73750000000+65000000000+72812500000+82500000000
1253+80000000000+77187500000+65625000000+34062500000+15937500000+15625000000
1221+29687500000+48750000000+60625000000+67500000000+70312500000+71875000000
1189+73750000000+75937500000+78437500000+80312500000+81875000000+82500000000
1158+83125000000+83750000000+84375000000+84687500000+85000000000+85312500000
1126+85000000000+84062500000+81250000000+71875000000+60000000000+60312500000
1095+65000000000+72812500000+77187500000+79062500000+80312500000+80625000000
1063+79687500000+75937500000+42812500000+43437499999+67812500000+75000000000
1032+76875000000+76875000000+75937500000+74062500000+71562500000+68125000000
1000+63437500000+57187500000+50625000000+48124999999+48124999999+49062500000
968+52812500000+59062500000+65000000000+69687500000+67500000000+76250000000
937+78125000000+79062500000+80000000000+79062500000+78125000000+77812500000
905+78125000000+81875000000+84062500000+85312500000+85000000000+84062500000
874+81875000000+77187500000+71250000000+50937500000+24687500000+24375000000
842+35625000000+40625000000+51250000000+67187500000+75000000000+78125000000
811+70937500000+73437500000+81250000000+80625000000+82187500000+83750000000
779+85625000000+87812500000+88437500000+88750000000+89062500000+89062500000
747+88750000000+88750000000+88437500000+88125000000+87187500000+84062500000
716+79375000000+73750000000+73750000000+68750000000+49062500000+49375000000
684+50937500000+56250000000+77812500000+84375000000+86562500000+88125000000
653+87812500000+87500000000+86250000000+85625000000+85625000000+85625000000
621+86250000000+88125000000+90312500000+92500000000+94062500000+93437500000
589+88437500000+80937500000+30625000000+32187500000+62187500000+46562499999
558+49062500000+68125000000+76875000000+81875000000+84375000000+85625000000
526+86562500000+86562500000+86250000000+86250000000+86250000000+86250000000
495+86875000000+87187500000+86875000000+86250000000+85312500000+83750000000
463+82500000000+80312500000+77500000000+74375000000+71562500000+68750000000
432+67500000000+67500000000+68750000000+70625000000+73750000000+77500000000
400+80000000000
##END=
