##TITLE=3-phenylbutyric acid
##JCAMP-DX=4.24
##DATA TYPE=INFRARED SPECTRUM
##DATE=10/06/2025
##SAMPLING PROCEDURE=ATR
##ORIGIN=SDBS
##XUNITS=1/CM
##YUNITS=TRANSMITTANCE
##RESOLUTION=5.2631578947368425
##FIRSTX=4000.0
##LASTX=400.0
##DELTAX=-5.2631578947368425
##MAXY=94.6875
##MINY=0.0
##XFACTOR=1
##YFACTOR=1
##NPOINTS=685
##FIRSTY=0.0
##XYDATA=(X++(Y..Y))
4000+0+68750000000+68750000000+69062500000+69375000000+69375000000
3968+69375000000+69375000000+69062500000+69062500000+69375000000+69375000000
3937+69375000000+69062500000+69062500000+69375000000+69687500000+70000000000
3905+69687500000+69375000000+68750000000+68437500000+68125000000+68125000000
3874+68437500000+68437500000+68437500000+68437500000+68750000000+68437500000
3842+68437500000+68437500000+68437500000+68437500000+68437500000+68750000000
3811+69062500000+69375000000+69062500000+68750000000+68750000000+68750000000
3779+68750000000+68750000000+68437500000+68437500000+68125000000+68125000000
3747+68125000000+68125000000+68437500000+68750000000+69062500000+69062500000
3716+69062500000+69375000000+69375000000+69375000000+69375000000+69375000000
3684+69375000000+69375000000+69375000000+69687500000+70000000000+69687500000
3653+69687500000+69375000000+69375000000+69375000000+69375000000+69375000000
3621+69062500000+69062500000+69062500000+69062500000+68750000000+68750000000
3589+68437500000+68750000000+68750000000+68750000000+68437500000+68437500000
3558+67812500000+67500000000+67187500000+66875000000+66875000000+66875000000
3526+66875000000+66562500000+66250000000+65625000000+65312500000+65000000000
3495+64687500000+64375000000+63750000000+63437500000+62812500000+62187500000
3463+61562500000+60625000000+59687500000+59062500000+58437500000+57812500000
3432+57500000000+57187500000+56875000000+56562500000+56250000000+55625000000
3400+55000000000+54062500000+53125000000+52187500000+51250000000+50000000000
3368+48750000000+48750000000+48750000000+45625000000+44062500000+44062500000
3337+43750000000+42187500000+37812500000+37812500000+40312499999+39062500000
3305+36562500000+33125000000+26562500000+18437500000+11562500000+8750000000
3274+8437500000+9062500000+7187500000+5312500000+4687500000+5000000000
3242+6875000000+9375000000+11562500000+13750000000+14375000000+13125000000
3211+11562500000+10000000000+10000000000+17500000000+28750000000+36562500000
3179+41250000000+43750000000+45625000000+47500000000+48750000000+50000000000
3147+51250000000+51562500000+51875000000+51562500000+51250000000+50625000000
3116+50312500000+50312500000+50312500000+50312500000+50312500000+50000000000
3084+49687499999+49687499999+50000000000+50312500000+50625000000+50625000000
3053+50312500000+50312500000+50000000000+50312500000+50312500000+50937500000
3021+51562500000+51875000000+52187500000+52500000000+53437500000+54062500000
2989+54687500000+55000000000+55625000000+55937500000+56562500000+57187500000
2958+57812500000+58125000000+58750000000+59062500000+59687500000+60312500000
2926+61250000000+61875000000+62500000000+62812500000+63437500000+63750000000
2895+64062500000+64062500000+64375000000+65000000000+65625000000+65937500000
2863+66250000000+66562500000+66875000000+66875000000+67187500000+67500000000
2832+67812500000+67812500000+68125000000+68437500000+68750000000+69062500000
2800+69687500000+70000000000+70000000000+70312500000+70625000000+70625000000
2768+70625000000+70937500000+71250000000+71875000000+72187500000+72500000000
2737+72812500000+73125000000+73437500000+73437500000+73437500000+73750000000
2705+73750000000+74062500000+74375000000+74687500000+75000000000+75000000000
2674+75312500000+75625000000+75625000000+75937500000+75937500000+76250000000
2642+76250000000+76875000000+77187500000+77500000000+77812500000+78125000000
2611+78437500000+78437500000+78750000000+78750000000+78750000000+78437500000
2579+78125000000+78125000000+78125000000+77812500000+77500000000+77500000000
2547+77500000000+75937500000+75937500000+75937500000+76875000000+78125000000
2516+78750000000+79375000000+80000000000+80312500000+80312500000+80625000000
2484+80625000000+80625000000+80625000000+80625000000+80312500000+80000000000
2453+80000000000+79687500000+79687500000+79375000000+79375000000+79687500000
2421+79687500000+80000000000+80625000000+80937500000+81250000000+81562500000
2389+81875000000+82187500000+82187500000+82500000000+82187500000+82187500000
2358+81562500000+80625000000+79375000000+79062500000+79375000000+80000000000
2326+80625000000+81875000000+82500000000+82500000000+82812500000+83437500000
2295+83750000000+83750000000+84062500000+83437500000+82500000000+80937500000
2263+79687500000+78750000000+76250000000+72812500000+67500000000+60312500000
2232+50625000000+41250000000+30937500000+23750000000+21562500000+21562500000
2200+23750000000+26562500000+28125000000+30000000000+32812500000+35625000000
2168+38125000000+40312499999+42500000000+44687500000+46562499999+48124999999
2137+50312500000+51875000000+53437500000+55000000000+56250000000+57500000000
2105+58437500000+59687500000+60937500000+61875000000+62812500000+63750000000
2074+63437500000+60312500000+56875000000+56875000000+59375000000+62812500000
2042+65625000000+63125000000+63750000000+67187500000+68437500000+69062500000
2011+70000000000+70625000000+71562500000+71875000000+71875000000+71875000000
1979+72187500000+72812500000+73125000000+73437500000+73437500000+73125000000
1947+72187500000+71562500000+71250000000+71250000000+70937500000+68437500000
1916+59687500000+52812500000+53437500000+59062500000+61875000000+59687500000
1884+52812500000+42500000000+34062500000+32500000000+30000000000+25937500000
1853+25625000000+29375000000+33750000000+36875000000+39375000000+36875000000
1821+36875000000+39062500000+43437499999+46875000000+48437500000+45937500000
1789+43750000000+43750000000+47500000000+53437500000+56250000000+51875000000
1758+47812500000+41250000000+40312499999+42500000000+46562499999+45625000000
1726+47812500000+55937500000+61250000000+63750000000+65312500000+62812500000
1695+50000000000+46562499999+47812500000+57187500000+45937500000+44999999999
1663+44999999999+46562499999+49687499999+49062500000+44062500000+43437499999
1632+43750000000+46250000000+43125000000+39062500000+39062500000+41562500000
1600+45937500000+50625000000+55000000000+58750000000+60625000000+61562500000
1568+62812500000+64687500000+62812500000+60937500000+58750000000+54375000000
1537+47500000000+41562500000+40000000000+40000000000+41562500000+45312500000
1505+49687499999+53125000000+55937500000+56875000000+57500000000+47500000000
1474+47812500000+54062500000+58125000000+60000000000+61562500000+63437500000
1442+58437500000+58437500000+64062500000+66250000000+67500000000+68437500000
1411+69375000000+70000000000+70312500000+66875000000+57812500000+58125000000
1379+62500000000+63125000000+65000000000+66562500000+68125000000+68750000000
1347+67812500000+65000000000+62187500000+60937500000+59062500000+61875000000
1316+66562500000+68437500000+70000000000+70937500000+71562500000+71875000000
1284+72187500000+72500000000+72500000000+72500000000+65312500000+47500000000
1253+47187500000+54687500000+62812500000+66562500000+68125000000+68750000000
1221+69687500000+70312500000+70625000000+70937500000+70625000000+70312500000
1189+69687500000+69062500000+68125000000+67187500000+65937500000+64375000000
1158+62500000000+60625000000+58750000000+56875000000+55625000000+55625000000
1126+55625000000+56875000000+58750000000+61562500000+63125000000+64062500000
1095+66875000000+70000000000+70937500000+70937500000+72187500000+72812500000
1063+73437500000+67500000000+67812500000+75312500000+77187500000+77812500000
1032+78750000000+78750000000+78750000000+78750000000+78437500000+79062500000
1000+80000000000+80312500000+80937500000+81250000000+81875000000+82187500000
968+82500000000+82500000000+82812500000+82812500000+82500000000+80937500000
937+72812500000+67812500000+70937500000+77187500000+79375000000+78750000000
905+75625000000+67187500000+55312500000+52187500000+55937500000+71875000000
874+79687500000+83437500000+84062500000+83437500000+82500000000+80937500000
842+79062500000+79062500000+79687500000+77500000000+71875000000+55937500000
811+40000000000+38749999999+50937500000+53125000000+62500000000+71562500000
779+75625000000+78125000000+80937500000+83125000000+84062500000+86250000000
747+87187500000+87187500000+87500000000+87187500000+86875000000+86562500000
716+86250000000+85937500000+85937500000+80312500000+83750000000+86250000000
684+86875000000+86250000000+83750000000+82500000000+81562500000+80312500000
653+80937500000+80937500000+81250000000+82187500000+83750000000+85312500000
621+86875000000+88750000000+90000000000+90312500000+90625000000+87500000000
589+85937500000+83750000000+85000000000+85625000000+81875000000+73750000000
558+71875000000+74687500000+82500000000+85937500000+84062500000+85937500000
526+88437500000+89687500000+90625000000+91875000000+93125000000+94062500000
495+94687500000+94687500000+94687500000+94062500000+93437500000+92500000000
463+91562500000+90625000000+89375000000+87812500000+86250000000+84687500000
432+82812500000+80312500000+78437500000+75937500000+73750000000+72187500000
400+71562500000
##END=
