##TITLE=4'-methoxyacetophenone
##JCAMP-DX=4.24
##DATA TYPE=INFRARED SPECTRUM
##DATE=10/06/2025
##SAMPLING PROCEDURE=ATR
##ORIGIN=SDBS
##XUNITS=1/CM
##YUNITS=TRANSMITTANCE
##RESOLUTION=5.2631578947368425
##FIRSTX=4000.0
##LASTX=400.0
##DELTAX=-5.2631578947368425
##MAXY=94.6875
##MINY=0.0
##XFACTOR=1
##YFACTOR=1
##NPOINTS=685
##FIRSTY=0.0
##XYDATA=(X++(Y..Y))
4000+0+91562500000+91250000000+90937500000+90312500000+90000000000
3968+89687500000+89062500000+89062500000+89062500000+88750000000+88125000000
3937+87812500000+87187500000+86875000000+86250000000+85625000000+85312500000
3905+85312500000+85312500000+85000000000+84687500000+84062500000+83437500000
3874+83125000000+83125000000+83125000000+82500000000+82187500000+81875000000
3842+81875000000+81250000000+80937500000+80937500000+80625000000+80312500000
3811+80000000000+80000000000+80000000000+80000000000+79687500000+79062500000
3779+78750000000+78437500000+78125000000+77812500000+77812500000+77500000000
3747+77187500000+76875000000+76562500000+76562500000+76562500000+76250000000
3716+76250000000+75937500000+75625000000+75625000000+75625000000+75625000000
3684+75312500000+75000000000+74375000000+74062500000+73750000000+73437500000
3653+73125000000+72812500000+72812500000+72500000000+72500000000+72187500000
3621+71875000000+71875000000+71562500000+71562500000+70937500000+70625000000
3589+70312500000+70312500000+70000000000+69687500000+69375000000+69062500000
3558+68750000000+68437500000+68437500000+68437500000+67812500000+65937500000
3526+64687500000+65000000000+65312500000+65625000000+66250000000+66250000000
3495+66250000000+66250000000+65937500000+65625000000+65312500000+65000000000
3463+64687500000+64687500000+64375000000+64062500000+63437500000+63125000000
3432+62812500000+62500000000+62187500000+61875000000+61562500000+61562500000
3400+61250000000+60937500000+60312500000+59687500000+57500000000+57812500000
3368+58750000000+55937500000+55937500000+55312500000+54687500000+54687500000
3337+53750000000+52187500000+50000000000+49687499999+46250000000+42812500000
3305+38125000000+34375000000+25625000000+15625000000+5937500000+4687500000
3274+5625000000+7500000000+6562500000+6250000000+6250000000+6562500000
3242+8125000000+11562500000+16250000000+20000000000+21250000000+18750000000
3211+16250000000+13437500000+12500000000+12500000000+36562500000+51875000000
3179+58750000000+62500000000+65312500000+67187500000+67812500000+68437500000
3147+68750000000+68750000000+69062500000+69375000000+69062500000+68750000000
3116+68750000000+68750000000+69062500000+69375000000+69062500000+68750000000
3084+68750000000+68750000000+69062500000+69062500000+68750000000+68437500000
3053+68437500000+68437500000+68437500000+68750000000+68750000000+69062500000
3021+68750000000+68750000000+68750000000+68750000000+69062500000+69375000000
2989+70000000000+70312500000+70625000000+70937500000+70937500000+70625000000
2958+70625000000+70625000000+70937500000+71250000000+71562500000+71875000000
2926+72187500000+72187500000+71875000000+71875000000+71562500000+71562500000
2895+71562500000+71875000000+71875000000+71562500000+71562500000+71562500000
2863+71562500000+71562500000+71875000000+71875000000+71875000000+72187500000
2832+72187500000+72500000000+72812500000+73125000000+73437500000+73750000000
2800+74375000000+74375000000+74687500000+74687500000+75000000000+75000000000
2768+75312500000+75625000000+75937500000+75937500000+75937500000+75937500000
2737+75937500000+76250000000+76875000000+77187500000+77500000000+77812500000
2705+77812500000+78125000000+78437500000+78750000000+78750000000+79062500000
2674+79375000000+79375000000+79062500000+78750000000+78750000000+78750000000
2642+78125000000+75937500000+75937500000+77187500000+78750000000+79687500000
2611+80000000000+80000000000+80000000000+79687500000+79687500000+79687500000
2579+80000000000+80312500000+80937500000+81875000000+82500000000+82187500000
2547+81250000000+80937500000+80312500000+78750000000+78437500000+79062500000
2516+80312500000+81562500000+81875000000+80625000000+79062500000+78750000000
2484+79375000000+81250000000+82500000000+83437500000+82812500000+80937500000
2453+78437500000+78750000000+82812500000+85000000000+86250000000+87187500000
2421+87500000000+87812500000+87812500000+88125000000+88437500000+88437500000
2389+88750000000+89062500000+89375000000+89687500000+90000000000+89687500000
2358+89687500000+89687500000+89687500000+90000000000+90625000000+91250000000
2326+91875000000+92500000000+92812500000+92812500000+92812500000+92812500000
2295+92812500000+92812500000+92812500000+92500000000+92500000000+92187500000
2263+92187500000+91875000000+91875000000+91875000000+92187500000+93125000000
2232+94375000000+94687500000+94687500000+94062500000+93125000000+90937500000
2200+88750000000+86250000000+82187500000+69687500000+53437500000+45625000000
2168+29687500000+22812500000+20625000000+20312500000+20937500000+22812500000
2137+26250000000+34375000000+43750000000+50625000000+58750000000+62500000000
2105+63125000000+59375000000+55000000000+49375000000+44375000000+40312499999
2074+37187499999+31875000000+29687500000+30000000000+33125000000+35937500000
2042+39375000000+41874999999+46250000000+40000000000+40312499999+42187500000
2011+43437499999+44375000000+45937500000+48124999999+51562500000+55000000000
1979+59062500000+60625000000+60937500000+63750000000+68750000000+73125000000
1947+77187500000+68125000000+46875000000+39375000000+40000000000+43437499999
1916+45625000000+49062500000+53750000000+56875000000+58750000000+55625000000
1884+45312500000+32500000000+21875000000+18125000000+16562500000+18750000000
1853+26250000000+35937500000+37500000000+40000000000+46875000000+39375000000
1821+37187499999+38125000000+35937500000+33750000000+33750000000+37812500000
1789+42500000000+49687499999+56562500000+63125000000+67812500000+65312500000
1758+62500000000+55937500000+54375000000+55937500000+46875000000+34687500000
1726+29062500000+27187500000+27812500000+38749999999+52187500000+63437500000
1695+71562500000+77812500000+79062500000+65000000000+60625000000+60312500000
1663+57500000000+54687500000+54687500000+54375000000+50312500000+51875000000
1632+48750000000+45937500000+43125000000+41250000000+40312499999+38125000000
1600+36875000000+35937500000+28437500000+25000000000+25312500000+30937500000
1568+30937500000+33125000000+37500000000+40312499999+42187500000+43125000000
1537+43437499999+43750000000+44062500000+44999999999+45937500000+47500000000
1505+50312500000+54062500000+58437500000+56250000000+41562500000+42500000000
1474+40625000000+36562500000+27812500000+28125000000+39375000000+42500000000
1442+43750000000+44999999999+45312500000+46562499999+47812500000+48437500000
1411+49375000000+50000000000+50312500000+47500000000+36562500000+28437500000
1379+28437500000+35937500000+51250000000+55937500000+57812500000+59062500000
1347+60312500000+61562500000+55625000000+38125000000+39062500000+52812500000
1316+59062500000+60937500000+63125000000+65000000000+66875000000+68125000000
1284+66875000000+64375000000+63750000000+49687499999+28125000000+21250000000
1253+21250000000+24062500000+32812500000+41250000000+46875000000+50312500000
1221+56562500000+60625000000+64062500000+66250000000+68437500000+70312500000
1189+72187500000+71875000000+70625000000+60625000000+48437500000+45625000000
1158+45625000000+48124999999+50625000000+52812500000+56250000000+58125000000
1126+60000000000+61562500000+62500000000+63437500000+64687500000+65937500000
1095+66875000000+67187500000+67500000000+67500000000+67812500000+68125000000
1063+68125000000+68125000000+68437500000+68437500000+68125000000+67812500000
1032+65937500000+62500000000+58125000000+48750000000+34375000000+22500000000
1000+17187500000+16562500000+16562500000+28750000000+39375000000+37812500000
968+41874999999+59375000000+45937500000+47187500000+63750000000+69375000000
937+72187500000+74375000000+75625000000+76875000000+77500000000+77812500000
905+78437500000+79375000000+80000000000+80625000000+80937500000+81250000000
874+81250000000+81250000000+80937500000+80312500000+78437500000+76875000000
842+76875000000+77187500000+80312500000+83750000000+85937500000+86875000000
811+87812500000+88437500000+89062500000+89375000000+89687500000+90000000000
779+90312500000+90625000000+90625000000+90625000000+90625000000+90937500000
747+91250000000+91562500000+91875000000+92187500000+92500000000+92812500000
716+77187500000+77500000000+88437500000+91250000000+93125000000+93437500000
684+93125000000+89687500000+81250000000+65625000000+39687500000+36562500000
653+41250000000+48437500000+41250000000+41250000000+45625000000+56250000000
621+63750000000+70000000000+75937500000+80312500000+82812500000+85312500000
589+87812500000+89375000000+90000000000+90000000000+90625000000+90625000000
558+90625000000+89375000000+86250000000+80625000000+71250000000+70625000000
526+74062500000+79375000000+80625000000+84062500000+85000000000+85625000000
495+85625000000+85937500000+86562500000+87500000000+88125000000+89062500000
463+89687500000+89687500000+90000000000+90312500000+90625000000+90937500000
432+90625000000+89062500000+87187500000+84687500000+82187500000+80625000000
400+79687500000
##END=
