##TITLE=4'-nitroacetophenone
##JCAMP-DX=4.24
##DATA TYPE=INFRARED SPECTRUM
##DATE=10/06/2025
##SAMPLING PROCEDURE=ATR
##ORIGIN=SDBS
##XUNITS=1/CM
##YUNITS=TRANSMITTANCE
##RESOLUTION=5.2631578947368425
##FIRSTX=4000.0
##LASTX=400.0
##DELTAX=-5.2631578947368425
##MAXY=94.6875
##MINY=0.0
##XFACTOR=1
##YFACTOR=1
##NPOINTS=685
##FIRSTY=0.0
##XYDATA=(X++(Y..Y))
4000+0+82812500000+82500000000+82812500000+83125000000+82812500000
3968+82812500000+82500000000+82500000000+82500000000+82812500000+82812500000
3937+83125000000+83125000000+82812500000+82500000000+82500000000+82500000000
3905+82812500000+83125000000+83125000000+82812500000+82500000000+82187500000
3874+82187500000+82187500000+82187500000+82500000000+82812500000+82500000000
3842+82500000000+82500000000+82500000000+82187500000+82187500000+82187500000
3811+82187500000+82187500000+82187500000+82187500000+82187500000+81875000000
3779+81875000000+81875000000+81875000000+81562500000+81250000000+81250000000
3747+81250000000+81250000000+81250000000+81250000000+80937500000+80937500000
3716+80625000000+80625000000+80625000000+80625000000+80625000000+80625000000
3684+80625000000+80625000000+80000000000+79062500000+78437500000+78125000000
3653+78125000000+78125000000+78125000000+78437500000+78437500000+78125000000
3621+77812500000+77812500000+77500000000+77187500000+76875000000+76562500000
3589+76250000000+76250000000+75937500000+75000000000+73125000000+71875000000
3558+70625000000+70625000000+71875000000+72812500000+73750000000+74375000000
3526+74687500000+74687500000+74375000000+74062500000+73750000000+73750000000
3495+73750000000+73750000000+74062500000+74375000000+74375000000+74062500000
3463+74062500000+74062500000+74062500000+74062500000+74062500000+74375000000
3432+74375000000+74375000000+74375000000+74375000000+74375000000+74375000000
3400+74375000000+73437500000+68750000000+43437499999+40312499999+57812500000
3368+65000000000+63437500000+65312500000+61875000000+67500000000+62500000000
3337+62187500000+66250000000+67812500000+67500000000+64687500000+61250000000
3305+59687500000+53437500000+45312500000+34687500000+20937500000+14375000000
3274+13437500000+14375000000+9375000000+5312500000+4687500000+5625000000
3242+11250000000+17500000000+23750000000+29375000000+30625000000+26250000000
3211+20937500000+15937500000+16250000000+32187500000+56562500000+70625000000
3179+78125000000+80625000000+82812500000+83750000000+84062500000+84375000000
3147+85000000000+85312500000+85625000000+85625000000+85312500000+85000000000
3116+85000000000+84687500000+84687500000+84375000000+84375000000+84375000000
3084+84375000000+84687500000+84687500000+84687500000+85000000000+85312500000
3053+85625000000+85937500000+85937500000+85625000000+85625000000+85937500000
3021+85937500000+86250000000+86562500000+86875000000+87187500000+87500000000
2989+87812500000+87812500000+87812500000+87500000000+87500000000+87500000000
2958+87812500000+87812500000+88125000000+87812500000+87500000000+86562500000
2926+85937500000+85625000000+86250000000+86875000000+87500000000+88125000000
2895+88125000000+88125000000+88125000000+88125000000+88125000000+88125000000
2863+88125000000+88125000000+88125000000+88125000000+88125000000+88125000000
2832+88125000000+87812500000+87500000000+87500000000+87812500000+88125000000
2800+88437500000+88750000000+89062500000+89062500000+89062500000+89062500000
2768+88437500000+88125000000+88125000000+88125000000+88437500000+88750000000
2737+89062500000+89375000000+89687500000+89687500000+89687500000+90000000000
2705+90000000000+90000000000+89687500000+89687500000+89687500000+90000000000
2674+90312500000+90312500000+90625000000+90625000000+90625000000+90312500000
2642+90312500000+90312500000+90312500000+90312500000+90312500000+90625000000
2611+90625000000+90625000000+90625000000+90625000000+90625000000+90625000000
2579+90625000000+89687500000+87812500000+84062500000+80312500000+81250000000
2547+85625000000+87187500000+88437500000+90312500000+90625000000+91250000000
2516+91250000000+91562500000+91562500000+91562500000+91562500000+91875000000
2484+91875000000+92187500000+92187500000+92187500000+92187500000+91875000000
2453+91875000000+91562500000+91250000000+91250000000+90937500000+90937500000
2421+90937500000+91250000000+91562500000+91875000000+92187500000+92187500000
2389+92187500000+91250000000+90000000000+88750000000+87812500000+87812500000
2358+89687500000+91250000000+91562500000+92187500000+92812500000+93125000000
2326+93125000000+93437500000+93437500000+93437500000+93437500000+93437500000
2295+93750000000+93750000000+94062500000+94062500000+94375000000+94375000000
2263+94687500000+94375000000+94375000000+93437500000+91875000000+90312500000
2232+89687500000+88437500000+85312500000+78437500000+69375000000+51250000000
2200+30312500000+14687500000+7500000000+7187500000+10000000000+19687500000
2168+31875000000+42187500000+52500000000+59375000000+64687500000+68125000000
2137+70625000000+72500000000+71250000000+72812500000+76875000000+78750000000
2105+78750000000+77187500000+75937500000+76250000000+73125000000+57187500000
2074+34687500000+28750000000+30000000000+42812500000+55937500000+60000000000
2042+65625000000+70937500000+73750000000+75625000000+78750000000+80937500000
2011+82812500000+83437500000+82812500000+80937500000+78437500000+73750000000
1979+64687500000+51562500000+26875000000+10000000000+8437500000+8437500000
1947+10000000000+13125000000+20312500000+30937500000+44375000000+55937500000
1916+61875000000+64375000000+64375000000+59687500000+66250000000+66875000000
1884+61250000000+52187500000+43437499999+43125000000+43437499999+45312500000
1853+47812500000+52812500000+55937500000+55625000000+55000000000+41250000000
1821+40000000000+50625000000+63437500000+68125000000+69062500000+65937500000
1789+50937500000+45937500000+49687499999+58750000000+65937500000+52187500000
1758+44999999999+45937500000+47500000000+42500000000+27500000000+21562500000
1726+17812500000+18750000000+19375000000+8125000000+4687500000+4687500000
1695+9062500000+17187500000+28437500000+45312500000+21562500000+13750000000
1663+18125000000+38125000000+50937500000+59687500000+64687500000+45625000000
1632+45625000000+56875000000+50937500000+41250000000+37187499999+36562500000
1600+27187500000+15312500000+12187500000+12500000000+16250000000+18750000000
1568+17187500000+15937500000+16562500000+24062500000+35312500000+45937500000
1537+52812500000+57812500000+61875000000+64375000000+66250000000+68125000000
1505+69375000000+70000000000+70625000000+71250000000+71875000000+72500000000
1474+72500000000+72500000000+72812500000+73437500000+74375000000+75000000000
1442+75312500000+75937500000+76250000000+76875000000+77187500000+77187500000
1411+77500000000+77187500000+76875000000+73750000000+58750000000+48750000000
1379+56875000000+54375000000+52187500000+57500000000+63125000000+69062500000
1347+73437500000+75000000000+67187500000+65312500000+70312500000+75000000000
1316+76875000000+77812500000+78437500000+79062500000+79687500000+80000000000
1284+79687500000+78750000000+77812500000+75312500000+74062500000+74687500000
1253+78125000000+78750000000+70312500000+30312500000+47500000000+71562500000
1221+77812500000+75937500000+76250000000+81562500000+79687500000+76875000000
1189+77812500000+69687500000+46562499999+44062500000+53125000000+66875000000
1158+74062500000+78437500000+80312500000+80937500000+81562500000+82187500000
1126+82500000000+82812500000+83437500000+83750000000+84062500000+84375000000
1095+84687500000+84687500000+84687500000+84687500000+84375000000+84062500000
1063+83750000000+83437500000+82500000000+78437500000+69062500000+36562500000
1032+22187500000+13125000000+28750000000+60625000000+73750000000+78750000000
1000+80000000000+80937500000+81875000000+82187500000+82812500000+83125000000
968+83750000000+84375000000+84687500000+85312500000+85625000000+85937500000
937+86250000000+86875000000+87187500000+87812500000+88437500000+89062500000
905+89375000000+89687500000+88125000000+83125000000+58750000000+25937500000
874+21562500000+35312500000+68750000000+79687500000+82187500000+81875000000
842+80937500000+80937500000+82812500000+85937500000+87812500000+86562500000
811+83125000000+69375000000+46875000000+51250000000+76562500000+86562500000
779+90000000000+90937500000+91562500000+91562500000+91875000000+92187500000
747+92187500000+92500000000+92500000000+92812500000+92812500000+92500000000
716+89062500000+87500000000+82187500000+46562499999+48124999999+74375000000
684+83125000000+89375000000+90312500000+91250000000+89062500000+80625000000
653+64062500000+67500000000+87187500000+90937500000+91562500000+92812500000
621+93437500000+94375000000+94375000000+94062500000+92812500000+91562500000
589+90937500000+90625000000+90625000000+90625000000+90625000000+90312500000
558+87812500000+81875000000+70937500000+62500000000+62187500000+70937500000
526+82500000000+87812500000+89375000000+90625000000+92187500000+93437500000
495+93437500000+93750000000+94375000000+94062500000+93750000000+93437500000
463+93125000000+93125000000+93125000000+92812500000+92187500000+90937500000
432+88125000000+84687500000+81250000000+77187500000+73437500000+71250000000
400+70000000000
##END=
