##TITLE=4,16-pregnadien-3,20-dione
##JCAMP-DX=4.24
##DATA TYPE=INFRARED SPECTRUM
##DATE=10/06/2025
##SAMPLING PROCEDURE=ATR
##ORIGIN=SDBS
##XUNITS=1/CM
##YUNITS=TRANSMITTANCE
##RESOLUTION=5.2631578947368425
##FIRSTX=4000.0
##LASTX=400.0
##DELTAX=-5.2631578947368425
##MAXY=94.375
##MINY=0.0
##XFACTOR=1
##YFACTOR=1
##NPOINTS=685
##FIRSTY=0.0
##XYDATA=(X++(Y..Y))
4000+0+78437500000+78750000000+78750000000+78750000000+78750000000
3968+78750000000+78750000000+78750000000+78750000000+79062500000+79375000000
3937+79375000000+79375000000+78750000000+78750000000+78750000000+79062500000
3905+79375000000+79375000000+79687500000+79687500000+79687500000+79687500000
3874+79687500000+79687500000+79687500000+80000000000+80312500000+80625000000
3842+80312500000+80312500000+80312500000+80625000000+80312500000+80312500000
3811+80312500000+80625000000+80937500000+80625000000+80625000000+80625000000
3779+80625000000+80625000000+80937500000+80937500000+80937500000+80937500000
3747+80937500000+80937500000+80937500000+80937500000+80937500000+80937500000
3716+80937500000+80937500000+80937500000+80937500000+80937500000+80937500000
3684+80937500000+81250000000+80937500000+80937500000+80937500000+80937500000
3653+80625000000+80625000000+80937500000+80625000000+80625000000+80625000000
3621+80937500000+80937500000+80625000000+80625000000+80625000000+80625000000
3589+80625000000+80625000000+80625000000+80625000000+80625000000+80625000000
3558+80625000000+80625000000+80625000000+80312500000+80000000000+80000000000
3526+79687500000+79687500000+79687500000+79687500000+80000000000+80625000000
3495+81250000000+81562500000+81562500000+81562500000+81562500000+81562500000
3463+81250000000+81250000000+81250000000+81250000000+81250000000+81250000000
3432+80937500000+80937500000+80625000000+80625000000+80625000000+80625000000
3400+80625000000+80937500000+80937500000+80937500000+80937500000+80625000000
3368+80312500000+80312500000+79687500000+77500000000+77187500000+77812500000
3337+78125000000+78125000000+77500000000+76250000000+74375000000+72187500000
3305+68750000000+63437500000+53125000000+37812500000+20625000000+14375000000
3274+11875000000+12187500000+7500000000+5312500000+4687500000+5000000000
3242+9687500000+13750000000+17500000000+20312500000+25312500000+20000000000
3211+15000000000+13437500000+14062500000+24687500000+42500000000+52500000000
3179+61875000000+68125000000+71562500000+74062500000+76250000000+77187500000
3147+78125000000+78750000000+79375000000+79062500000+78750000000+78437500000
3116+78437500000+78437500000+78750000000+79062500000+79375000000+79375000000
3084+79375000000+79687500000+79687500000+79687500000+80000000000+80000000000
3053+80000000000+80000000000+80312500000+80625000000+80937500000+81250000000
3021+81562500000+81875000000+82187500000+82187500000+82500000000+82500000000
2989+83125000000+83437500000+83750000000+83750000000+83750000000+84062500000
2958+84062500000+84062500000+84375000000+84375000000+84375000000+84375000000
2926+84375000000+84375000000+84375000000+84375000000+84375000000+84375000000
2895+84375000000+84375000000+84375000000+84375000000+84375000000+84375000000
2863+84375000000+84375000000+84687500000+84687500000+84687500000+84687500000
2832+84687500000+84687500000+84687500000+85000000000+85000000000+85000000000
2800+85000000000+85000000000+85000000000+85000000000+85312500000+85312500000
2768+85312500000+85312500000+85625000000+85625000000+85625000000+85937500000
2737+85937500000+85937500000+85937500000+85937500000+85937500000+85937500000
2705+85937500000+86250000000+86250000000+86250000000+86250000000+86562500000
2674+86562500000+86562500000+86875000000+86875000000+86875000000+86875000000
2642+86875000000+86875000000+86875000000+86875000000+86875000000+86875000000
2611+86875000000+87187500000+87187500000+87187500000+87187500000+87187500000
2579+87187500000+87187500000+86875000000+86875000000+86875000000+87187500000
2547+87187500000+87187500000+87187500000+87500000000+87500000000+87500000000
2516+87500000000+87500000000+87500000000+87500000000+87500000000+87500000000
2484+87500000000+87500000000+87500000000+87500000000+87500000000+87500000000
2453+87500000000+87500000000+87500000000+87500000000+87500000000+87500000000
2421+87500000000+87812500000+87812500000+87812500000+88125000000+88125000000
2389+88125000000+88437500000+88437500000+88437500000+88437500000+88125000000
2358+88125000000+88125000000+88125000000+88125000000+88125000000+88125000000
2326+88437500000+88437500000+88437500000+88437500000+88125000000+88125000000
2295+87812500000+87812500000+87812500000+87812500000+87812500000+88125000000
2263+88125000000+88125000000+88125000000+87187500000+85937500000+84687500000
2232+84687500000+85312500000+85937500000+85000000000+83125000000+80000000000
2200+76875000000+73750000000+70937500000+59375000000+37187499999+21562500000
2168+20000000000+24687500000+38125000000+44062500000+31875000000+18750000000
2137+20312500000+33125000000+33437500000+50625000000+62187500000+69062500000
2105+73437500000+75625000000+76562500000+75312500000+68437500000+59687500000
2074+60625000000+70312500000+75937500000+78437500000+79687500000+77500000000
2042+64687500000+57187500000+63437500000+75937500000+80312500000+82187500000
2011+82812500000+83125000000+83750000000+84062500000+84687500000+84687500000
1979+85000000000+85000000000+85000000000+85312500000+85312500000+85625000000
1947+85625000000+85625000000+85625000000+85312500000+85000000000+84687500000
1916+84375000000+83750000000+83125000000+81250000000+79062500000+75000000000
1884+66875000000+53125000000+40625000000+40312499999+40625000000+41562500000
1853+41250000000+45312500000+50000000000+50937500000+54687500000+57187500000
1821+60625000000+68750000000+69687500000+71562500000+76250000000+79687500000
1789+80625000000+81562500000+80937500000+79687500000+75000000000+63750000000
1758+59375000000+48750000000+35937500000+35000000000+41874999999+51250000000
1726+57812500000+65312500000+65625000000+66250000000+67500000000+71562500000
1695+71875000000+71875000000+72500000000+73125000000+68125000000+64375000000
1663+64375000000+68750000000+73437500000+75312500000+72187500000+75000000000
1632+79375000000+80937500000+81250000000+80312500000+76250000000+75625000000
1600+69687500000+69062500000+75000000000+76875000000+77500000000+79687500000
1568+81250000000+78750000000+73750000000+71875000000+55000000000+44687500000
1537+44687500000+60937500000+72812500000+76250000000+72812500000+74687500000
1505+79062500000+76875000000+65312500000+65000000000+72187500000+72812500000
1474+77500000000+80000000000+80312500000+80000000000+80000000000+82500000000
1442+82500000000+82812500000+83125000000+83437500000+83437500000+83125000000
1411+82812500000+82500000000+81250000000+80312500000+81562500000+82500000000
1379+82187500000+80312500000+80000000000+82812500000+85312500000+85937500000
1347+85937500000+85625000000+85000000000+84687500000+84375000000+84375000000
1316+84687500000+84687500000+85000000000+85000000000+85000000000+83125000000
1284+76875000000+73437500000+74687500000+79062500000+77500000000+77500000000
1253+79375000000+81562500000+83437500000+84062500000+84375000000+85000000000
1221+85625000000+85937500000+85937500000+85312500000+81562500000+64375000000
1189+64375000000+77187500000+78750000000+79687500000+81250000000+75937500000
1158+68437500000+68750000000+75625000000+81250000000+83125000000+83125000000
1126+76562500000+65625000000+66875000000+76250000000+80937500000+83437500000
1095+84687500000+85625000000+83750000000+80312500000+81562500000+84687500000
1063+85625000000+84687500000+83125000000+64375000000+58125000000+68125000000
1032+80000000000+82500000000+84375000000+82500000000+73750000000+70937500000
1000+71250000000+80625000000+85000000000+86250000000+86250000000+86875000000
968+87187500000+87187500000+87500000000+87812500000+88125000000+88437500000
937+88750000000+87812500000+83125000000+83125000000+86562500000+87500000000
905+88125000000+88125000000+88125000000+87812500000+85312500000+87500000000
874+87187500000+86875000000+85937500000+85312500000+84687500000+83750000000
842+83750000000+83750000000+79375000000+78125000000+82812500000+87500000000
811+89062500000+90312500000+90312500000+89687500000+80625000000+78125000000
779+85625000000+89375000000+90625000000+90000000000+88125000000+81562500000
747+81250000000+76250000000+77187500000+87500000000+89062500000+90000000000
716+90625000000+90625000000+90937500000+91250000000+91562500000+90000000000
684+84375000000+84375000000+89375000000+89687500000+89687500000+91562500000
653+90312500000+89062500000+87812500000+89062500000+89062500000+89062500000
621+89062500000+89687500000+90000000000+90000000000+90312500000+90937500000
589+91875000000+92812500000+93750000000+94375000000+94375000000+92500000000
558+86250000000+82500000000+89375000000+89375000000+89062500000+89375000000
526+89687500000+90000000000+90000000000+90312500000+90312500000+90312500000
495+90312500000+90312500000+90312500000+90937500000+91875000000+92812500000
463+93125000000+92500000000+90937500000+88750000000+86875000000+84062500000
432+81250000000+78437500000+76250000000+73437500000+71250000000+69687500000
400+69062500000
##END=
