##TITLE=4-(p-methoxybenzylidene)-2-phenyl-2-oxazolin-5-one
##JCAMP-DX=4.24
##DATA TYPE=INFRARED SPECTRUM
##DATE=10/06/2025
##SAMPLING PROCEDURE=ATR
##ORIGIN=SDBS
##XUNITS=1/CM
##YUNITS=TRANSMITTANCE
##RESOLUTION=5.2631578947368425
##FIRSTX=4000.0
##LASTX=400.0
##DELTAX=-5.2631578947368425
##MAXY=94.6875
##MINY=0.0
##XFACTOR=1
##YFACTOR=1
##NPOINTS=685
##FIRSTY=0.0
##XYDATA=(X++(Y..Y))
4000+0+86562500000+86562500000+86250000000+86250000000+85937500000
3968+86250000000+86250000000+86250000000+86250000000+86250000000+86250000000
3937+86250000000+86250000000+85937500000+85625000000+85625000000+85625000000
3905+85625000000+85937500000+85937500000+85625000000+85312500000+85000000000
3874+85000000000+85000000000+85312500000+85000000000+85000000000+85000000000
3842+85000000000+84687500000+84687500000+84687500000+84687500000+84687500000
3811+84687500000+84687500000+84687500000+84687500000+84687500000+84687500000
3779+84375000000+84375000000+84375000000+84687500000+84687500000+84375000000
3747+84375000000+84375000000+84062500000+83750000000+83750000000+83750000000
3716+83750000000+83750000000+83750000000+83750000000+84062500000+84062500000
3684+84062500000+84062500000+83750000000+83750000000+83437500000+83437500000
3653+83437500000+83437500000+83437500000+83437500000+83437500000+83750000000
3621+83437500000+83437500000+83125000000+83125000000+82812500000+82812500000
3589+82812500000+82812500000+82812500000+82500000000+82500000000+82500000000
3558+82500000000+82500000000+82500000000+82500000000+82500000000+82500000000
3526+82500000000+82187500000+82187500000+81875000000+81875000000+82187500000
3495+82187500000+81875000000+81875000000+81875000000+81875000000+81875000000
3463+81875000000+81875000000+81875000000+81562500000+81250000000+81250000000
3432+81250000000+81250000000+81250000000+81250000000+81250000000+81250000000
3400+80937500000+80937500000+80937500000+80625000000+80625000000+80625000000
3368+80625000000+78750000000+78750000000+78750000000+78750000000+78437500000
3337+77500000000+76250000000+75937500000+73437500000+71250000000+70000000000
3305+65625000000+58437500000+46562499999+34062500000+19687500000+13437500000
3274+11875000000+12812500000+9062500000+5000000000+4687500000+5312500000
3242+8750000000+13125000000+16875000000+20937500000+22812500000+20000000000
3211+16562500000+12812500000+13125000000+24062500000+44687500000+59375000000
3179+66875000000+71562500000+75000000000+76875000000+79062500000+80312500000
3147+82187500000+82812500000+83125000000+82812500000+82500000000+82187500000
3116+82187500000+82187500000+82500000000+83437500000+83437500000+83125000000
3084+83125000000+83125000000+83125000000+83437500000+83750000000+83750000000
3053+83750000000+84375000000+84375000000+84687500000+85000000000+85312500000
3021+85000000000+85000000000+85312500000+85937500000+86562500000+87187500000
2989+87500000000+87500000000+87500000000+87500000000+87500000000+87812500000
2958+88125000000+88125000000+88437500000+88437500000+88437500000+88437500000
2926+88750000000+88750000000+88750000000+88750000000+88750000000+88750000000
2895+88750000000+88750000000+89062500000+89062500000+89062500000+89062500000
2863+89062500000+89062500000+89375000000+89375000000+89687500000+89687500000
2832+89687500000+89687500000+89687500000+89687500000+89687500000+89687500000
2800+90000000000+90000000000+90312500000+90312500000+90312500000+90312500000
2768+90312500000+90312500000+90312500000+90625000000+90625000000+90625000000
2737+90937500000+90937500000+90937500000+90937500000+90937500000+91250000000
2705+91250000000+91250000000+91250000000+91250000000+91250000000+91250000000
2674+91250000000+91250000000+91562500000+91250000000+90625000000+90625000000
2642+90625000000+90625000000+90625000000+90937500000+90937500000+91250000000
2611+91562500000+91562500000+91562500000+91562500000+91562500000+91562500000
2579+91562500000+91250000000+91250000000+90937500000+90937500000+90937500000
2547+91250000000+91562500000+91562500000+91875000000+91875000000+92187500000
2516+92187500000+92187500000+92187500000+92187500000+92187500000+92187500000
2484+91875000000+91875000000+91875000000+92187500000+92187500000+92187500000
2453+92500000000+92500000000+92500000000+92812500000+92812500000+92500000000
2421+92500000000+92187500000+91875000000+91250000000+90937500000+90312500000
2389+89687500000+89687500000+89687500000+90312500000+90937500000+90625000000
2358+90000000000+89062500000+85625000000+85937500000+83437500000+75000000000
2326+61875000000+48750000000+48750000000+58437500000+69062500000+54687500000
2295+49687499999+54062500000+63750000000+74687500000+80312500000+80937500000
2263+81875000000+85312500000+87187500000+88125000000+88437500000+88750000000
2232+88750000000+87812500000+87187500000+87187500000+87500000000+88437500000
2200+89687500000+90625000000+91562500000+91875000000+92500000000+92812500000
2168+93125000000+92187500000+90312500000+88125000000+81875000000+65000000000
2137+50625000000+49375000000+54062500000+64375000000+74062500000+80312500000
2105+82500000000+84375000000+85312500000+87187500000+88750000000+86250000000
2074+75937500000+47187500000+39375000000+41562500000+42812500000+45937500000
2042+60000000000+66250000000+67500000000+75312500000+66250000000+64062500000
2011+70625000000+76562500000+73125000000+67500000000+69687500000+77187500000
1979+81250000000+83125000000+84687500000+85625000000+85625000000+83125000000
1947+79687500000+59687500000+56250000000+60625000000+67812500000+76250000000
1916+80625000000+76250000000+67187500000+72812500000+74687500000+70312500000
1884+61562500000+47812500000+36562500000+35937500000+35937500000+36875000000
1853+38125000000+38125000000+45312500000+52500000000+60937500000+56875000000
1821+56250000000+73750000000+79062500000+82187500000+83750000000+84687500000
1789+85000000000+85000000000+84375000000+83437500000+79062500000+70000000000
1758+63125000000+53125000000+51250000000+53750000000+59375000000+64375000000
1726+70625000000+76875000000+79062500000+80312500000+80937500000+81562500000
1695+78750000000+74687500000+75312500000+63437500000+62500000000+72187500000
1663+70625000000+54375000000+54375000000+71875000000+72187500000+66250000000
1632+69062500000+78437500000+80000000000+75937500000+59375000000+45312500000
1600+32812500000+32812500000+42187500000+56875000000+64687500000+68125000000
1568+68750000000+75000000000+77812500000+80000000000+81875000000+83437500000
1537+84375000000+85000000000+86250000000+86562500000+86562500000+87187500000
1505+88125000000+88125000000+85312500000+71875000000+72500000000+64687500000
1474+68750000000+66875000000+65937500000+42812500000+39062500000+44999999999
1442+60937500000+70000000000+74062500000+78125000000+79687500000+80937500000
1411+81875000000+82812500000+83750000000+83125000000+76250000000+75937500000
1379+79375000000+72187500000+75000000000+80937500000+77812500000+78437500000
1347+83750000000+85312500000+85937500000+85625000000+79062500000+78125000000
1316+83750000000+85937500000+87187500000+87500000000+87812500000+87500000000
1284+86875000000+81250000000+55625000000+54687500000+72187500000+76250000000
1253+81875000000+84062500000+85625000000+85625000000+84687500000+80312500000
1221+81875000000+84062500000+81875000000+70937500000+70937500000+80000000000
1189+82812500000+84375000000+85937500000+86250000000+86875000000+87187500000
1158+87500000000+87812500000+88125000000+88437500000+88750000000+89062500000
1126+88750000000+84062500000+84375000000+87500000000+89062500000+84062500000
1095+73750000000+85937500000+88750000000+84687500000+70312500000+81250000000
1063+86875000000+88750000000+87812500000+82187500000+70000000000+68125000000
1032+68437500000+79375000000+83750000000+83437500000+84375000000+83125000000
1000+75937500000+45312500000+44999999999+78125000000+86562500000+87812500000
968+86562500000+87500000000+89687500000+90937500000+91250000000+91562500000
937+91875000000+91562500000+90312500000+86875000000+69375000000+71875000000
905+75937500000+85937500000+74062500000+86562500000+89687500000+89687500000
874+89062500000+88125000000+87187500000+86250000000+85000000000+82187500000
842+80000000000+80000000000+82812500000+85625000000+88437500000+86562500000
811+69062500000+41562500000+58125000000+74687500000+68125000000+83125000000
779+90312500000+87187500000+86562500000+91250000000+93437500000+94375000000
747+94375000000+94375000000+94375000000+94375000000+94375000000+94687500000
716+88750000000+89062500000+93125000000+90312500000+91250000000+94062500000
684+94062500000+94375000000+94062500000+94375000000+94062500000+94062500000
653+94062500000+93750000000+93437500000+93437500000+93125000000+92812500000
621+91875000000+83125000000+74375000000+79062500000+67187500000+76562500000
589+90000000000+92812500000+93750000000+94062500000+94687500000+94687500000
558+94062500000+90000000000+82812500000+84375000000+89687500000+89687500000
526+90000000000+90937500000+92187500000+93125000000+93437500000+94062500000
495+94375000000+94687500000+94687500000+94687500000+94375000000+94062500000
463+93750000000+93125000000+91562500000+89375000000+87187500000+84062500000
432+80937500000+79687500000+79375000000+79375000000+80000000000+80625000000
400+81875000000
##END=
