##TITLE=4-allyl-2-methoxyphenyl acetate
##JCAMP-DX=4.24
##DATA TYPE=INFRARED SPECTRUM
##DATE=10/06/2025
##SAMPLING PROCEDURE=ATR
##ORIGIN=SDBS
##XUNITS=1/CM
##YUNITS=TRANSMITTANCE
##RESOLUTION=5.2631578947368425
##FIRSTX=4000.0
##LASTX=400.0
##DELTAX=-5.2631578947368425
##MAXY=95.0
##MINY=0.0
##XFACTOR=1
##YFACTOR=1
##NPOINTS=685
##FIRSTY=0.0
##XYDATA=(X++(Y..Y))
4000+0+91875000000+91562500000+91875000000+91875000000+92187500000
3968+92500000000+92812500000+93125000000+93125000000+93437500000+93437500000
3937+93750000000+93750000000+93750000000+93437500000+93437500000+93437500000
3905+93437500000+93750000000+93750000000+94062500000+94062500000+94062500000
3874+94062500000+94062500000+94062500000+94062500000+94062500000+94062500000
3842+94375000000+94375000000+94375000000+94375000000+94375000000+94375000000
3811+94375000000+94375000000+94375000000+94375000000+94062500000+93125000000
3779+92187500000+91250000000+90625000000+90312500000+90312500000+90312500000
3747+90312500000+90625000000+91250000000+91875000000+92187500000+92187500000
3716+92187500000+91875000000+91250000000+90625000000+90000000000+89687500000
3684+89375000000+88750000000+87500000000+86562500000+85937500000+85937500000
3653+86562500000+88125000000+89062500000+90000000000+90625000000+90937500000
3621+91562500000+91875000000+91875000000+92187500000+92187500000+92500000000
3589+92812500000+92812500000+93125000000+93125000000+93437500000+93437500000
3558+93437500000+93750000000+94062500000+94062500000+94062500000+94062500000
3526+94062500000+94062500000+94062500000+94062500000+94062500000+94062500000
3495+94062500000+94062500000+94062500000+93750000000+93750000000+93437500000
3463+93125000000+93125000000+92812500000+92812500000+92812500000+92500000000
3432+92500000000+92187500000+91875000000+91562500000+90937500000+90625000000
3400+89687500000+89062500000+88437500000+87812500000+85625000000+82500000000
3368+72812500000+62812500000+61875000000+64062500000+65312500000+68125000000
3337+72812500000+73437500000+72187500000+65312500000+55937500000+52187500000
3305+52187500000+60937500000+52500000000+49062500000+50625000000+53750000000
3274+55000000000+49062500000+46250000000+48124999999+54687500000+52812500000
3242+52812500000+55000000000+60937500000+65937500000+68437500000+70625000000
3211+74375000000+69375000000+62187500000+60625000000+61562500000+68437500000
3179+80625000000+87187500000+90312500000+91250000000+92187500000+92500000000
3147+92812500000+93125000000+93125000000+93437500000+93437500000+93437500000
3116+93437500000+93437500000+93750000000+93750000000+94062500000+94062500000
3084+94375000000+94687500000+95000000000+94687500000+94687500000+94375000000
3053+94375000000+94062500000+93437500000+92812500000+92500000000+92500000000
3021+92500000000+92500000000+92812500000+93125000000+93125000000+93437500000
2989+93437500000+93437500000+94062500000+94375000000+94687500000+94687500000
2958+94687500000+94687500000+94375000000+94375000000+94375000000+94375000000
2926+94375000000+94062500000+93750000000+93437500000+92812500000+92187500000
2895+91875000000+92187500000+92500000000+93125000000+93750000000+93750000000
2863+94062500000+94062500000+94062500000+94062500000+94062500000+94062500000
2832+94062500000+94062500000+94375000000+94687500000+94375000000+94375000000
2800+94375000000+94375000000+94687500000+94687500000+94687500000+94687500000
2768+94687500000+94687500000+94687500000+94687500000+94687500000+94687500000
2737+94687500000+94375000000+94375000000+94375000000+94375000000+94062500000
2705+93437500000+92812500000+91875000000+91562500000+91250000000+90937500000
2674+90937500000+90625000000+90000000000+89687500000+89687500000+90625000000
2642+91562500000+92187500000+92187500000+91562500000+91250000000+90312500000
2611+89375000000+89062500000+88437500000+88437500000+88750000000+89375000000
2579+90312500000+91250000000+91875000000+92500000000+92812500000+92812500000
2547+92812500000+92812500000+92812500000+92812500000+92812500000+92500000000
2516+92500000000+91875000000+91562500000+90937500000+90625000000+90312500000
2484+90000000000+89687500000+89687500000+89375000000+89375000000+89062500000
2453+88437500000+87812500000+87187500000+86875000000+85937500000+85312500000
2421+84687500000+84062500000+82812500000+81562500000+80312500000+79375000000
2389+78125000000+76875000000+75937500000+74687500000+73125000000+70625000000
2358+67812500000+65625000000+62500000000+60000000000+58125000000+56250000000
2326+54375000000+51250000000+45937500000+37500000000+24687500000+11875000000
2295+6875000000+5312500000+5312500000+6250000000+10000000000+16562500000
2263+27812500000+38125000000+45625000000+50000000000+53437500000+55625000000
2232+57500000000+59375000000+61875000000+65937500000+70312500000+73125000000
2200+75000000000+76250000000+77187500000+77812500000+78750000000+79687500000
2168+80000000000+80625000000+81562500000+82187500000+82812500000+82812500000
2137+81875000000+80312500000+77187500000+69062500000+47812500000+42812500000
2105+50312500000+68125000000+73437500000+71562500000+66875000000+55312500000
2074+36562500000+20000000000+18750000000+21250000000+28125000000+38749999999
2042+52500000000+62187500000+68125000000+72500000000+75312500000+76875000000
2011+78125000000+78750000000+78437500000+77812500000+76875000000+75312500000
1979+73125000000+70000000000+66250000000+61250000000+55000000000+44999999999
1947+30625000000+15312500000+8437500000+7187500000+9375000000+16875000000
1916+29687500000+40625000000+50937500000+57187500000+60312500000+55937500000
1884+44999999999+32187500000+23125000000+22812500000+26250000000+30625000000
1853+30312500000+30312500000+36875000000+39687500000+33437500000+30312500000
1821+30312500000+25000000000+19062500000+18750000000+22187500000+29687500000
1789+36562500000+47187500000+58125000000+64062500000+66250000000+63437500000
1758+56562500000+46562499999+29687500000+18750000000+17500000000+19062500000
1726+30312500000+47500000000+60000000000+67500000000+70000000000+67812500000
1695+63437500000+58437500000+51562500000+43437499999+39062500000+39062500000
1663+39375000000+40625000000+41250000000+38125000000+33125000000+27812500000
1632+22187500000+19375000000+18125000000+17187500000+15625000000+12187500000
1600+10000000000+10312500000+13437500000+20000000000+27187500000+35625000000
1568+43125000000+44999999999+40312499999+34062500000+26250000000+18125000000
1537+11250000000+8125000000+7500000000+7812500000+9375000000+7187500000
1505+5312500000+4687500000+4687500000+5937500000+6562500000+7812500000
1474+12187500000+21250000000+31250000000+39062500000+40937500000+30000000000
1442+16562500000+12812500000+12812500000+15000000000+27812500000+41250000000
1411+39062500000+24062500000+15625000000+14375000000+17500000000+33750000000
1379+49375000000+56562500000+60937500000+63750000000+65937500000+68437500000
1347+71875000000+75000000000+76562500000+77500000000+77187500000+75937500000
1316+75000000000+72500000000+69062500000+62500000000+53125000000+38437500000
1284+22812500000+15000000000+14687500000+16250000000+25937500000+38437500000
1253+41562500000+34062500000+30625000000+30625000000+35000000000+38437500000
1221+38125000000+40000000000+48750000000+61250000000+72500000000+78125000000
1189+80625000000+79687500000+75937500000+71875000000+67500000000+63437500000
1158+62500000000+60937500000+58125000000+54375000000+49687499999+44062500000
1126+39062500000+33125000000+28125000000+25000000000+24062500000+23750000000
1095+24375000000+28125000000+33750000000+36250000000+40937500000+51875000000
1063+64062500000+70937500000+73125000000+70625000000+67500000000+62187500000
1032+55625000000+49687499999+48124999999+48437500000+54375000000+60937500000
1000+53125000000+46250000000+41562500000+37500000000+37500000000+42187500000
968+58750000000+72500000000+78437500000+79687500000+76875000000+71250000000
937+65937500000+65625000000+71875000000+81562500000+86562500000+87812500000
905+85937500000+82812500000+75937500000+61562500000+49062500000+46875000000
874+47500000000+54062500000+66250000000+79375000000+85000000000+83437500000
842+80625000000+77500000000+77187500000+81562500000+90000000000+93437500000
811+94375000000+94375000000+92187500000+87812500000+78125000000+71250000000
779+71562500000+75937500000+76875000000+75312500000+75312500000+78750000000
747+82812500000+86875000000+86875000000+83750000000+74062500000+67187500000
716+67187500000+70312500000+75312500000+78125000000+79687500000+77500000000
684+68125000000+57500000000+56875000000+59375000000+63750000000+68750000000
653+73437500000+79687500000+83125000000+84687500000+85000000000+85312500000
621+85000000000+84375000000+83437500000+81562500000+76562500000+70937500000
589+70625000000+72500000000+78125000000+83125000000+84375000000+84375000000
558+83437500000+81250000000+74687500000+66875000000+64062500000+64375000000
526+71562500000+80937500000+85937500000+88437500000+86250000000+84687500000
495+83437500000+83125000000+83125000000+84062500000+85937500000+88437500000
463+90625000000+92187500000+93437500000+93437500000+92500000000+90937500000
432+89062500000+86562500000+84375000000+82187500000+80000000000+78750000000
400+78125000000
##END=
