##TITLE=4-chloro-3-methylphenol
##JCAMP-DX=4.24
##DATA TYPE=INFRARED SPECTRUM
##DATE=10/06/2025
##SAMPLING PROCEDURE=ATR
##ORIGIN=SDBS
##XUNITS=1/CM
##YUNITS=TRANSMITTANCE
##RESOLUTION=5.2631578947368425
##FIRSTX=4000.0
##LASTX=400.0
##DELTAX=-5.2631578947368425
##MAXY=94.375
##MINY=0.0
##XFACTOR=1
##YFACTOR=1
##NPOINTS=685
##FIRSTY=0.0
##XYDATA=(X++(Y..Y))
4000+0+72500000000+72500000000+72500000000+72812500000+73125000000
3968+73437500000+73437500000+73437500000+73437500000+73750000000+74062500000
3937+73750000000+73750000000+73750000000+73750000000+74062500000+74375000000
3905+74687500000+74687500000+74687500000+74687500000+74687500000+75000000000
3874+75312500000+75312500000+75312500000+75312500000+75625000000+75937500000
3842+75937500000+76250000000+76250000000+76250000000+76250000000+76562500000
3811+76875000000+76875000000+76875000000+77187500000+77500000000+77500000000
3779+77812500000+78125000000+78437500000+78437500000+78750000000+78750000000
3747+78750000000+78750000000+78750000000+78750000000+79062500000+79375000000
3716+79687500000+80312500000+80625000000+80937500000+81250000000+81562500000
3684+81562500000+81250000000+81250000000+80937500000+80625000000+80312500000
3653+79687500000+78750000000+77500000000+75625000000+74062500000+72500000000
3621+69375000000+66875000000+63750000000+61250000000+57812500000+54062500000
3589+50625000000+47500000000+44375000000+41250000000+38125000000+35937500000
3558+32812500000+30312500000+28125000000+25000000000+21875000000+19062500000
3526+16562500000+14687500000+12500000000+11250000000+10625000000+10625000000
3495+10625000000+10625000000+10625000000+10937500000+11250000000+11250000000
3463+11562500000+11875000000+12187500000+12812500000+13437500000+14687500000
3432+15625000000+17187500000+19375000000+20937500000+22500000000+24375000000
3400+26250000000+28437500000+30000000000+31562500000+33437500000+35312500000
3368+36562500000+36875000000+34062500000+34062500000+37500000000+39687500000
3337+41562500000+41562500000+41562500000+42812500000+44687500000+44375000000
3305+41562500000+36875000000+32500000000+26562500000+17812500000+12187500000
3274+11562500000+13125000000+9375000000+5625000000+4687500000+5312500000
3242+10000000000+15937500000+21562500000+26562500000+29375000000+25625000000
3211+21250000000+16250000000+16562500000+30312500000+51875000000+62812500000
3179+67500000000+69062500000+69687500000+70000000000+70000000000+70000000000
3147+70000000000+70312500000+71562500000+72187500000+71875000000+71875000000
3116+72812500000+73437500000+73437500000+73125000000+72500000000+72187500000
3084+72187500000+72187500000+72187500000+72500000000+72812500000+73125000000
3053+73437500000+73750000000+74062500000+74375000000+75312500000+75937500000
3021+75625000000+75312500000+75000000000+75000000000+75000000000+74375000000
2989+73750000000+73437500000+73437500000+74062500000+76250000000+77500000000
2958+78437500000+78437500000+78125000000+77812500000+77187500000+76875000000
2926+76250000000+76562500000+77187500000+78125000000+79062500000+79375000000
2895+79375000000+80000000000+82187500000+82812500000+82812500000+82812500000
2863+83125000000+83125000000+83437500000+83437500000+83750000000+84062500000
2832+84062500000+84375000000+84687500000+85000000000+85625000000+85625000000
2800+85937500000+86250000000+86250000000+86250000000+85937500000+85937500000
2768+85937500000+86250000000+86250000000+86250000000+86250000000+86250000000
2737+86250000000+86875000000+87187500000+87500000000+87812500000+88125000000
2705+88125000000+88125000000+88125000000+88125000000+88125000000+88125000000
2674+88437500000+88437500000+88437500000+88750000000+88750000000+89062500000
2642+89375000000+89375000000+89375000000+89062500000+89062500000+89062500000
2611+89375000000+89375000000+89375000000+89062500000+89062500000+89062500000
2579+89062500000+89062500000+89062500000+89062500000+89375000000+89375000000
2547+89687500000+89687500000+89687500000+89687500000+90000000000+90000000000
2516+90000000000+90000000000+90312500000+90312500000+90625000000+90625000000
2484+90625000000+90625000000+89687500000+88125000000+87812500000+88437500000
2453+89062500000+89375000000+89687500000+89375000000+86562500000+74062500000
2421+70312500000+77812500000+86250000000+88437500000+90000000000+90312500000
2389+90625000000+90937500000+90937500000+90937500000+90937500000+90625000000
2358+90625000000+90625000000+90312500000+90312500000+90312500000+90312500000
2326+90625000000+90625000000+90625000000+90937500000+91250000000+91562500000
2295+91562500000+91875000000+92187500000+92187500000+92187500000+92187500000
2263+91250000000+90312500000+89375000000+85937500000+85937500000+86562500000
2232+86250000000+85937500000+85937500000+87187500000+89062500000+90000000000
2200+90625000000+90937500000+90937500000+91250000000+91250000000+91250000000
2168+91250000000+91250000000+91250000000+91250000000+90937500000+90937500000
2137+90937500000+90625000000+90312500000+89687500000+89062500000+87187500000
2105+85625000000+82812500000+76875000000+68750000000+64687500000+58750000000
2074+59062500000+63750000000+68125000000+72187500000+75937500000+65000000000
2042+48750000000+33437500000+21562500000+20000000000+23750000000+34375000000
2011+46562499999+55937500000+62500000000+65937500000+69062500000+72500000000
1979+74687500000+75937500000+76875000000+77500000000+77500000000+77500000000
1947+76875000000+75625000000+73750000000+67500000000+60000000000+59687500000
1916+59687500000+53437500000+40000000000+19687500000+7187500000+5312500000
1884+5625000000+8125000000+8750000000+10312500000+14375000000+18750000000
1853+26562500000+36250000000+40937500000+40937500000+38749999999+38749999999
1821+41562500000+49062500000+58125000000+65312500000+70000000000+72500000000
1789+73437500000+73125000000+71562500000+70000000000+67812500000+62500000000
1758+54375000000+35937500000+31875000000+47812500000+56875000000+57500000000
1726+58750000000+56875000000+52812500000+48437500000+40625000000+31875000000
1695+23750000000+19375000000+16875000000+16875000000+17187500000+20000000000
1663+23125000000+27812500000+33750000000+39375000000+40625000000+27187500000
1632+13125000000+11562500000+10937500000+13437500000+20000000000+32187500000
1600+44999999999+55937500000+65625000000+71562500000+67812500000+51875000000
1568+23125000000+7812500000+6562500000+9375000000+20937500000+32187500000
1537+36875000000+40625000000+45937500000+50937500000+56562500000+61875000000
1505+65312500000+68437500000+70312500000+73125000000+75312500000+77187500000
1474+78125000000+70937500000+44687500000+9062500000+5312500000+5625000000
1442+17500000000+35000000000+47500000000+48750000000+50312500000+50937500000
1411+26875000000+27187500000+42187500000+58437500000+67500000000+72500000000
1379+74687500000+75937500000+77500000000+78750000000+79687500000+80000000000
1347+80937500000+81562500000+82500000000+83125000000+83750000000+83437500000
1316+81875000000+75312500000+43437499999+29687500000+30312500000+51250000000
1284+65625000000+60625000000+55312500000+57187500000+66562500000+70625000000
1253+71875000000+69687500000+66562500000+54375000000+47812500000+50000000000
1221+66875000000+74062500000+78437500000+80312500000+81875000000+82500000000
1189+83437500000+84062500000+84375000000+83750000000+80937500000+74687500000
1158+41562500000+37812500000+56875000000+71562500000+75937500000+74687500000
1126+83437500000+84687500000+85000000000+85000000000+85000000000+85000000000
1095+85312500000+85625000000+85937500000+85937500000+86250000000+86250000000
1063+85937500000+85000000000+81250000000+67187500000+56875000000+22812500000
1032+20000000000+47500000000+70937500000+78437500000+80937500000+81562500000
1000+80937500000+79687500000+78437500000+75625000000+71250000000+58750000000
968+22812500000+8125000000+9687500000+28125000000+64062500000+75000000000
937+79062500000+79062500000+78125000000+77500000000+76250000000+75000000000
905+73437500000+71562500000+69062500000+65937500000+61875000000+60312500000
874+58125000000+56875000000+56875000000+59062500000+50625000000+50937500000
842+57812500000+58750000000+60312500000+63437500000+66562500000+67187500000
811+60000000000+54375000000+59062500000+66562500000+66875000000+66250000000
779+64062500000+61250000000+59687500000+58750000000+58125000000+57812500000
747+57812500000+57500000000+53437500000+33437500000+18437500000+16875000000
716+27500000000+44999999999+55937500000+62187500000+65312500000+70625000000
684+71875000000+73437500000+75312500000+76250000000+77187500000+79062500000
653+78750000000+78437500000+81250000000+75312500000+70937500000+72812500000
621+80000000000+82187500000+81875000000+82187500000+82812500000+85312500000
589+86875000000+88125000000+89062500000+90000000000+90625000000+90625000000
558+90312500000+89062500000+87812500000+86562500000+85312500000+84687500000
526+84375000000+84375000000+84687500000+85625000000+86875000000+88750000000
495+91875000000+94375000000+93750000000+90312500000+85625000000+81875000000
463+80000000000+79375000000+79375000000+79687500000+80937500000+82500000000
432+84375000000+84062500000+82812500000+80937500000+78750000000+77500000000
400+76875000000
##END=
