##TITLE=4-methyl-m-phenylene diisocyanate
##JCAMP-DX=4.24
##DATA TYPE=INFRARED SPECTRUM
##DATE=10/06/2025
##SAMPLING PROCEDURE=ATR
##ORIGIN=SDBS
##XUNITS=1/CM
##YUNITS=TRANSMITTANCE
##RESOLUTION=5.2631578947368425
##FIRSTX=4000.0
##LASTX=400.0
##DELTAX=-5.2631578947368425
##MAXY=94.6875
##MINY=0.0
##XFACTOR=1
##YFACTOR=1
##NPOINTS=685
##FIRSTY=0.0
##XYDATA=(X++(Y..Y))
4000+0+90000000000+90000000000+90000000000+90312500000+90312500000
3968+90312500000+90312500000+90312500000+90312500000+90312500000+90312500000
3937+90312500000+90312500000+90312500000+90312500000+90312500000+90000000000
3905+90000000000+89687500000+89687500000+89687500000+89375000000+89062500000
3874+88750000000+88437500000+88125000000+87500000000+87187500000+86875000000
3842+86875000000+86875000000+86562500000+86562500000+86250000000+86250000000
3811+85937500000+85937500000+85625000000+85625000000+85625000000+85625000000
3779+85625000000+85937500000+86250000000+86562500000+86875000000+87187500000
3747+87500000000+87812500000+88437500000+89062500000+89375000000+89375000000
3716+89687500000+89687500000+90000000000+90000000000+90000000000+90000000000
3684+90000000000+90312500000+90312500000+90625000000+90312500000+90312500000
3653+90312500000+90000000000+90000000000+89687500000+89375000000+89062500000
3621+88437500000+87500000000+86562500000+85937500000+85312500000+85000000000
3589+85000000000+85000000000+85000000000+85625000000+85937500000+86250000000
3558+86250000000+86562500000+86875000000+86875000000+87187500000+87500000000
3526+87812500000+88125000000+88125000000+88437500000+88437500000+88125000000
3495+88125000000+87812500000+87500000000+87500000000+87500000000+87812500000
3463+87812500000+88125000000+87812500000+87187500000+86250000000+85625000000
3432+85000000000+84687500000+84687500000+85000000000+85312500000+86250000000
3400+87500000000+88125000000+88750000000+89062500000+89062500000+88437500000
3368+88125000000+87812500000+87500000000+87500000000+87500000000+87500000000
3337+87500000000+87187500000+87187500000+87187500000+86875000000+86562500000
3305+85312500000+83125000000+82812500000+83125000000+83437500000+83437500000
3274+83437500000+83437500000+84375000000+83125000000+82812500000+84375000000
3242+88125000000+88125000000+87812500000+87187500000+86562500000+85937500000
3211+86250000000+88125000000+91875000000+91562500000+91562500000+91250000000
3179+91250000000+91250000000+91250000000+91250000000+90937500000+90937500000
3147+91250000000+90937500000+90625000000+90625000000+90312500000+90312500000
3116+90625000000+90625000000+90625000000+90312500000+90312500000+90312500000
3084+90312500000+90312500000+90625000000+90937500000+91250000000+91250000000
3053+91562500000+91562500000+91562500000+91562500000+91250000000+91250000000
3021+90937500000+90625000000+90625000000+90625000000+90625000000+90625000000
2989+90937500000+90937500000+90937500000+90625000000+90625000000+90312500000
2958+90000000000+89687500000+89062500000+88125000000+87500000000+86875000000
2926+85625000000+83437500000+81562500000+78750000000+75312500000+71250000000
2895+66562500000+59062500000+54375000000+51250000000+46875000000+41250000000
2863+35937500000+31250000000+27500000000+23125000000+19687500000+16250000000
2832+13437500000+10625000000+8750000000+7187500000+6250000000+5625000000
2800+4687500000+4687500000+5000000000+6562500000+9062500000+12187500000
2768+15937500000+22500000000+30625000000+38125000000+44375000000+50625000000
2737+56250000000+60937500000+64062500000+62812500000+62187500000+62500000000
2705+64687500000+70312500000+76875000000+82187500000+85312500000+87187500000
2674+88437500000+88750000000+88750000000+89062500000+89375000000+90312500000
2642+90625000000+91562500000+91875000000+92500000000+92812500000+92812500000
2611+93125000000+93125000000+93125000000+93125000000+93125000000+93125000000
2579+93125000000+93125000000+93437500000+93437500000+93437500000+93437500000
2547+93437500000+93437500000+93437500000+93437500000+93437500000+93437500000
2516+93437500000+93437500000+93125000000+93125000000+92812500000+92500000000
2484+92187500000+91875000000+91875000000+91562500000+91562500000+91875000000
2453+91875000000+92187500000+92187500000+92500000000+92812500000+93125000000
2421+93125000000+93125000000+93437500000+93437500000+93437500000+93437500000
2389+93437500000+93437500000+93437500000+93437500000+93437500000+93437500000
2358+93437500000+93437500000+93437500000+93437500000+93125000000+92812500000
2326+92812500000+92500000000+92500000000+92500000000+92500000000+92500000000
2295+92500000000+92500000000+92500000000+92500000000+92812500000+92812500000
2263+92812500000+92812500000+92812500000+92500000000+92500000000+92187500000
2232+92187500000+92500000000+92500000000+92812500000+92812500000+93125000000
2200+93125000000+93125000000+93125000000+92812500000+92812500000+92812500000
2168+92812500000+92812500000+93125000000+93125000000+93125000000+93125000000
2137+92500000000+91875000000+91250000000+89687500000+87500000000+84062500000
2105+79687500000+70000000000+55625000000+39687500000+35312500000+35625000000
2074+42500000000+53750000000+63750000000+69375000000+71562500000+68125000000
2042+63437500000+56562500000+51562500000+50625000000+50937500000+55000000000
2011+64062500000+74375000000+80000000000+80312500000+76875000000+71875000000
1979+68125000000+63125000000+55937500000+45625000000+41874999999+41874999999
1947+47187500000+55937500000+63750000000+68125000000+70937500000+72812500000
1916+75000000000+77500000000+80000000000+81562500000+83125000000+83750000000
1884+84375000000+84687500000+84375000000+83437500000+80625000000+77500000000
1853+75625000000+75625000000+75937500000+76562500000+77812500000+81875000000
1821+86250000000+89375000000+90625000000+91250000000+91250000000+91250000000
1789+90625000000+90000000000+88750000000+87500000000+85000000000+81250000000
1758+78750000000+79375000000+85625000000+91875000000+93437500000+93750000000
1726+94062500000+94375000000+94375000000+94375000000+94375000000+94687500000
1695+94687500000+94687500000+94687500000+94687500000+94687500000+94375000000
1663+94375000000+94062500000+93750000000+93437500000+92812500000+91562500000
1632+90625000000+90625000000+90625000000+91562500000+92187500000+90937500000
1600+88125000000+87812500000+90312500000+93125000000+94062500000+94375000000
1568+94375000000+94375000000+94687500000+94687500000+94375000000+94375000000
1537+94062500000+93437500000+92187500000+90625000000+89687500000+89687500000
1505+92187500000+93125000000+93125000000+92812500000+92812500000+92500000000
1474+89687500000+85937500000+83125000000+82812500000+83125000000+85000000000
1442+86562500000+87812500000+88750000000+88125000000+84375000000+80937500000
1411+80937500000+81875000000+83750000000+84687500000+85000000000+85625000000
1379+86562500000+88125000000+90312500000+91562500000+92187500000+91562500000
1347+89687500000+85000000000+73750000000+59375000000+57500000000+68125000000
1316+88125000000+92812500000+94062500000+93750000000+93125000000+92812500000
1284+92187500000+92187500000+92187500000+92500000000+92812500000+93125000000
1253+93437500000+93437500000+92812500000+91562500000+88125000000+81875000000
1221+79062500000+80000000000+88125000000+91562500000+93437500000+94375000000
1189+94687500000+94687500000+94687500000+94375000000+94062500000+94062500000
1158+93750000000+93750000000+93750000000+94062500000+94062500000+94062500000
1126+93750000000+93125000000+91562500000+89375000000+85937500000+80000000000
1095+74687500000+70000000000+63750000000+60000000000+59375000000+60312500000
1063+68437500000+69375000000+67187500000+66562500000+66875000000+68437500000
1032+74062500000+80625000000+85000000000+87812500000+90000000000+90625000000
1000+89375000000+86875000000+80937500000+72187500000+65625000000+62187500000
968+61875000000+65312500000+72500000000+83437500000+90312500000+92187500000
937+92187500000+92500000000+92812500000+93437500000+93437500000+93437500000
905+92812500000+92187500000+90937500000+89062500000+87187500000+85625000000
874+84687500000+84687500000+85937500000+89062500000+90625000000+90625000000
842+89687500000+88750000000+87500000000+86562500000+84062500000+81875000000
811+81875000000+83750000000+87187500000+88750000000+89375000000+90000000000
779+90312500000+90312500000+89687500000+88437500000+87187500000+85625000000
747+83125000000+80937500000+78437500000+76562500000+75000000000+73750000000
716+73437500000+73437500000+73437500000+74062500000+75937500000+77187500000
684+78125000000+77812500000+70000000000+63437500000+64375000000+77187500000
653+79687500000+78125000000+74062500000+68750000000+63750000000+61250000000
621+60937500000+61875000000+66875000000+73750000000+79062500000+84062500000
589+87500000000+89062500000+90000000000+90625000000+90625000000+90937500000
558+90937500000+91250000000+91562500000+91875000000+92187500000+92500000000
526+92812500000+93125000000+93125000000+93437500000+93125000000+92187500000
495+90937500000+89687500000+88437500000+87500000000+86875000000+86562500000
463+86250000000+85625000000+85312500000+85000000000+85000000000+84687500000
432+84375000000+83750000000+83437500000+82500000000+81875000000+81562500000
400+81250000000
##END=
