##TITLE=4-methyl-2-pentanone
##JCAMP-DX=4.24
##DATA TYPE=INFRARED SPECTRUM
##DATE=10/06/2025
##SAMPLING PROCEDURE=ATR
##ORIGIN=SDBS
##XUNITS=1/CM
##YUNITS=TRANSMITTANCE
##RESOLUTION=5.2631578947368425
##FIRSTX=4000.0
##LASTX=400.0
##DELTAX=-5.2631578947368425
##MAXY=95.0
##MINY=0.0
##XFACTOR=1
##YFACTOR=1
##NPOINTS=685
##FIRSTY=0.0
##XYDATA=(X++(Y..Y))
4000+0+91562500000+91562500000+91875000000+91875000000+91875000000
3968+92187500000+92187500000+92187500000+92187500000+92187500000+91875000000
3937+91875000000+91875000000+91875000000+91875000000+91875000000+92187500000
3905+92187500000+92187500000+92187500000+92187500000+92187500000+92187500000
3874+92187500000+92187500000+92187500000+92187500000+92187500000+92187500000
3842+92187500000+92500000000+92500000000+92500000000+92812500000+92500000000
3811+92500000000+92500000000+92187500000+91875000000+91562500000+91250000000
3779+90937500000+90312500000+90000000000+89375000000+88750000000+88437500000
3747+88125000000+88125000000+87812500000+87812500000+87812500000+88125000000
3716+88125000000+88125000000+88125000000+87812500000+87500000000+87500000000
3684+87187500000+87187500000+87187500000+87187500000+87187500000+87187500000
3653+87500000000+87812500000+88125000000+88125000000+88437500000+88437500000
3621+88437500000+88125000000+87187500000+86250000000+85000000000+84687500000
3589+84687500000+85000000000+85937500000+87500000000+88750000000+89375000000
3558+90000000000+90312500000+90625000000+90625000000+90937500000+90937500000
3526+90937500000+90937500000+90937500000+90937500000+90937500000+90937500000
3495+90937500000+90937500000+91250000000+90937500000+90937500000+90625000000
3463+90625000000+90312500000+90000000000+90000000000+89687500000+89687500000
3432+89687500000+89687500000+90000000000+90000000000+90312500000+90312500000
3400+90312500000+90312500000+90312500000+90312500000+90000000000+89687500000
3368+89375000000+89062500000+88437500000+88125000000+87812500000+87500000000
3337+86562500000+85625000000+83750000000+80625000000+74687500000+68437500000
3305+65937500000+60625000000+45312500000+30312500000+15937500000+10625000000
3274+10625000000+18750000000+27500000000+27812500000+30937500000+36875000000
3242+38749999999+42187500000+43750000000+42187500000+29375000000+28437500000
3211+44687500000+63437500000+72500000000+76875000000+79687500000+80937500000
3179+82812500000+83437500000+85937500000+86875000000+87812500000+88750000000
3147+89687500000+90000000000+90625000000+90625000000+90000000000+89375000000
3116+89375000000+89375000000+90625000000+91562500000+92187500000+92187500000
3084+92500000000+92500000000+92500000000+92187500000+91875000000+91875000000
3053+92187500000+92500000000+92812500000+92812500000+93125000000+93125000000
3021+93125000000+93125000000+93125000000+93125000000+93125000000+93125000000
2989+93125000000+93125000000+93125000000+93125000000+93437500000+93437500000
2958+93437500000+93437500000+93750000000+93750000000+93750000000+93750000000
2926+93750000000+93750000000+94062500000+94062500000+93750000000+93750000000
2895+93750000000+93750000000+93750000000+93750000000+94062500000+94062500000
2863+94062500000+94062500000+94062500000+94062500000+94062500000+93750000000
2832+93750000000+93750000000+93750000000+93750000000+94062500000+94062500000
2800+94375000000+94375000000+94375000000+94375000000+94375000000+94375000000
2768+94375000000+94062500000+93750000000+93750000000+93750000000+93750000000
2737+93750000000+93750000000+94062500000+94062500000+94062500000+94062500000
2705+94062500000+94062500000+94375000000+94375000000+94375000000+94687500000
2674+94687500000+94687500000+94687500000+94687500000+94687500000+94687500000
2642+95000000000+94687500000+94687500000+94687500000+94687500000+94687500000
2611+94687500000+94687500000+94687500000+94687500000+94687500000+94687500000
2579+94687500000+94687500000+94687500000+94687500000+94687500000+94375000000
2547+94375000000+94375000000+94375000000+94687500000+94687500000+94687500000
2516+94687500000+94687500000+94687500000+94687500000+94687500000+94375000000
2484+94375000000+94375000000+94375000000+94375000000+94375000000+94375000000
2453+94375000000+94375000000+94375000000+94375000000+94375000000+94375000000
2421+94375000000+94375000000+94375000000+94062500000+94062500000+94062500000
2389+93750000000+93750000000+93437500000+93125000000+92812500000+92500000000
2358+91875000000+91875000000+91250000000+90937500000+90312500000+89687500000
2326+89062500000+88125000000+87500000000+86875000000+86562500000+85937500000
2295+85000000000+83750000000+82812500000+81562500000+80000000000+77812500000
2263+75312500000+71250000000+65937500000+56875000000+44999999999+27500000000
2232+11562500000+5625000000+4687500000+4687500000+5000000000+6562500000
2200+12187500000+23750000000+38437500000+50000000000+60937500000+67187500000
2168+71250000000+72500000000+74687500000+77187500000+79687500000+82187500000
2137+83750000000+85312500000+85937500000+86250000000+86562500000+86562500000
2105+86875000000+87187500000+87500000000+87812500000+88437500000+89062500000
2074+89375000000+89687500000+90000000000+90000000000+90312500000+90625000000
2042+90625000000+90625000000+90937500000+90937500000+90937500000+90937500000
2011+90625000000+90625000000+90312500000+90000000000+90000000000+89687500000
1979+89687500000+89375000000+89375000000+89062500000+89062500000+89062500000
1947+88750000000+88437500000+88125000000+87812500000+87187500000+86562500000
1916+85625000000+84062500000+82812500000+80312500000+77187500000+69687500000
1884+53437500000+38749999999+38437500000+40312499999+46250000000+52812500000
1853+53750000000+54375000000+58125000000+58437500000+55625000000+51562500000
1821+48750000000+47500000000+47812500000+49375000000+50937500000+47500000000
1789+45625000000+47187500000+54375000000+60312500000+56250000000+50312500000
1758+49062500000+47187500000+36250000000+21250000000+14375000000+14375000000
1726+16875000000+20312500000+24687500000+30625000000+40625000000+52500000000
1695+59375000000+61875000000+62500000000+68750000000+75625000000+79062500000
1663+80625000000+82187500000+83125000000+81875000000+78437500000+69375000000
1632+59687500000+59375000000+61562500000+63437500000+63125000000+66250000000
1600+74375000000+80937500000+83750000000+85312500000+84687500000+81562500000
1568+74062500000+62500000000+57187500000+58125000000+68437500000+75937500000
1537+80000000000+82500000000+83125000000+80625000000+74375000000+66562500000
1505+64687500000+65312500000+63437500000+57812500000+54687500000+50312500000
1474+41562500000+31875000000+27500000000+28125000000+35000000000+46875000000
1442+56875000000+64687500000+70937500000+76250000000+80312500000+81562500000
1411+79375000000+72500000000+67187500000+65625000000+65000000000+65625000000
1379+72812500000+76562500000+80000000000+84375000000+87500000000+89062500000
1347+90625000000+91562500000+92187500000+92500000000+92812500000+92812500000
1316+92812500000+92812500000+92500000000+92500000000+92500000000+92500000000
1284+92500000000+92187500000+92187500000+92187500000+92187500000+92187500000
1253+91875000000+91562500000+90937500000+90312500000+89375000000+87500000000
1221+85625000000+84687500000+84375000000+83437500000+81875000000+80937500000
1189+80625000000+80937500000+82187500000+82500000000+80312500000+76250000000
1158+71562500000+71250000000+73125000000+76250000000+80312500000+84062500000
1126+84375000000+83437500000+83437500000+87500000000+90625000000+91875000000
1095+92500000000+93125000000+93125000000+93437500000+93125000000+93125000000
1063+93125000000+93125000000+93125000000+93125000000+93437500000+93437500000
1032+93437500000+93125000000+92500000000+90937500000+88125000000+87500000000
1000+87812500000+89062500000+89375000000+90000000000+91250000000+91875000000
968+92500000000+93125000000+93125000000+93437500000+93125000000+93125000000
937+93125000000+93125000000+93125000000+93437500000+93437500000+93750000000
905+94062500000+94062500000+94375000000+94375000000+94375000000+94687500000
874+94687500000+94687500000+94687500000+95000000000+95000000000+95000000000
842+94687500000+94687500000+94687500000+94687500000+94687500000+94687500000
811+94687500000+94687500000+94687500000+94687500000+94687500000+94687500000
779+94687500000+94375000000+94375000000+94687500000+94687500000+94375000000
747+94375000000+94062500000+93750000000+93437500000+93125000000+92812500000
716+92812500000+92812500000+92812500000+92812500000+92500000000+91875000000
684+90625000000+87500000000+79375000000+60000000000+48124999999+53437500000
653+74375000000+83437500000+85625000000+87187500000+88125000000+89062500000
621+89687500000+90312500000+90625000000+90625000000+90000000000+89062500000
589+86562500000+82812500000+74062500000+70937500000+71875000000+78437500000
558+84062500000+86875000000+88437500000+89375000000+89687500000+89687500000
526+89375000000+89375000000+89062500000+89062500000+88750000000+88750000000
495+89062500000+89062500000+89062500000+89062500000+89062500000+88437500000
463+87812500000+86875000000+85625000000+84375000000+83437500000+82500000000
432+81562500000+81250000000+81250000000+81875000000+83125000000+84062500000
400+85000000000
##END=
