##TITLE=4-methyl-1-pentene
##JCAMP-DX=4.24
##DATA TYPE=INFRARED SPECTRUM
##DATE=10/06/2025
##SAMPLING PROCEDURE=ATR
##ORIGIN=SDBS
##XUNITS=1/CM
##YUNITS=TRANSMITTANCE
##RESOLUTION=5.2631578947368425
##FIRSTX=4000.0
##LASTX=400.0
##DELTAX=-5.2631578947368425
##MAXY=95.0
##MINY=0.0
##XFACTOR=1
##YFACTOR=1
##NPOINTS=685
##FIRSTY=0.0
##XYDATA=(X++(Y..Y))
4000+0+94062500000+94062500000+94062500000+94375000000+94375000000
3968+94375000000+94375000000+94375000000+94375000000+94375000000+94375000000
3937+94375000000+94375000000+94375000000+94375000000+94375000000+94375000000
3905+94375000000+94375000000+94375000000+94062500000+94062500000+94062500000
3874+94062500000+94375000000+94062500000+94062500000+94062500000+94062500000
3842+94062500000+94062500000+94062500000+94375000000+94375000000+94375000000
3811+94687500000+94687500000+94375000000+94375000000+94375000000+94687500000
3779+94687500000+94687500000+95000000000+94687500000+94687500000+94687500000
3747+94687500000+94687500000+94687500000+94687500000+94687500000+94375000000
3716+94375000000+94375000000+94062500000+94062500000+94062500000+94062500000
3684+94062500000+93750000000+93437500000+93125000000+92812500000+92500000000
3653+92187500000+92187500000+92187500000+91875000000+91875000000+91562500000
3621+91562500000+91562500000+91875000000+91875000000+92187500000+92187500000
3589+92187500000+92187500000+92187500000+92187500000+92500000000+92500000000
3558+92500000000+92187500000+92187500000+92187500000+91875000000+91875000000
3526+91562500000+91562500000+91562500000+91875000000+91875000000+92187500000
3495+92187500000+92500000000+92500000000+92500000000+92187500000+91875000000
3463+90937500000+90312500000+89687500000+89062500000+88750000000+88437500000
3432+88125000000+88125000000+88437500000+88750000000+89062500000+89062500000
3400+89375000000+89375000000+88437500000+86875000000+83125000000+75937500000
3368+56562500000+33125000000+31875000000+48750000000+55625000000+70625000000
3337+78437500000+79375000000+76875000000+72187500000+60000000000+50312500000
3305+45625000000+39062500000+21250000000+13125000000+6250000000+4687500000
3274+4687500000+7500000000+14687500000+13437500000+13437500000+14687500000
3242+13125000000+12812500000+14062500000+20000000000+16562500000+16250000000
3211+23437500000+40000000000+48437500000+43125000000+44999999999+59687500000
3179+68125000000+75000000000+80937500000+83125000000+84687500000+85312500000
3147+87812500000+88437500000+88437500000+89375000000+89062500000+86250000000
3116+86250000000+86250000000+89375000000+90625000000+91250000000+91875000000
3084+91875000000+91875000000+91562500000+90625000000+89375000000+89375000000
3053+90312500000+91250000000+91875000000+91562500000+90937500000+90937500000
3021+91562500000+92187500000+92187500000+92500000000+92500000000+92500000000
2989+92812500000+93125000000+93437500000+93750000000+93437500000+93437500000
2958+93437500000+93437500000+93750000000+93750000000+94062500000+93750000000
2926+93750000000+93750000000+94062500000+94062500000+94062500000+94375000000
2895+94375000000+94375000000+94062500000+94062500000+93750000000+93750000000
2863+94062500000+94062500000+94062500000+94062500000+94375000000+94375000000
2832+94375000000+94375000000+94375000000+94062500000+94062500000+94062500000
2800+94062500000+94062500000+94062500000+94062500000+94375000000+94375000000
2768+94687500000+94375000000+94375000000+94062500000+94375000000+94375000000
2737+94375000000+94687500000+94687500000+94687500000+94687500000+94687500000
2705+94687500000+94687500000+94687500000+94687500000+94687500000+94687500000
2674+94687500000+94687500000+94687500000+94687500000+94687500000+94687500000
2642+94687500000+94687500000+94687500000+95000000000+94687500000+94375000000
2611+94375000000+94062500000+93750000000+92812500000+92187500000+92187500000
2579+92187500000+93125000000+93750000000+94062500000+94375000000+94375000000
2547+94375000000+94375000000+94375000000+94375000000+94375000000+94375000000
2516+94375000000+94375000000+94375000000+94062500000+94062500000+94062500000
2484+94062500000+93750000000+93750000000+93750000000+93750000000+93750000000
2453+93750000000+93437500000+93437500000+93437500000+93437500000+93125000000
2421+93125000000+92812500000+92500000000+91562500000+90312500000+88750000000
2389+86250000000+82812500000+78750000000+77187500000+77187500000+80312500000
2358+84062500000+87500000000+89687500000+91250000000+92187500000+92812500000
2326+93125000000+93125000000+93437500000+93437500000+93437500000+93750000000
2295+93750000000+93750000000+93750000000+93437500000+93437500000+93437500000
2263+93437500000+93125000000+93125000000+93125000000+93125000000+93125000000
2232+92812500000+92812500000+92812500000+92812500000+92500000000+92500000000
2200+92187500000+92187500000+92187500000+91875000000+91562500000+91562500000
2168+90937500000+90625000000+90000000000+89062500000+87812500000+85937500000
2137+82187500000+75625000000+63437500000+35937500000+27812500000+35312500000
2105+62812500000+76875000000+83750000000+85625000000+85625000000+85625000000
2074+86250000000+88437500000+90000000000+90937500000+91562500000+91875000000
2042+92187500000+92187500000+92187500000+92187500000+92187500000+92187500000
2011+91875000000+91875000000+91562500000+91250000000+90937500000+90625000000
1979+90312500000+90000000000+89687500000+89375000000+89375000000+89375000000
1947+89062500000+88750000000+88437500000+87812500000+87187500000+85937500000
1916+84687500000+82187500000+79375000000+75000000000+69687500000+60625000000
1884+46562499999+32812500000+26562500000+26875000000+31875000000+40312499999
1853+44999999999+51250000000+52812500000+48750000000+48750000000+58125000000
1821+69062500000+73437500000+71875000000+68125000000+67812500000+73125000000
1789+78437500000+79687500000+77500000000+73437500000+64062500000+44062500000
1758+38125000000+47187500000+62500000000+51250000000+40937500000+42187500000
1726+64062500000+76875000000+82187500000+82812500000+79375000000+74062500000
1695+70312500000+70312500000+73750000000+81562500000+85937500000+87812500000
1663+88437500000+88125000000+87500000000+87187500000+86875000000+87187500000
1632+87812500000+89062500000+89062500000+87500000000+85312500000+85000000000
1600+85000000000+87187500000+89375000000+90312500000+90625000000+90000000000
1568+88750000000+87187500000+85000000000+83750000000+84375000000+88437500000
1537+90625000000+91250000000+91562500000+91875000000+91875000000+92187500000
1505+91875000000+91562500000+90937500000+90000000000+88437500000+86875000000
1474+82187500000+76250000000+67500000000+66562500000+69062500000+77500000000
1442+82812500000+86562500000+88437500000+90000000000+91250000000+91562500000
1411+91250000000+90937500000+90312500000+89062500000+86562500000+86562500000
1379+88750000000+89687500000+88750000000+88125000000+88125000000+89375000000
1347+91250000000+92500000000+92812500000+92812500000+92500000000+91875000000
1316+90937500000+89687500000+87812500000+85625000000+82812500000+79062500000
1284+76562500000+76562500000+80000000000+83437500000+86250000000+85937500000
1253+84375000000+81875000000+77500000000+70625000000+61250000000+45312500000
1221+30625000000+29375000000+38437500000+56562500000+70625000000+76875000000
1189+77812500000+77500000000+77812500000+80625000000+82187500000+82500000000
1158+83437500000+83125000000+81875000000+78750000000+74375000000+67812500000
1126+59687500000+46875000000+31250000000+17500000000+13437500000+13437500000
1095+20625000000+39687500000+57187500000+69687500000+77187500000+81250000000
1063+82500000000+81562500000+79062500000+77500000000+79375000000+85625000000
1032+89062500000+90625000000+90937500000+91250000000+90937500000+90625000000
1000+89375000000+87500000000+82812500000+78750000000+79687500000+83125000000
968+84375000000+88750000000+91562500000+92812500000+93437500000+93125000000
937+93125000000+93125000000+93750000000+94062500000+94062500000+94375000000
905+94687500000+94687500000+94687500000+95000000000+95000000000+94687500000
874+94687500000+94687500000+94375000000+94062500000+93125000000+92812500000
842+92187500000+92500000000+92812500000+92812500000+92812500000+93125000000
811+93125000000+93125000000+93125000000+93125000000+92812500000+92812500000
779+92500000000+92187500000+91875000000+90937500000+89687500000+88437500000
747+86875000000+86562500000+86562500000+86250000000+83750000000+79687500000
716+74062500000+71562500000+68437500000+67812500000+69375000000+75625000000
684+81250000000+85625000000+88125000000+90000000000+90625000000+91562500000
653+91875000000+92187500000+92500000000+92500000000+92187500000+92187500000
621+92187500000+92187500000+92187500000+92500000000+92500000000+92812500000
589+92812500000+93125000000+93125000000+93125000000+93125000000+93125000000
558+93125000000+92812500000+92500000000+92500000000+92187500000+92187500000
526+92187500000+92500000000+92500000000+92500000000+92500000000+92187500000
495+91875000000+91562500000+91250000000+90937500000+90937500000+90937500000
463+90937500000+90937500000+90625000000+90625000000+90312500000+90000000000
432+89375000000+88750000000+88437500000+88125000000+87812500000+87500000000
400+87500000000
##END=
