##TITLE=4-methyl-2-pentanol
##JCAMP-DX=4.24
##DATA TYPE=INFRARED SPECTRUM
##DATE=10/06/2025
##SAMPLING PROCEDURE=ATR
##ORIGIN=SDBS
##XUNITS=1/CM
##YUNITS=TRANSMITTANCE
##RESOLUTION=5.2631578947368425
##FIRSTX=4000.0
##LASTX=400.0
##DELTAX=-5.2631578947368425
##MAXY=94.6875
##MINY=0.0
##XFACTOR=1
##YFACTOR=1
##NPOINTS=685
##FIRSTY=0.0
##XYDATA=(X++(Y..Y))
4000+0+92812500000+92812500000+92812500000+93125000000+92812500000
3968+92812500000+92500000000+92500000000+92500000000+92500000000+92500000000
3937+92187500000+92187500000+92187500000+92187500000+92187500000+92187500000
3905+92187500000+92187500000+92187500000+91875000000+91875000000+91875000000
3874+91875000000+91875000000+91562500000+91562500000+91562500000+91875000000
3842+91875000000+91875000000+91875000000+91875000000+91562500000+91562500000
3811+91562500000+91562500000+91562500000+91250000000+90312500000+88125000000
3779+87500000000+87500000000+87812500000+88125000000+88125000000+86875000000
3747+85625000000+84062500000+83125000000+82500000000+82187500000+81250000000
3716+80312500000+78437500000+76562500000+74062500000+71562500000+69375000000
3684+66562500000+63125000000+59687500000+56875000000+53750000000+50312500000
3653+47187500000+44375000000+41562500000+38437500000+35312500000+33125000000
3621+30312500000+28437500000+25937500000+24687500000+23125000000+21250000000
3589+20000000000+19062500000+17812500000+17187500000+16562500000+16250000000
3558+15937500000+15625000000+15625000000+15625000000+15937500000+16250000000
3526+16562500000+17187500000+17812500000+18750000000+19687500000+20625000000
3495+21875000000+23437500000+25312500000+27187500000+29062500000+30937500000
3463+33125000000+35625000000+37500000000+40000000000+42187500000+44999999999
3432+46875000000+50000000000+52812500000+55312500000+57500000000+60000000000
3400+62500000000+64687500000+66250000000+68125000000+70000000000+71875000000
3368+72812500000+74062500000+75000000000+75937500000+76562500000+77187500000
3337+77500000000+77500000000+77187500000+75937500000+73750000000+70312500000
3305+63437500000+50000000000+29062500000+13750000000+5937500000+4687500000
3274+4687500000+8125000000+13125000000+11875000000+11250000000+11250000000
3242+12187500000+15937500000+19687500000+23125000000+20625000000+17812500000
3211+21875000000+39062500000+45625000000+50937500000+53437500000+58125000000
3179+63750000000+66875000000+70625000000+73750000000+75625000000+77500000000
3147+79062500000+79687500000+80000000000+80937500000+80000000000+78437500000
3116+77187500000+77187500000+79062500000+80937500000+82187500000+82500000000
3084+82500000000+82812500000+83125000000+83125000000+83125000000+83437500000
3053+83750000000+84062500000+84375000000+85000000000+85312500000+85625000000
3021+85625000000+85937500000+86562500000+87500000000+87812500000+88125000000
2989+88125000000+88437500000+88437500000+88750000000+89062500000+89375000000
2958+89687500000+90000000000+90312500000+90625000000+90625000000+90625000000
2926+90625000000+90625000000+90625000000+90625000000+90625000000+90937500000
2895+91250000000+91562500000+91562500000+91562500000+91562500000+91562500000
2863+91875000000+91875000000+92187500000+92187500000+92500000000+92812500000
2832+92812500000+93125000000+92812500000+92812500000+93125000000+93125000000
2800+93125000000+93125000000+93125000000+93125000000+93125000000+93125000000
2768+93125000000+93125000000+93125000000+93125000000+93125000000+93125000000
2737+93125000000+93125000000+93125000000+93437500000+93437500000+93437500000
2705+93750000000+93750000000+94062500000+94062500000+94062500000+94375000000
2674+94375000000+94375000000+94375000000+94375000000+94375000000+94687500000
2642+94687500000+94687500000+94687500000+94687500000+94687500000+94687500000
2611+94375000000+94375000000+94062500000+94062500000+94062500000+94062500000
2579+94062500000+94062500000+94062500000+94062500000+94375000000+94375000000
2547+94375000000+94375000000+94375000000+94375000000+94375000000+94375000000
2516+94375000000+94375000000+94375000000+94375000000+94375000000+94375000000
2484+94687500000+94375000000+94375000000+94375000000+94375000000+94375000000
2453+94375000000+94375000000+94375000000+94687500000+94687500000+94687500000
2421+94375000000+94375000000+94375000000+94375000000+94375000000+94375000000
2389+94687500000+94687500000+94687500000+94687500000+94687500000+94687500000
2358+94375000000+94375000000+94375000000+94375000000+94375000000+94375000000
2326+94375000000+94375000000+94375000000+94375000000+94687500000+94375000000
2295+94375000000+94375000000+94062500000+94062500000+94062500000+93750000000
2263+93750000000+93750000000+93750000000+93750000000+93437500000+92812500000
2232+92500000000+91875000000+91562500000+91562500000+91250000000+91250000000
2200+91250000000+91562500000+91562500000+91562500000+91250000000+91250000000
2168+91250000000+90937500000+90625000000+90312500000+90312500000+90000000000
2137+89687500000+89375000000+89375000000+89375000000+89375000000+89375000000
2105+89687500000+90000000000+90312500000+90937500000+91562500000+92187500000
2074+92187500000+92500000000+92812500000+92812500000+93125000000+93125000000
2042+93437500000+93437500000+93437500000+93437500000+93437500000+93437500000
2011+93437500000+93437500000+93125000000+93125000000+92812500000+92812500000
1979+92500000000+92187500000+91875000000+91250000000+90625000000+90312500000
1947+89687500000+88750000000+87812500000+86562500000+85625000000+84687500000
1916+83750000000+81562500000+78437500000+73750000000+67500000000+57500000000
1884+41250000000+27812500000+26562500000+31562500000+34375000000+35937500000
1853+36562500000+44999999999+52500000000+59062500000+60937500000+58125000000
1821+55000000000+55000000000+54687500000+53750000000+53437500000+53437500000
1789+53750000000+55312500000+57500000000+59062500000+55312500000+40312499999
1758+37187499999+40000000000+31875000000+30000000000+26875000000+26875000000
1726+39687500000+52500000000+57812500000+60312500000+56875000000+56562500000
1695+59375000000+60312500000+59687500000+60312500000+60000000000+57500000000
1663+55625000000+55312500000+55625000000+56875000000+58750000000+60937500000
1632+63437500000+66250000000+68125000000+70000000000+69062500000+68437500000
1600+69062500000+71875000000+75312500000+77500000000+79375000000+79375000000
1568+78437500000+76875000000+74375000000+72500000000+72500000000+73125000000
1537+75312500000+78437500000+81562500000+83437500000+85000000000+86250000000
1505+86875000000+87187500000+87187500000+86250000000+85312500000+83750000000
1474+80312500000+70312500000+65312500000+64375000000+52500000000+37500000000
1442+29062500000+28750000000+32187500000+42500000000+44375000000+44062500000
1411+46562499999+49062500000+42812500000+35625000000+33125000000+33125000000
1379+35312500000+40625000000+49687499999+59375000000+67187500000+71562500000
1347+75312500000+78125000000+79687500000+78750000000+74062500000+64062500000
1316+48750000000+32500000000+29687500000+30000000000+36250000000+48124999999
1284+61875000000+70937500000+75937500000+73750000000+65937500000+51562500000
1253+40000000000+39375000000+45312500000+63125000000+76250000000+83125000000
1221+87187500000+89687500000+90937500000+89062500000+85000000000+76250000000
1189+73125000000+72812500000+74375000000+82812500000+88437500000+89687500000
1158+90937500000+89687500000+86250000000+77187500000+55312500000+43750000000
1126+41562500000+40625000000+45312500000+48750000000+69687500000+83750000000
1095+90000000000+92812500000+94062500000+93125000000+90625000000+84375000000
1063+72500000000+65937500000+70312500000+85000000000+89375000000+91250000000
1032+92812500000+91875000000+90312500000+89062500000+87187500000+84375000000
1000+79062500000+66250000000+53437500000+52812500000+60000000000+69375000000
968+80625000000+84687500000+88125000000+90312500000+90625000000+90625000000
937+90312500000+90000000000+89687500000+89375000000+89062500000+88750000000
905+88125000000+87500000000+87187500000+86562500000+85625000000+85000000000
874+83750000000+83125000000+82500000000+81875000000+81250000000+80625000000
842+80000000000+79687500000+78750000000+78125000000+77187500000+76250000000
811+75312500000+74687500000+74062500000+73750000000+73125000000+72812500000
779+72500000000+72187500000+71875000000+71562500000+71250000000+70937500000
747+70625000000+70625000000+70625000000+70625000000+70937500000+70937500000
716+71250000000+71562500000+71562500000+71875000000+72187500000+72500000000
684+73125000000+73437500000+74062500000+74687500000+75000000000+75625000000
653+75937500000+76250000000+76562500000+77187500000+77812500000+78437500000
621+79375000000+80312500000+81250000000+82500000000+83437500000+84375000000
589+85000000000+85625000000+85625000000+85312500000+84687500000+84062500000
558+83125000000+80625000000+79062500000+77500000000+77500000000+77812500000
526+77812500000+78125000000+78750000000+79687500000+80625000000+81875000000
495+83437500000+85000000000+85937500000+86875000000+87500000000+88125000000
463+88750000000+89062500000+88437500000+86875000000+85000000000+82187500000
432+79687500000+77500000000+76250000000+75625000000+75000000000+75000000000
400+74687500000
##END=
