##TITLE=5,5'-dithiobis(2-nitrobenzoic acid)
##JCAMP-DX=4.24
##DATA TYPE=INFRARED SPECTRUM
##DATE=10/06/2025
##SAMPLING PROCEDURE=ATR
##ORIGIN=SDBS
##XUNITS=1/CM
##YUNITS=TRANSMITTANCE
##RESOLUTION=5.2631578947368425
##FIRSTX=4000.0
##LASTX=400.0
##DELTAX=-5.2631578947368425
##MAXY=95.0
##MINY=0.0
##XFACTOR=1
##YFACTOR=1
##NPOINTS=685
##FIRSTY=0.0
##XYDATA=(X++(Y..Y))
4000+0+83437500000+83437500000+83750000000+83750000000+83750000000
3968+83750000000+83750000000+83750000000+83750000000+83750000000+83750000000
3937+83750000000+83750000000+83750000000+83750000000+83750000000+83750000000
3905+83750000000+83750000000+83750000000+83750000000+83750000000+83750000000
3874+84062500000+84062500000+84062500000+84375000000+84375000000+84375000000
3842+84687500000+84375000000+84375000000+84062500000+84062500000+84062500000
3811+84375000000+84375000000+84687500000+84687500000+85000000000+85000000000
3779+85000000000+85312500000+85312500000+85312500000+85312500000+85312500000
3747+85312500000+85312500000+85312500000+85312500000+85312500000+85625000000
3716+85625000000+85937500000+85937500000+85937500000+86250000000+86250000000
3684+86562500000+86250000000+86250000000+86250000000+85937500000+85937500000
3653+85625000000+85312500000+85000000000+84375000000+83750000000+83125000000
3621+82187500000+81250000000+79687500000+77812500000+75625000000+74687500000
3589+74687500000+75937500000+77500000000+78750000000+79375000000+80000000000
3558+80312500000+80625000000+81250000000+81562500000+81875000000+82187500000
3526+82500000000+82500000000+82500000000+82500000000+82187500000+82187500000
3495+81875000000+81875000000+81562500000+81250000000+80937500000+80625000000
3463+80000000000+79375000000+78750000000+78437500000+77812500000+77187500000
3432+76875000000+75937500000+75625000000+75312500000+74687500000+74062500000
3400+72812500000+72500000000+71875000000+70625000000+68125000000+64375000000
3368+64687500000+65937500000+65000000000+64062500000+62500000000+62500000000
3337+62187500000+61250000000+59375000000+58750000000+56875000000+55000000000
3305+51875000000+46875000000+38125000000+28125000000+16562500000+11250000000
3274+10625000000+11250000000+8125000000+5312500000+4687500000+5000000000
3242+8125000000+11250000000+14687500000+18437500000+19687500000+17187500000
3211+14375000000+11250000000+11562500000+20625000000+37812500000+49375000000
3179+55937500000+60000000000+62187500000+63750000000+65937500000+67187500000
3147+68750000000+70000000000+70937500000+71562500000+71875000000+71875000000
3116+72187500000+72812500000+73125000000+73125000000+72500000000+72187500000
3084+71875000000+71562500000+71250000000+71250000000+71250000000+71250000000
3053+71250000000+71562500000+71875000000+72187500000+73125000000+73750000000
3021+74687500000+75000000000+75312500000+75312500000+75312500000+74687500000
2989+73750000000+73437500000+73437500000+73750000000+74375000000+75312500000
2958+76250000000+77187500000+78437500000+79062500000+79687500000+80312500000
2926+80937500000+81562500000+81875000000+82187500000+82500000000+82812500000
2895+83125000000+83437500000+83750000000+84375000000+84687500000+85000000000
2863+85312500000+85937500000+85937500000+86250000000+86562500000+87187500000
2832+87187500000+87500000000+87500000000+87812500000+88125000000+88437500000
2800+88750000000+89062500000+89062500000+89375000000+89375000000+89687500000
2768+89687500000+90312500000+90312500000+90625000000+90937500000+91250000000
2737+91250000000+91250000000+91250000000+91562500000+91562500000+91875000000
2705+91875000000+92187500000+92187500000+92500000000+92500000000+92500000000
2674+92812500000+92812500000+93125000000+93125000000+93437500000+93437500000
2642+93437500000+93437500000+93437500000+93437500000+93437500000+93437500000
2611+93437500000+93750000000+93750000000+93750000000+94062500000+94062500000
2579+94062500000+94062500000+94375000000+94375000000+94375000000+94375000000
2547+94062500000+94062500000+94062500000+94062500000+94375000000+94375000000
2516+94375000000+94375000000+94687500000+94687500000+94687500000+94687500000
2484+94687500000+94687500000+94687500000+94687500000+94687500000+94687500000
2453+94375000000+94375000000+94375000000+94375000000+94375000000+94375000000
2421+94375000000+94375000000+94375000000+94375000000+94687500000+94687500000
2389+94687500000+94687500000+95000000000+94687500000+94687500000+94687500000
2358+94375000000+94375000000+94375000000+94375000000+94375000000+94375000000
2326+94375000000+94687500000+94687500000+94687500000+94687500000+94375000000
2295+94062500000+93437500000+92812500000+91875000000+90937500000+90000000000
2263+88125000000+85937500000+83125000000+78437500000+70937500000+60000000000
2232+53437500000+46562499999+38749999999+36250000000+35937500000+35000000000
2200+35000000000+35312500000+38125000000+43437499999+52187500000+58125000000
2168+63437500000+67187500000+70625000000+73750000000+75937500000+77500000000
2137+78437500000+79687500000+80937500000+82187500000+83437500000+84375000000
2105+85625000000+86562500000+87500000000+88125000000+88750000000+89375000000
2074+88750000000+79062500000+78437500000+80937500000+75625000000+75937500000
2042+84062500000+85937500000+83750000000+71250000000+60000000000+56250000000
2011+56250000000+63750000000+74062500000+78125000000+70625000000+49375000000
1979+44062500000+42500000000+36875000000+34687500000+35312500000+36875000000
1947+40312499999+51250000000+64375000000+70312500000+73750000000+76250000000
1916+77812500000+78125000000+75625000000+72812500000+70000000000+62812500000
1884+56875000000+46875000000+37812500000+37812500000+38125000000+39687500000
1853+41874999999+48124999999+53125000000+57500000000+60625000000+62500000000
1821+59062500000+51875000000+50000000000+50625000000+57812500000+63125000000
1789+66250000000+70625000000+74062500000+75312500000+69687500000+59062500000
1758+50937500000+40937500000+38437500000+40937500000+47500000000+48750000000
1726+53750000000+53437500000+52187500000+51875000000+51875000000+52187500000
1695+50000000000+50000000000+58750000000+69687500000+74375000000+76250000000
1663+72812500000+66875000000+64375000000+58750000000+51562500000+50937500000
1632+51250000000+51562500000+50000000000+50000000000+54375000000+64687500000
1600+65312500000+60000000000+60312500000+64062500000+67500000000+68750000000
1568+65937500000+64062500000+63750000000+64062500000+65312500000+67500000000
1537+70312500000+73125000000+75625000000+77187500000+78750000000+80312500000
1505+81562500000+82500000000+83125000000+84062500000+84687500000+85625000000
1474+86250000000+86250000000+86250000000+85937500000+84687500000+82812500000
1442+82500000000+77812500000+70625000000+70937500000+80312500000+83750000000
1411+86250000000+87500000000+88437500000+88750000000+88437500000+86875000000
1379+84687500000+81562500000+81562500000+84375000000+88437500000+89687500000
1347+90312500000+90625000000+91250000000+90937500000+89687500000+88125000000
1316+86875000000+86250000000+86562500000+87500000000+89062500000+90000000000
1284+90625000000+90625000000+90937500000+90937500000+90937500000+90937500000
1253+90937500000+90937500000+90937500000+90937500000+90937500000+90937500000
1221+90937500000+90625000000+90625000000+90000000000+89375000000+88750000000
1189+88125000000+87500000000+86875000000+86250000000+85000000000+83437500000
1158+82500000000+81250000000+80312500000+79062500000+78125000000+78125000000
1126+78125000000+78437500000+78750000000+79062500000+78437500000+74375000000
1095+73125000000+74375000000+80937500000+82187500000+83437500000+84375000000
1063+83437500000+76562500000+71250000000+71250000000+77187500000+83125000000
1032+85625000000+86562500000+76562500000+62500000000+64375000000+71250000000
1000+75000000000+72812500000+67500000000+67812500000+76875000000+82812500000
968+85937500000+87500000000+89062500000+90625000000+90937500000+90625000000
937+90000000000+88750000000+86250000000+85000000000+85312500000+90000000000
905+89062500000+88437500000+86250000000+73750000000+73437500000+75937500000
874+80000000000+84687500000+85625000000+86250000000+84375000000+74687500000
842+71250000000+71875000000+78125000000+81250000000+87187500000+88750000000
811+87500000000+87500000000+89687500000+90625000000+90625000000+90000000000
779+89062500000+89062500000+89375000000+90937500000+91250000000+80312500000
747+80937500000+89062500000+86250000000+89375000000+85312500000+83750000000
716+85312500000+89687500000+90625000000+89687500000+89687500000+90312500000
684+90312500000+90625000000+88437500000+87812500000+86875000000+85937500000
653+85625000000+85312500000+85312500000+85937500000+88125000000+89062500000
621+90937500000+91562500000+92500000000+93437500000+93750000000+94375000000
589+94687500000+94687500000+94687500000+94375000000+93750000000+93437500000
558+92812500000+92500000000+92187500000+92187500000+91875000000+91875000000
526+91875000000+92187500000+92187500000+92187500000+92187500000+92187500000
495+92187500000+92187500000+92187500000+91875000000+90937500000+90312500000
463+89687500000+89062500000+88437500000+87500000000+86250000000+84687500000
432+82812500000+80625000000+78750000000+76875000000+75312500000+74375000000
400+73750000000
##END=
