##TITLE=5-bromo-2-thiopheneacrylic acid
##JCAMP-DX=4.24
##DATA TYPE=INFRARED SPECTRUM
##DATE=10/06/2025
##SAMPLING PROCEDURE=ATR
##ORIGIN=SDBS
##XUNITS=1/CM
##YUNITS=TRANSMITTANCE
##RESOLUTION=5.2631578947368425
##FIRSTX=4000.0
##LASTX=400.0
##DELTAX=-5.2631578947368425
##MAXY=94.6875
##MINY=0.0
##XFACTOR=1
##YFACTOR=1
##NPOINTS=685
##FIRSTY=0.0
##XYDATA=(X++(Y..Y))
4000+0+75625000000+75625000000+75625000000+75625000000+75625000000
3968+75625000000+75937500000+76250000000+76250000000+75937500000+75937500000
3937+76250000000+76250000000+76250000000+76250000000+76250000000+75937500000
3905+75937500000+75937500000+76250000000+76250000000+76250000000+76250000000
3874+76250000000+76250000000+76562500000+76875000000+76875000000+76875000000
3842+76875000000+77187500000+77500000000+77500000000+77500000000+77187500000
3811+77187500000+77187500000+77500000000+77812500000+78125000000+78125000000
3779+78125000000+78437500000+78750000000+78750000000+78437500000+78437500000
3747+78437500000+78437500000+78750000000+78750000000+78750000000+79062500000
3716+79375000000+79687500000+79687500000+79687500000+79687500000+79687500000
3684+79687500000+79687500000+79687500000+79375000000+79375000000+79375000000
3653+79375000000+79375000000+79375000000+79375000000+78750000000+78437500000
3621+77500000000+76562500000+76250000000+76250000000+76562500000+77187500000
3589+78125000000+78437500000+78437500000+78437500000+78750000000+78750000000
3558+78437500000+78437500000+78437500000+78437500000+78437500000+78437500000
3526+78437500000+78437500000+78437500000+78437500000+78125000000+78125000000
3495+77812500000+77187500000+76875000000+76562500000+75937500000+75312500000
3463+74687500000+74062500000+73437500000+73125000000+72812500000+72500000000
3432+72187500000+72187500000+71875000000+71562500000+70937500000+70312500000
3400+69687500000+69375000000+68750000000+67500000000+65937500000+58437500000
3368+58437500000+63125000000+62812500000+62187500000+61250000000+60937500000
3337+60625000000+60312500000+59062500000+57812500000+55937500000+53750000000
3305+50937500000+46250000000+39062500000+29687500000+17812500000+12187500000
3274+11562500000+12187500000+8437500000+5312500000+4687500000+5312500000
3242+9062500000+13750000000+17500000000+21562500000+22812500000+20000000000
3211+16562500000+13125000000+13750000000+25625000000+42812500000+51562500000
3179+56250000000+57812500000+59375000000+60312500000+62187500000+64062500000
3147+65000000000+65000000000+65312500000+65625000000+65000000000+64375000000
3116+64062500000+64062500000+65000000000+65000000000+65000000000+64687500000
3084+64375000000+64375000000+64375000000+64687500000+65312500000+65937500000
3053+64375000000+64062500000+64062500000+63437500000+63125000000+63125000000
3021+63125000000+63437500000+64062500000+64375000000+64687500000+64687500000
2989+65000000000+65625000000+65937500000+66250000000+66250000000+66562500000
2958+66875000000+67500000000+67812500000+68125000000+68125000000+68437500000
2926+69375000000+70000000000+70625000000+70937500000+71562500000+71875000000
2895+72187500000+72500000000+72812500000+73125000000+73437500000+73750000000
2863+74375000000+74687500000+75000000000+75312500000+75625000000+75937500000
2832+76250000000+76562500000+76875000000+77500000000+78125000000+78437500000
2800+78750000000+79062500000+79062500000+79375000000+79687500000+79687500000
2768+80000000000+80625000000+80937500000+81250000000+81562500000+81875000000
2737+82187500000+82500000000+82500000000+82500000000+82500000000+82812500000
2705+83125000000+83437500000+83750000000+84375000000+84375000000+84687500000
2674+85000000000+85312500000+85625000000+85937500000+86250000000+86562500000
2642+86875000000+86562500000+86562500000+86562500000+86562500000+86875000000
2611+87187500000+87500000000+87812500000+88125000000+88125000000+88125000000
2579+88437500000+88437500000+88437500000+88437500000+88125000000+88125000000
2547+87812500000+87812500000+87500000000+87500000000+87500000000+87500000000
2516+87500000000+87500000000+87812500000+87812500000+88125000000+88437500000
2484+88750000000+88750000000+89062500000+89062500000+89062500000+89375000000
2453+89375000000+89687500000+89687500000+89687500000+89687500000+89687500000
2421+89687500000+89375000000+89375000000+89687500000+89687500000+89687500000
2389+90000000000+90000000000+89687500000+89687500000+89687500000+89687500000
2358+89687500000+90000000000+90625000000+91562500000+91875000000+92500000000
2326+92812500000+93437500000+93750000000+94062500000+94062500000+94062500000
2295+94062500000+94062500000+94062500000+94375000000+92500000000+88437500000
2263+88437500000+92500000000+92812500000+90937500000+88437500000+87500000000
2232+85000000000+77812500000+67187500000+61250000000+60937500000+61250000000
2200+55312500000+44375000000+37500000000+32812500000+31875000000+31250000000
2168+31562500000+34375000000+37812500000+38749999999+42500000000+48750000000
2137+55625000000+62812500000+68437500000+72500000000+75000000000+73125000000
2105+68437500000+58437500000+47500000000+36875000000+29687500000+27187500000
2074+27500000000+30000000000+34375000000+36875000000+39375000000+42500000000
2042+44999999999+47500000000+50625000000+52187500000+54687500000+56562500000
2011+59375000000+61250000000+63125000000+64375000000+65625000000+66875000000
1979+68125000000+69375000000+70937500000+71875000000+73125000000+58437500000
1947+58750000000+64375000000+68750000000+70937500000+72500000000+73750000000
1916+74375000000+75000000000+75000000000+74375000000+72812500000+69687500000
1884+64062500000+54687500000+45937500000+45625000000+45937500000+47812500000
1853+49375000000+54062500000+54687500000+55937500000+53750000000+50937500000
1821+51562500000+59375000000+65937500000+57500000000+52187500000+46875000000
1789+44687500000+45312500000+50312500000+56250000000+60312500000+60937500000
1758+58437500000+53750000000+52812500000+55625000000+63437500000+64062500000
1726+66250000000+69687500000+69687500000+66875000000+56875000000+50937500000
1695+51250000000+59687500000+68125000000+75000000000+76562500000+77812500000
1663+72187500000+65000000000+60937500000+55625000000+45937500000+44062500000
1632+47812500000+63125000000+63125000000+52500000000+45937500000+35937500000
1600+28125000000+28125000000+29375000000+36562500000+46250000000+56250000000
1568+62500000000+67187500000+56875000000+49062500000+48437500000+52500000000
1537+58750000000+55312500000+39062500000+31250000000+31250000000+34062500000
1505+40937500000+46250000000+50937500000+50937500000+46875000000+48124999999
1474+54062500000+57812500000+60000000000+62187500000+64687500000+65937500000
1442+67812500000+69062500000+69687500000+70312500000+70937500000+71250000000
1411+71562500000+72187500000+72500000000+73125000000+73437500000+74375000000
1379+75000000000+75312500000+76250000000+76875000000+77187500000+77812500000
1347+78125000000+78750000000+79375000000+79687500000+80000000000+80312500000
1316+74375000000+59062500000+55312500000+65000000000+71875000000+74062500000
1284+75937500000+77187500000+77812500000+78125000000+78437500000+78437500000
1253+78750000000+79062500000+79375000000+80000000000+80625000000+81250000000
1221+81875000000+82500000000+76250000000+64375000000+65937500000+74062500000
1189+72187500000+56875000000+53125000000+60625000000+75000000000+78750000000
1158+79687500000+79062500000+78437500000+76875000000+75312500000+74062500000
1126+73437500000+73437500000+73437500000+74375000000+76562500000+78437500000
1095+80000000000+80937500000+81875000000+82812500000+83125000000+80312500000
1063+75312500000+75625000000+80000000000+81875000000+82500000000+83125000000
1032+82187500000+70625000000+69375000000+84062500000+87187500000+88125000000
1000+88750000000+88750000000+88750000000+88437500000+88437500000+88125000000
968+87500000000+86562500000+81875000000+76562500000+55625000000+53750000000
937+58750000000+75937500000+84062500000+86250000000+88437500000+89687500000
905+90312500000+91250000000+92812500000+84062500000+84062500000+89062500000
874+90312500000+90625000000+90312500000+89687500000+88750000000+87500000000
842+84687500000+84062500000+85625000000+79375000000+76875000000+88125000000
811+90937500000+91875000000+91562500000+85312500000+82500000000+82812500000
779+85312500000+88125000000+90000000000+91875000000+92187500000+92187500000
747+92500000000+92500000000+92500000000+92500000000+92500000000+92500000000
716+92812500000+92500000000+90312500000+73750000000+74375000000+85937500000
684+88750000000+90312500000+91250000000+91250000000+90937500000+90937500000
653+90937500000+91250000000+91250000000+91875000000+92187500000+92812500000
621+93437500000+94062500000+94375000000+94687500000+92812500000+85625000000
589+78750000000+66250000000+63125000000+66875000000+76250000000+83125000000
558+86875000000+90000000000+90312500000+90625000000+92187500000+93437500000
526+94687500000+93125000000+84375000000+68125000000+68750000000+83750000000
495+83750000000+84687500000+87187500000+90312500000+92812500000+93125000000
463+93750000000+92812500000+90937500000+89062500000+87187500000+84687500000
432+82500000000+80625000000+79062500000+77500000000+76562500000+75625000000
400+75312500000
##END=
