##TITLE=5-chloro-2-thiopheneacrylic acid
##JCAMP-DX=4.24
##DATA TYPE=INFRARED SPECTRUM
##DATE=10/06/2025
##SAMPLING PROCEDURE=ATR
##ORIGIN=SDBS
##XUNITS=1/CM
##YUNITS=TRANSMITTANCE
##RESOLUTION=5.2631578947368425
##FIRSTX=4000.0
##LASTX=400.0
##DELTAX=-5.2631578947368425
##MAXY=95.0
##MINY=0.0
##XFACTOR=1
##YFACTOR=1
##NPOINTS=685
##FIRSTY=0.0
##XYDATA=(X++(Y..Y))
4000+0+81562500000+81875000000+81875000000+81875000000+81875000000
3968+81875000000+81875000000+82187500000+82500000000+82500000000+82812500000
3937+82812500000+82500000000+82187500000+82187500000+82187500000+82187500000
3905+82500000000+82812500000+82812500000+82812500000+82500000000+82500000000
3874+82500000000+82500000000+82500000000+82812500000+83125000000+83125000000
3842+83437500000+83437500000+83437500000+83437500000+83125000000+83125000000
3811+83125000000+83125000000+83437500000+83437500000+83750000000+83750000000
3779+83750000000+83750000000+83750000000+84062500000+84062500000+84375000000
3747+84062500000+84062500000+84062500000+84062500000+84062500000+84062500000
3716+84062500000+84375000000+84687500000+85000000000+85000000000+85000000000
3684+85000000000+85000000000+85000000000+84687500000+84687500000+84687500000
3653+85000000000+85000000000+85000000000+85000000000+85000000000+85000000000
3621+85000000000+85000000000+85000000000+85312500000+85312500000+85312500000
3589+85312500000+85000000000+85000000000+85000000000+85000000000+85000000000
3558+85000000000+85000000000+85000000000+85000000000+85000000000+85312500000
3526+85000000000+85000000000+85000000000+85000000000+84687500000+84687500000
3495+84375000000+84375000000+84375000000+84375000000+84375000000+84375000000
3463+84062500000+83750000000+83125000000+83125000000+82812500000+82500000000
3432+82500000000+82187500000+82187500000+81875000000+81875000000+81562500000
3400+81250000000+81250000000+80625000000+80312500000+75937500000+75312500000
3368+78125000000+78437500000+78125000000+77500000000+77187500000+76875000000
3337+76562500000+75937500000+75000000000+73750000000+71250000000+69687500000
3305+66250000000+61250000000+52187500000+40312499999+23437500000+15625000000
3274+14062500000+15000000000+10000000000+5312500000+4687500000+5000000000
3242+10000000000+15000000000+20312500000+25625000000+27812500000+23750000000
3211+19375000000+14687500000+15312500000+29687500000+49687499999+61250000000
3179+67187500000+70000000000+71875000000+73750000000+75625000000+76875000000
3147+77500000000+78125000000+78437500000+78437500000+78437500000+78437500000
3116+78437500000+78437500000+78437500000+78437500000+78125000000+78125000000
3084+77812500000+78125000000+78437500000+78750000000+79062500000+79375000000
3053+79062500000+78750000000+78750000000+78750000000+78750000000+78750000000
3021+79062500000+79375000000+79687500000+80000000000+80312500000+80625000000
2989+80937500000+81250000000+81562500000+81875000000+81875000000+82187500000
2958+82500000000+82500000000+82812500000+82812500000+83437500000+83437500000
2926+83750000000+84062500000+84375000000+84375000000+84687500000+84687500000
2895+85000000000+85000000000+85312500000+85312500000+85625000000+85625000000
2863+85625000000+85937500000+85937500000+86250000000+86250000000+86562500000
2832+86875000000+86875000000+87187500000+87500000000+87812500000+87812500000
2800+87812500000+88125000000+88125000000+88125000000+88437500000+88437500000
2768+88750000000+89062500000+89375000000+89375000000+89687500000+89687500000
2737+89687500000+89687500000+89687500000+89687500000+89687500000+90000000000
2705+90000000000+90312500000+90312500000+90312500000+90625000000+90625000000
2674+90625000000+90937500000+90937500000+90937500000+90937500000+91250000000
2642+91250000000+91562500000+91562500000+91562500000+91562500000+91875000000
2611+91875000000+91875000000+91875000000+91875000000+91875000000+91875000000
2579+91875000000+91875000000+91875000000+91875000000+91875000000+91875000000
2547+91875000000+91875000000+91875000000+91875000000+91875000000+91875000000
2516+92187500000+92187500000+92187500000+92187500000+92500000000+92500000000
2484+92500000000+92500000000+92500000000+92500000000+92500000000+92812500000
2453+92812500000+92812500000+92812500000+92500000000+92500000000+92500000000
2421+92500000000+92500000000+92500000000+92500000000+92812500000+92812500000
2389+92812500000+93125000000+93125000000+93437500000+93437500000+93437500000
2358+93437500000+93437500000+93437500000+93437500000+93437500000+93437500000
2326+93437500000+93437500000+93437500000+93437500000+93437500000+93437500000
2295+93437500000+93750000000+93750000000+94062500000+94375000000+94375000000
2263+94687500000+95000000000+94687500000+94062500000+91875000000+90000000000
2232+89687500000+88750000000+85000000000+82812500000+82187500000+82187500000
2200+78750000000+69375000000+62500000000+60000000000+60312500000+62500000000
2168+66250000000+67812500000+69375000000+72500000000+77812500000+80937500000
2137+84062500000+86562500000+88437500000+89375000000+88750000000+86875000000
2105+83750000000+76562500000+68125000000+59062500000+53750000000+53437500000
2074+55937500000+60937500000+64375000000+65625000000+66875000000+69375000000
2042+72500000000+74375000000+77187500000+78750000000+80312500000+81562500000
2011+82812500000+84062500000+84687500000+85000000000+85625000000+85937500000
1979+86562500000+86875000000+87187500000+85625000000+79375000000+80000000000
1947+84062500000+85312500000+86250000000+86562500000+86875000000+87187500000
1916+87187500000+86875000000+86562500000+85312500000+83437500000+80312500000
1884+74062500000+63125000000+52187500000+51250000000+51562500000+52187500000
1853+53750000000+58750000000+60625000000+64062500000+67500000000+72812500000
1821+77187500000+79375000000+79062500000+75937500000+71562500000+70937500000
1789+72187500000+75937500000+79687500000+81875000000+81562500000+76562500000
1758+72500000000+65625000000+64375000000+66875000000+75937500000+75937500000
1726+78125000000+81875000000+80312500000+75937500000+75000000000+76250000000
1695+80937500000+83437500000+86250000000+87812500000+87187500000+85625000000
1663+83125000000+79687500000+76250000000+68750000000+67812500000+68750000000
1632+74687500000+80937500000+82500000000+73750000000+66250000000+59375000000
1600+58437500000+61562500000+69062500000+75937500000+80312500000+83125000000
1568+85312500000+82812500000+78437500000+77812500000+78750000000+81562500000
1537+80312500000+70625000000+63750000000+64062500000+67187500000+72500000000
1505+77187500000+80000000000+81875000000+76875000000+77187500000+82187500000
1474+84062500000+85312500000+85625000000+85625000000+85312500000+85625000000
1442+85937500000+86562500000+86875000000+87500000000+87812500000+88125000000
1411+88437500000+88750000000+89062500000+89062500000+89062500000+89375000000
1379+89375000000+89687500000+90000000000+90000000000+90312500000+90625000000
1347+90625000000+90937500000+90937500000+90625000000+89062500000+81250000000
1316+80625000000+87500000000+89375000000+90312500000+90312500000+90312500000
1284+90000000000+90000000000+90000000000+90000000000+90000000000+90312500000
1253+90625000000+90312500000+73437500000+73750000000+85625000000+87187500000
1221+88125000000+89062500000+90000000000+90312500000+90625000000+90312500000
1189+88750000000+80000000000+74375000000+82187500000+88437500000+89375000000
1158+89375000000+89062500000+88437500000+87812500000+87187500000+86562500000
1126+86250000000+86250000000+86250000000+86875000000+87187500000+87500000000
1095+88125000000+88437500000+88750000000+88750000000+88750000000+88750000000
1063+88750000000+89062500000+89375000000+89687500000+89687500000+89687500000
1032+89062500000+83750000000+81875000000+89062500000+90937500000+91562500000
1000+91875000000+92187500000+92187500000+92187500000+91875000000+91250000000
968+90312500000+89687500000+88437500000+81250000000+76250000000+76562500000
937+83750000000+89062500000+90312500000+90937500000+91250000000+91250000000
905+91250000000+90937500000+90937500000+90937500000+90937500000+90625000000
874+90625000000+90312500000+89687500000+89062500000+87500000000+86562500000
842+86250000000+85625000000+86875000000+88125000000+89375000000+90312500000
811+91250000000+91562500000+91562500000+91562500000+91875000000+91875000000
779+91875000000+91875000000+91875000000+91875000000+91875000000+92187500000
747+92500000000+92812500000+93125000000+93437500000+93125000000+87500000000
716+85937500000+89687500000+91250000000+91875000000+92187500000+92187500000
684+92187500000+91875000000+91562500000+91250000000+90937500000+90625000000
653+90625000000+90312500000+90312500000+90312500000+90625000000+90937500000
621+90937500000+90625000000+89687500000+89062500000+87812500000+87187500000
589+86562500000+86562500000+86562500000+86875000000+87187500000+87500000000
558+88125000000+88437500000+88750000000+88437500000+87500000000+86562500000
526+85625000000+85000000000+85000000000+85000000000+85312500000+85312500000
495+85625000000+85625000000+85937500000+85937500000+86250000000+86562500000
463+86562500000+86250000000+85000000000+83125000000+80937500000+78125000000
432+75312500000+72812500000+71250000000+69687500000+68437500000+67500000000
400+66875000000
##END=
