##TITLE=5-chloro-2-quinolinecarbonitrile
##JCAMP-DX=4.24
##DATA TYPE=INFRARED SPECTRUM
##DATE=10/06/2025
##SAMPLING PROCEDURE=ATR
##ORIGIN=SDBS
##XUNITS=1/CM
##YUNITS=TRANSMITTANCE
##RESOLUTION=5.2631578947368425
##FIRSTX=4000.0
##LASTX=400.0
##DELTAX=-5.2631578947368425
##MAXY=94.6875
##MINY=0.0
##XFACTOR=1
##YFACTOR=1
##NPOINTS=685
##FIRSTY=0.0
##XYDATA=(X++(Y..Y))
4000+0+82500000000+82500000000+82500000000+82500000000+82500000000
3968+82812500000+82812500000+82812500000+82812500000+82500000000+82187500000
3937+82187500000+82187500000+82500000000+82812500000+82812500000+82812500000
3905+82812500000+82812500000+82812500000+82812500000+82500000000+82500000000
3874+82500000000+82500000000+82500000000+82812500000+82812500000+82812500000
3842+82812500000+82812500000+82812500000+82812500000+82812500000+83125000000
3811+83125000000+83125000000+83125000000+83125000000+83125000000+83125000000
3779+83125000000+83125000000+83125000000+83125000000+83125000000+83125000000
3747+83125000000+82812500000+82812500000+82812500000+82812500000+82812500000
3716+83125000000+83125000000+83437500000+83437500000+83437500000+83437500000
3684+83437500000+83125000000+83125000000+83125000000+83125000000+83125000000
3653+83125000000+83125000000+82812500000+82500000000+82500000000+82500000000
3621+82500000000+82500000000+82500000000+82187500000+81875000000+81875000000
3589+81875000000+81875000000+81875000000+81562500000+81562500000+81562500000
3558+81562500000+81562500000+81250000000+81250000000+81250000000+81250000000
3526+81250000000+81250000000+80937500000+80625000000+80625000000+80625000000
3495+80625000000+80312500000+80312500000+80000000000+80000000000+79687500000
3463+79375000000+79375000000+79062500000+78750000000+78437500000+78437500000
3432+78437500000+78437500000+78437500000+78437500000+78750000000+78750000000
3400+78750000000+79062500000+79062500000+79375000000+79062500000+78125000000
3368+76562500000+75000000000+75000000000+75625000000+74375000000+73750000000
3337+73750000000+72500000000+70625000000+68437500000+65937500000+61875000000
3305+55625000000+46875000000+33437500000+19687500000+9375000000+6250000000
3274+5937500000+5625000000+5000000000+4687500000+4687500000+5000000000
3242+5625000000+6562500000+8437500000+10625000000+10937500000+9687500000
3211+8437500000+7187500000+7500000000+13125000000+34062500000+51250000000
3179+62500000000+67812500000+71562500000+75000000000+77187500000+79062500000
3147+80625000000+81875000000+81875000000+81875000000+81250000000+80312500000
3116+80000000000+80000000000+80625000000+81250000000+81562500000+81250000000
3084+80937500000+80625000000+80625000000+80937500000+81875000000+82187500000
3053+82500000000+82500000000+82812500000+83125000000+83125000000+83437500000
3021+83750000000+84062500000+84687500000+85000000000+85312500000+86250000000
2989+86562500000+86562500000+86562500000+86562500000+86875000000+87187500000
2958+87187500000+87500000000+87500000000+87500000000+87500000000+87500000000
2926+87812500000+87812500000+87500000000+87500000000+87500000000+87500000000
2895+87500000000+87500000000+87500000000+87500000000+87500000000+87500000000
2863+87500000000+87500000000+87812500000+87812500000+87812500000+87812500000
2832+87812500000+88125000000+88125000000+88125000000+88125000000+88437500000
2800+88437500000+88437500000+88750000000+89687500000+81250000000+80937500000
2768+85625000000+87187500000+87812500000+88125000000+88125000000+88125000000
2737+88437500000+88437500000+88750000000+88750000000+88750000000+88750000000
2705+89062500000+89062500000+89375000000+89375000000+89375000000+89375000000
2674+89375000000+89375000000+89375000000+89687500000+89687500000+89687500000
2642+89687500000+89687500000+89687500000+90000000000+90000000000+90312500000
2611+90312500000+90625000000+90625000000+90625000000+90937500000+90625000000
2579+90625000000+90625000000+90312500000+90312500000+90000000000+90000000000
2547+89687500000+89062500000+88125000000+88125000000+89375000000+90000000000
2516+90312500000+90625000000+90625000000+90937500000+90937500000+90937500000
2484+90937500000+90625000000+90312500000+90312500000+90000000000+90312500000
2453+90312500000+90312500000+90312500000+90625000000+90625000000+90625000000
2421+90937500000+90937500000+91250000000+91562500000+91562500000+91562500000
2389+91250000000+90625000000+90312500000+90000000000+90000000000+90312500000
2358+90312500000+90312500000+90312500000+90312500000+90625000000+90625000000
2326+90625000000+90625000000+90937500000+90937500000+90937500000+91250000000
2295+91562500000+91562500000+91562500000+91875000000+91875000000+91875000000
2263+91562500000+91250000000+91250000000+90937500000+90937500000+90937500000
2232+90937500000+90937500000+91250000000+91250000000+91562500000+91562500000
2200+91562500000+91875000000+91875000000+91875000000+92187500000+92187500000
2168+91875000000+90312500000+90000000000+89687500000+90000000000+90937500000
2137+91562500000+91875000000+91875000000+91875000000+92187500000+92187500000
2105+92187500000+92500000000+92812500000+92812500000+93125000000+91562500000
2074+87187500000+87812500000+91562500000+92500000000+93125000000+93437500000
2042+93125000000+84687500000+69375000000+69375000000+74687500000+79687500000
2011+83437500000+85625000000+84375000000+69375000000+68750000000+75312500000
1979+81250000000+82812500000+84687500000+85937500000+86562500000+86875000000
1947+87500000000+88125000000+88437500000+87500000000+85937500000+81250000000
1916+77187500000+74375000000+70000000000+68125000000+69687500000+65625000000
1884+56250000000+40312499999+29062500000+28125000000+27500000000+26250000000
1853+26562500000+35937500000+44062500000+51875000000+58750000000+66250000000
1821+74375000000+79687500000+82500000000+84375000000+85625000000+86250000000
1789+86250000000+85312500000+83437500000+80625000000+69062500000+63437500000
1758+57187500000+47187500000+45312500000+49375000000+55937500000+57812500000
1726+62500000000+71875000000+75312500000+77187500000+78437500000+79375000000
1695+80000000000+81250000000+81562500000+83125000000+84062500000+84375000000
1663+84687500000+85000000000+85312500000+85625000000+67812500000+59375000000
1632+64062500000+75312500000+79062500000+81875000000+82812500000+83437500000
1600+83750000000+85000000000+85937500000+86250000000+86875000000+87187500000
1568+87187500000+87187500000+87187500000+86562500000+74687500000+75937500000
1537+83437500000+86250000000+85000000000+73125000000+70625000000+70625000000
1505+79062500000+83437500000+83750000000+82500000000+79375000000+78125000000
1474+80000000000+83750000000+85000000000+85625000000+85937500000+86250000000
1442+83437500000+80312500000+80000000000+85937500000+87500000000+88125000000
1411+85312500000+68125000000+68750000000+79375000000+83437500000+84687500000
1379+86250000000+87187500000+87812500000+88125000000+88437500000+88437500000
1347+88437500000+88437500000+88437500000+88437500000+88750000000+88750000000
1316+88750000000+85312500000+85312500000+87500000000+88437500000+88750000000
1284+89062500000+89062500000+89062500000+89375000000+89687500000+89687500000
1253+90000000000+90000000000+90000000000+90312500000+90625000000+90625000000
1221+90937500000+90625000000+89062500000+86250000000+85312500000+84687500000
1189+87812500000+63750000000+54687500000+54375000000+72812500000+78750000000
1158+82812500000+84687500000+85312500000+85625000000+86875000000+87500000000
1126+87187500000+85000000000+78750000000+74062500000+76875000000+82500000000
1095+85625000000+87187500000+87500000000+87500000000+87187500000+87812500000
1063+88437500000+89062500000+89375000000+89687500000+90000000000+90000000000
1032+89687500000+89375000000+88437500000+87812500000+85937500000+81562500000
1000+69062500000+54062500000+61562500000+81875000000+74062500000+57812500000
968+49375000000+50937500000+60625000000+70625000000+79062500000+83125000000
937+85000000000+87187500000+88437500000+89062500000+89375000000+89375000000
905+89062500000+87812500000+75937500000+62187500000+63125000000+83125000000
874+85312500000+85937500000+85000000000+84687500000+83750000000+80625000000
842+77500000000+77500000000+81875000000+86875000000+89687500000+91562500000
811+92187500000+93125000000+93750000000+93750000000+93437500000+94062500000
779+94062500000+93750000000+93750000000+94062500000+93750000000+93750000000
747+93750000000+93750000000+93750000000+93750000000+93750000000+93750000000
716+93750000000+94062500000+94062500000+94062500000+94062500000+94062500000
684+94062500000+94062500000+94062500000+94062500000+94062500000+94062500000
653+94062500000+94062500000+89375000000+89062500000+90000000000+91562500000
621+91875000000+92812500000+93437500000+94062500000+94687500000+86250000000
589+80625000000+92187500000+94062500000+94062500000+93125000000+92812500000
558+85937500000+78125000000+89062500000+93437500000+93750000000+94062500000
526+94062500000+94062500000+94062500000+94062500000+94062500000+94062500000
495+93750000000+93750000000+93437500000+93437500000+93437500000+93437500000
463+93437500000+93125000000+92187500000+90625000000+88750000000+86250000000
432+84375000000+82812500000+81875000000+80937500000+80625000000+80312500000
400+79687500000
##END=
