##TITLE=5-chloro-2,4-dimethoxyaniline
##JCAMP-DX=4.24
##DATA TYPE=INFRARED SPECTRUM
##DATE=10/06/2025
##SAMPLING PROCEDURE=ATR
##ORIGIN=SDBS
##XUNITS=1/CM
##YUNITS=TRANSMITTANCE
##RESOLUTION=5.2631578947368425
##FIRSTX=4000.0
##LASTX=400.0
##DELTAX=-5.2631578947368425
##MAXY=94.6875
##MINY=0.0
##XFACTOR=1
##YFACTOR=1
##NPOINTS=685
##FIRSTY=0.0
##XYDATA=(X++(Y..Y))
4000+0+92500000000+92812500000+92187500000+91875000000+91562500000
3968+91562500000+91875000000+91875000000+92187500000+92187500000+91875000000
3937+91875000000+91875000000+91875000000+91875000000+91562500000+91562500000
3905+91562500000+91562500000+91562500000+92500000000+92500000000+91562500000
3874+91562500000+91562500000+91250000000+91250000000+91250000000+91250000000
3842+91250000000+90937500000+91250000000+91562500000+91875000000+91875000000
3811+91875000000+91875000000+92187500000+91875000000+91562500000+90937500000
3779+90625000000+90625000000+90937500000+91250000000+91250000000+91250000000
3747+90937500000+90000000000+89687500000+89687500000+90000000000+90625000000
3716+90625000000+90937500000+90937500000+91250000000+91250000000+91250000000
3684+91250000000+91250000000+90937500000+90937500000+90625000000+90625000000
3653+90625000000+90625000000+90312500000+90312500000+90000000000+90312500000
3621+90625000000+90000000000+76562500000+70937500000+69687500000+68125000000
3589+68437500000+79375000000+81875000000+83437500000+84062500000+84687500000
3558+83750000000+71250000000+67187500000+57500000000+59375000000+70937500000
3526+75937500000+78125000000+79062500000+79687500000+80000000000+80312500000
3495+80625000000+80312500000+80000000000+80000000000+80000000000+80000000000
3463+80000000000+80000000000+79375000000+79062500000+79062500000+79062500000
3432+79062500000+79375000000+79687500000+80312500000+80312500000+80312500000
3400+79687500000+79687500000+81562500000+80937500000+81250000000+80312500000
3368+79687500000+80937500000+80625000000+79375000000+79375000000+78125000000
3337+78437500000+77500000000+75625000000+73750000000+71250000000+70312500000
3305+66250000000+61562500000+50000000000+35000000000+20312500000+14062500000
3274+13750000000+14062500000+9062500000+5312500000+4687500000+5625000000
3242+10937500000+17500000000+23437500000+29375000000+31562500000+27187500000
3211+22500000000+16562500000+17187500000+32500000000+51875000000+69375000000
3179+78125000000+80625000000+82187500000+83750000000+84687500000+85625000000
3147+86562500000+86875000000+86875000000+86875000000+86250000000+85312500000
3116+85000000000+85000000000+85312500000+85625000000+85625000000+85312500000
3084+85312500000+85312500000+85312500000+85625000000+85625000000+85625000000
3053+85625000000+85625000000+85000000000+85312500000+84687500000+84687500000
3021+87187500000+87187500000+87187500000+87187500000+87500000000+87187500000
2989+87187500000+87187500000+87187500000+87500000000+87500000000+87500000000
2958+87500000000+87812500000+87812500000+87812500000+87812500000+87812500000
2926+87812500000+88125000000+88125000000+88125000000+88125000000+88437500000
2895+88437500000+88437500000+87812500000+88437500000+88437500000+88750000000
2863+88750000000+88750000000+88750000000+88750000000+88750000000+88750000000
2832+88437500000+88437500000+88437500000+88437500000+88437500000+88750000000
2800+89062500000+89062500000+89062500000+89062500000+88750000000+88750000000
2768+88750000000+88750000000+89062500000+89062500000+89062500000+89062500000
2737+89062500000+89062500000+89062500000+89375000000+89375000000+89375000000
2705+89375000000+89687500000+89687500000+89687500000+90000000000+90000000000
2674+90000000000+90312500000+90312500000+90000000000+89687500000+89687500000
2642+89687500000+89687500000+89687500000+89687500000+89687500000+90312500000
2611+90625000000+90625000000+90625000000+90937500000+90937500000+91250000000
2579+91250000000+91250000000+91250000000+91250000000+91250000000+91250000000
2547+91250000000+91250000000+91250000000+91250000000+91250000000+91250000000
2516+91562500000+91562500000+91562500000+91562500000+91562500000+91562500000
2484+91250000000+91250000000+91250000000+91250000000+91562500000+91562500000
2453+91562500000+91875000000+91875000000+91875000000+92187500000+92187500000
2421+92187500000+92500000000+92500000000+92812500000+92812500000+92812500000
2389+92812500000+92812500000+92812500000+92812500000+92812500000+92812500000
2358+92812500000+92812500000+92812500000+92812500000+92812500000+92812500000
2326+92812500000+92812500000+93125000000+93125000000+93125000000+93125000000
2295+93125000000+93125000000+93125000000+93125000000+93437500000+93437500000
2263+93750000000+94062500000+94375000000+94687500000+94687500000+94687500000
2232+94062500000+93125000000+93125000000+92812500000+92812500000+93125000000
2200+93125000000+93125000000+93437500000+93437500000+93437500000+93125000000
2168+93125000000+93125000000+93125000000+93125000000+93437500000+93437500000
2137+93437500000+93437500000+93437500000+92812500000+92187500000+90625000000
2105+88125000000+84687500000+81562500000+81250000000+81875000000+81875000000
2074+80312500000+74375000000+72187500000+72187500000+72500000000+65937500000
2042+64062500000+65937500000+75937500000+81562500000+84687500000+85625000000
2011+86562500000+87500000000+88437500000+88437500000+88125000000+87500000000
1979+86562500000+84687500000+80312500000+72500000000+62187500000+48124999999
1947+35937500000+30312500000+30312500000+30625000000+35000000000+41874999999
1916+49687499999+55625000000+61875000000+65625000000+68125000000+65312500000
1884+55937500000+45937500000+32187500000+30000000000+31250000000+28125000000
1853+28125000000+39062500000+44999999999+48124999999+58750000000+52500000000
1821+60937500000+73125000000+77500000000+80000000000+81250000000+80625000000
1789+75625000000+59062500000+58750000000+69062500000+75000000000+73125000000
1758+70000000000+63437500000+61875000000+65000000000+74375000000+75000000000
1726+78125000000+81562500000+80625000000+78750000000+72500000000+58750000000
1695+55625000000+61250000000+72500000000+79062500000+82500000000+84375000000
1663+82500000000+79687500000+75312500000+68750000000+64687500000+64687500000
1632+70312500000+77812500000+81562500000+83125000000+81562500000+75625000000
1600+56875000000+54062500000+61562500000+75312500000+78750000000+82187500000
1568+85000000000+85937500000+84062500000+79062500000+65625000000+45312500000
1537+40000000000+38125000000+41874999999+53437500000+46562499999+33125000000
1505+31875000000+32812500000+50000000000+67187500000+69687500000+68125000000
1474+55000000000+39062500000+38749999999+42500000000+50937500000+59375000000
1442+65312500000+68437500000+73125000000+76250000000+78437500000+79375000000
1411+80000000000+80937500000+81875000000+82500000000+82500000000+83125000000
1379+83437500000+83750000000+84062500000+84375000000+84687500000+85000000000
1347+85625000000+85937500000+86250000000+86250000000+85625000000+84375000000
1316+78437500000+76562500000+75000000000+80312500000+84375000000+82812500000
1284+79062500000+70625000000+51875000000+30625000000+30312500000+45625000000
1253+58750000000+70625000000+77500000000+80937500000+83437500000+85312500000
1221+86875000000+87812500000+89062500000+89375000000+89375000000+88750000000
1189+87500000000+84375000000+83437500000+85937500000+89375000000+90312500000
1158+91250000000+91562500000+91875000000+92187500000+92187500000+92187500000
1126+92187500000+92187500000+92187500000+92187500000+92187500000+92187500000
1095+92187500000+91875000000+91875000000+91875000000+91562500000+91250000000
1063+90937500000+90312500000+88437500000+85625000000+75625000000+55625000000
1032+61875000000+66250000000+57187500000+56875000000+68437500000+66562500000
1000+67187500000+75625000000+81875000000+84687500000+84687500000+69687500000
968+65000000000+77187500000+60937500000+73750000000+84687500000+85625000000
937+85937500000+85625000000+85000000000+84375000000+83750000000+82812500000
905+81875000000+80625000000+79062500000+76875000000+74375000000+72500000000
874+71250000000+70937500000+70937500000+72187500000+73437500000+73750000000
842+68125000000+65625000000+65937500000+71562500000+74687500000+79375000000
811+79687500000+70312500000+70312500000+70312500000+70312500000+70937500000
779+71562500000+72500000000+73437500000+74687500000+75937500000+76875000000
747+73437500000+73125000000+73750000000+74375000000+75000000000+76562500000
716+78125000000+79062500000+81562500000+84375000000+81562500000+80625000000
684+81875000000+77500000000+76250000000+77187500000+79375000000+80000000000
653+80625000000+81562500000+83125000000+84062500000+85000000000+86250000000
621+87187500000+88437500000+89375000000+90312500000+90937500000+91875000000
589+92187500000+92500000000+92812500000+92812500000+92500000000+92187500000
558+92187500000+92187500000+92187500000+92187500000+92187500000+92187500000
526+92187500000+92187500000+92187500000+92187500000+92187500000+91562500000
495+90312500000+89062500000+87812500000+86875000000+85625000000+85000000000
463+84687500000+84687500000+85000000000+85937500000+87500000000+88750000000
432+88125000000+85312500000+81562500000+76875000000+72187500000+69375000000
400+68125000000
##END=
