##TITLE=5-hexen-2-one
##JCAMP-DX=4.24
##DATA TYPE=INFRARED SPECTRUM
##DATE=10/06/2025
##SAMPLING PROCEDURE=ATR
##ORIGIN=SDBS
##XUNITS=1/CM
##YUNITS=TRANSMITTANCE
##RESOLUTION=5.2631578947368425
##FIRSTX=4000.0
##LASTX=400.0
##DELTAX=-5.2631578947368425
##MAXY=95.0
##MINY=0.0
##XFACTOR=1
##YFACTOR=1
##NPOINTS=685
##FIRSTY=0.0
##XYDATA=(X++(Y..Y))
4000+0+94062500000+93750000000+93750000000+93750000000+93750000000
3968+94062500000+94062500000+94375000000+94375000000+94375000000+94375000000
3937+94375000000+94375000000+94375000000+94375000000+94687500000+94687500000
3905+94375000000+94375000000+94375000000+94375000000+94375000000+94375000000
3874+94375000000+94375000000+94375000000+94687500000+94687500000+94687500000
3842+94687500000+94687500000+94687500000+94375000000+94375000000+94375000000
3811+94375000000+94375000000+94062500000+93750000000+93125000000+92500000000
3779+91562500000+90625000000+90000000000+89375000000+88437500000+87812500000
3747+87500000000+87187500000+86875000000+86875000000+87187500000+87187500000
3716+87500000000+87500000000+87500000000+87187500000+87187500000+86875000000
3684+86562500000+86562500000+86562500000+86562500000+86562500000+86875000000
3653+87500000000+87812500000+88437500000+88750000000+89062500000+89375000000
3621+89687500000+89375000000+88437500000+86562500000+83750000000+83125000000
3589+83437500000+85625000000+87187500000+89062500000+90625000000+91250000000
3558+91562500000+92187500000+92500000000+92812500000+92812500000+93125000000
3526+93125000000+93125000000+93125000000+92812500000+92812500000+92812500000
3495+92812500000+92812500000+92812500000+92812500000+92812500000+92812500000
3463+92812500000+92812500000+92812500000+92812500000+92500000000+92500000000
3432+92187500000+92187500000+91875000000+91562500000+91250000000+90937500000
3400+90625000000+90312500000+89375000000+88437500000+86250000000+82187500000
3368+67187500000+53437500000+53437500000+61250000000+68750000000+76250000000
3337+80000000000+80625000000+78750000000+73750000000+63125000000+55000000000
3305+53750000000+56250000000+49687499999+48750000000+54687500000+60312500000
3274+58437500000+54062500000+51875000000+48437500000+45625000000+45312500000
3242+47187500000+50625000000+53750000000+59687500000+68437500000+72500000000
3211+73750000000+73437500000+73437500000+75937500000+80000000000+83750000000
3179+86250000000+87812500000+88750000000+89687500000+90625000000+91562500000
3147+92187500000+92500000000+92812500000+93125000000+93437500000+93750000000
3116+93750000000+94062500000+94062500000+94062500000+94062500000+94062500000
3084+94062500000+94375000000+94375000000+94375000000+94687500000+94687500000
3053+94687500000+94687500000+94687500000+94687500000+94687500000+94687500000
3021+94687500000+94687500000+94687500000+94687500000+94375000000+94375000000
2989+94062500000+94062500000+94062500000+94062500000+94062500000+94375000000
2958+94375000000+94687500000+94687500000+94375000000+94375000000+94687500000
2926+94687500000+94687500000+94687500000+94687500000+94687500000+94687500000
2895+94687500000+94687500000+94687500000+95000000000+94687500000+94687500000
2863+94687500000+94375000000+94375000000+94062500000+94062500000+94062500000
2832+94062500000+93750000000+93750000000+93750000000+93750000000+93750000000
2800+93750000000+93750000000+93750000000+93750000000+93750000000+93750000000
2768+93750000000+93437500000+93437500000+93125000000+93125000000+93125000000
2737+93125000000+93125000000+93125000000+93125000000+93125000000+92812500000
2705+92812500000+92812500000+92500000000+92500000000+92500000000+92500000000
2674+92812500000+92812500000+92812500000+93125000000+93125000000+93125000000
2642+93125000000+92812500000+92812500000+92812500000+92500000000+92187500000
2611+91875000000+91875000000+91875000000+91875000000+91875000000+91875000000
2579+91875000000+91875000000+91875000000+91875000000+91875000000+91875000000
2547+91875000000+91875000000+91875000000+91875000000+91875000000+91875000000
2516+91875000000+91875000000+91562500000+91562500000+91562500000+91562500000
2484+91250000000+91250000000+91250000000+90937500000+90937500000+90937500000
2453+90625000000+90625000000+90312500000+90000000000+89687500000+89375000000
2421+88750000000+88125000000+87500000000+86875000000+86250000000+85937500000
2389+85312500000+85000000000+85000000000+85000000000+85312500000+85625000000
2358+85625000000+85937500000+86250000000+86562500000+86562500000+86250000000
2326+86250000000+85625000000+85312500000+84687500000+83750000000+82500000000
2295+81250000000+79687500000+77187500000+74375000000+71875000000+68125000000
2263+63437500000+57812500000+51875000000+42812500000+31562500000+17500000000
2232+8437500000+5312500000+4687500000+5000000000+6562500000+9687500000
2200+16562500000+27187500000+40000000000+49062500000+56250000000+60937500000
2168+63750000000+64375000000+66875000000+69375000000+71562500000+72812500000
2137+72500000000+69062500000+61562500000+40937500000+29062500000+32812500000
2105+58125000000+70625000000+76250000000+78437500000+79062500000+80000000000
2074+81250000000+83750000000+85000000000+85625000000+86250000000+86562500000
2042+86875000000+86875000000+86875000000+86875000000+86562500000+86562500000
2011+86250000000+86250000000+86250000000+85937500000+85937500000+85937500000
1979+85937500000+85937500000+85937500000+85937500000+85625000000+85625000000
1947+85312500000+85312500000+85000000000+85000000000+84687500000+84375000000
1916+84062500000+83750000000+83125000000+82500000000+81875000000+80937500000
1884+79375000000+78125000000+75625000000+72500000000+67812500000+62812500000
1853+55000000000+46562499999+42812500000+40625000000+38437500000+38437500000
1821+38749999999+38749999999+37812500000+35937500000+35937500000+36250000000
1789+38749999999+45312500000+53437500000+59062500000+60312500000+57500000000
1758+51562500000+45625000000+37812500000+30625000000+25312500000+22500000000
1726+22500000000+23437500000+28125000000+35312500000+43125000000+53125000000
1695+61875000000+67500000000+70312500000+73437500000+75937500000+78125000000
1663+78750000000+79062500000+77812500000+75625000000+73437500000+73125000000
1632+73125000000+73437500000+74062500000+73437500000+71562500000+68125000000
1600+63750000000+63437500000+65000000000+68750000000+70312500000+70937500000
1568+70312500000+69375000000+66562500000+61875000000+59062500000+59375000000
1537+62500000000+68750000000+73125000000+75625000000+75000000000+72812500000
1505+70000000000+68437500000+67500000000+65000000000+61562500000+56562500000
1474+47812500000+39062500000+35000000000+32500000000+31250000000+31875000000
1442+40312499999+54375000000+64375000000+71562500000+76562500000+79375000000
1411+80937500000+80937500000+80000000000+78437500000+78437500000+79062500000
1379+81250000000+82500000000+83437500000+85000000000+86250000000+87187500000
1347+88125000000+88437500000+88750000000+88437500000+87812500000+86875000000
1316+85625000000+83125000000+80625000000+80312500000+80312500000+80937500000
1284+81875000000+82812500000+82500000000+80937500000+78437500000+75312500000
1253+73437500000+71875000000+69687500000+64687500000+57500000000+51250000000
1221+50312500000+50937500000+58437500000+67187500000+73750000000+74375000000
1189+73437500000+73125000000+73437500000+75937500000+78437500000+79687500000
1158+79062500000+76562500000+73125000000+67187500000+59375000000+50312500000
1126+43125000000+37500000000+34375000000+33750000000+33750000000+35937500000
1095+42187500000+51250000000+60625000000+69062500000+76250000000+81250000000
1063+84687500000+86875000000+88750000000+90000000000+90937500000+91562500000
1032+92187500000+92812500000+93125000000+93125000000+93125000000+92812500000
1000+92500000000+92500000000+92187500000+92187500000+92187500000+92500000000
968+92500000000+92500000000+92812500000+92812500000+93125000000+93125000000
937+93437500000+93750000000+94062500000+94375000000+94687500000+94687500000
905+94375000000+94062500000+93125000000+91250000000+90000000000+89687500000
874+89687500000+90000000000+90937500000+91875000000+93125000000+94062500000
842+94375000000+94687500000+94687500000+94687500000+94687500000+94687500000
811+94375000000+94062500000+93750000000+93437500000+92812500000+92187500000
779+90937500000+90000000000+88750000000+88125000000+87812500000+87187500000
747+86250000000+84687500000+82500000000+80625000000+78750000000+78437500000
716+78750000000+80625000000+83125000000+85000000000+86250000000+87187500000
684+87500000000+86250000000+84062500000+79375000000+70937500000+68125000000
653+68437500000+71250000000+74062500000+77812500000+80625000000+82187500000
621+82812500000+83437500000+84062500000+84687500000+85000000000+85000000000
589+84687500000+84375000000+84375000000+84375000000+84375000000+84687500000
558+85000000000+85625000000+85937500000+86562500000+87187500000+87500000000
526+87812500000+88125000000+88125000000+88437500000+88125000000+88125000000
495+87500000000+87187500000+86562500000+86250000000+85937500000+85937500000
463+85937500000+85937500000+85937500000+86562500000+86875000000+87187500000
432+87500000000+87500000000+87187500000+86562500000+86250000000+85937500000
400+85625000000
##END=
