##TITLE=7-ethoxy-1,3,5-cycloheptatriene
##JCAMP-DX=4.24
##DATA TYPE=INFRARED SPECTRUM
##DATE=10/06/2025
##SAMPLING PROCEDURE=ATR
##ORIGIN=SDBS
##XUNITS=1/CM
##YUNITS=TRANSMITTANCE
##RESOLUTION=5.2631578947368425
##FIRSTX=4000.0
##LASTX=400.0
##DELTAX=-5.2631578947368425
##MAXY=95.0
##MINY=0.0
##XFACTOR=1
##YFACTOR=1
##NPOINTS=685
##FIRSTY=0.0
##XYDATA=(X++(Y..Y))
4000+0+84375000000+84375000000+84687500000+85000000000+84687500000
3968+84687500000+84687500000+84687500000+85000000000+85000000000+85312500000
3937+85312500000+85312500000+85312500000+85312500000+85312500000+85312500000
3905+85312500000+85625000000+85625000000+85937500000+85937500000+85937500000
3874+85937500000+85937500000+86250000000+86250000000+86562500000+86250000000
3842+86250000000+86562500000+86562500000+86562500000+86875000000+86875000000
3811+86875000000+86875000000+86875000000+86875000000+86875000000+87187500000
3779+87187500000+86875000000+86562500000+86250000000+85937500000+85625000000
3747+85000000000+84687500000+84375000000+84062500000+83437500000+83125000000
3716+82812500000+82187500000+81250000000+80312500000+79375000000+78750000000
3684+77500000000+76562500000+75312500000+74687500000+73750000000+72812500000
3653+71875000000+71250000000+70312500000+69687500000+69062500000+68750000000
3621+68125000000+67500000000+67187500000+67187500000+66875000000+66562500000
3589+66250000000+66250000000+66250000000+66250000000+66250000000+66250000000
3558+66562500000+66562500000+66875000000+66875000000+67187500000+67500000000
3526+67812500000+67812500000+68125000000+68437500000+68750000000+69062500000
3495+69375000000+69687500000+69687500000+70000000000+70312500000+70312500000
3463+70625000000+70937500000+70937500000+71250000000+71562500000+71875000000
3432+71875000000+72187500000+72500000000+72812500000+73125000000+73125000000
3400+73437500000+73750000000+73750000000+74062500000+74062500000+74062500000
3368+74062500000+73750000000+72812500000+72187500000+71250000000+70312500000
3337+69375000000+68437500000+66250000000+65000000000+63750000000+63125000000
3305+60937500000+55937500000+46562499999+35000000000+21875000000+15312500000
3274+14062500000+14687500000+9375000000+5312500000+4687500000+5312500000
3242+10000000000+15625000000+21250000000+26250000000+28437500000+25000000000
3211+20625000000+16250000000+16875000000+32187500000+54375000000+66875000000
3179+73125000000+76562500000+79062500000+80312500000+81562500000+82812500000
3147+83750000000+84062500000+84375000000+84687500000+84375000000+84062500000
3116+84062500000+84062500000+84375000000+84687500000+85000000000+85000000000
3084+85000000000+85000000000+85000000000+85312500000+85625000000+85625000000
3053+85937500000+85937500000+85937500000+86250000000+86250000000+86562500000
3021+86875000000+87187500000+87500000000+87812500000+88125000000+88125000000
2989+88437500000+88750000000+88750000000+89062500000+89062500000+89062500000
2958+89375000000+89375000000+89687500000+90000000000+90312500000+90312500000
2926+90312500000+90625000000+90625000000+90625000000+90625000000+90937500000
2895+90937500000+91250000000+91250000000+91562500000+91562500000+91562500000
2863+91562500000+91875000000+91875000000+91875000000+92187500000+92187500000
2832+92500000000+92500000000+92500000000+92500000000+92500000000+92812500000
2800+92812500000+92812500000+92812500000+93125000000+93125000000+93125000000
2768+93125000000+93125000000+93437500000+93437500000+93437500000+93437500000
2737+93437500000+93437500000+93750000000+93750000000+93750000000+93750000000
2705+93750000000+94062500000+93750000000+93750000000+94062500000+94062500000
2674+94062500000+94062500000+94062500000+94062500000+94062500000+94062500000
2642+94062500000+94062500000+94062500000+94062500000+94062500000+94375000000
2611+94375000000+94375000000+94375000000+94375000000+94062500000+94062500000
2579+94062500000+94062500000+94062500000+94062500000+94062500000+94062500000
2547+94062500000+94062500000+94062500000+94062500000+94062500000+94375000000
2516+94375000000+94375000000+94375000000+94375000000+94375000000+94375000000
2484+94375000000+94375000000+94375000000+94375000000+94375000000+94375000000
2453+94375000000+94687500000+94687500000+94687500000+94687500000+94687500000
2421+94687500000+95000000000+95000000000+95000000000+94687500000+94687500000
2389+94687500000+94687500000+94687500000+94375000000+94375000000+94062500000
2358+93750000000+93437500000+92812500000+92187500000+91562500000+90937500000
2326+90000000000+88750000000+87500000000+86562500000+85312500000+84062500000
2295+83125000000+81875000000+80937500000+80000000000+78750000000+77500000000
2263+76250000000+74375000000+72500000000+70312500000+68437500000+66562500000
2232+65000000000+63125000000+62187500000+61875000000+61562500000+61562500000
2200+61875000000+62500000000+63125000000+64062500000+64687500000+65625000000
2168+66562500000+67187500000+67812500000+68437500000+69062500000+69687500000
2137+70312500000+71250000000+71875000000+72187500000+73125000000+72500000000
2105+69375000000+68125000000+69375000000+72812500000+74375000000+74687500000
2074+74687500000+73437500000+72812500000+72500000000+72812500000+73437500000
2042+73750000000+72812500000+71875000000+70937500000+69375000000+68125000000
2011+67812500000+67812500000+68750000000+70000000000+69687500000+69687500000
1979+70000000000+71250000000+73125000000+74375000000+75625000000+76562500000
1947+74375000000+73437500000+73750000000+75000000000+76875000000+78437500000
1916+78437500000+77812500000+77500000000+75625000000+72812500000+68750000000
1884+63437500000+54375000000+45937500000+45625000000+45625000000+46250000000
1853+47500000000+52187500000+55937500000+59375000000+63750000000+67812500000
1821+71562500000+73750000000+74687500000+74062500000+73437500000+73125000000
1789+72500000000+71562500000+70937500000+70625000000+68750000000+64687500000
1758+60937500000+55312500000+54062500000+56562500000+63750000000+64062500000
1726+66250000000+69687500000+70625000000+71250000000+71562500000+71875000000
1695+72500000000+72812500000+73437500000+73750000000+73437500000+72500000000
1663+71250000000+70625000000+70937500000+70312500000+70000000000+69375000000
1632+69062500000+68750000000+68437500000+67812500000+66875000000+66250000000
1600+65312500000+64687500000+64375000000+63437500000+62187500000+62187500000
1568+62812500000+63750000000+64062500000+64687500000+65000000000+65000000000
1537+64687500000+64375000000+64375000000+64687500000+65312500000+65937500000
1505+66562500000+66875000000+67187500000+67187500000+66875000000+66562500000
1474+66250000000+66250000000+66250000000+66875000000+67187500000+68125000000
1442+68750000000+69375000000+70000000000+70625000000+70937500000+70625000000
1411+70312500000+69062500000+68437500000+67500000000+66562500000+65937500000
1379+65937500000+65625000000+65312500000+65000000000+65000000000+65000000000
1347+64687500000+64687500000+64687500000+64687500000+65000000000+65000000000
1316+65312500000+65625000000+65937500000+66250000000+66250000000+66250000000
1284+66562500000+66875000000+66875000000+67187500000+67500000000+67812500000
1253+68437500000+69375000000+70000000000+70937500000+71875000000+72500000000
1221+73750000000+74687500000+75625000000+75937500000+76562500000+76875000000
1189+77187500000+77500000000+78125000000+78750000000+79062500000+79687500000
1158+80000000000+80625000000+80937500000+81250000000+81562500000+81875000000
1126+82187500000+82500000000+82812500000+82812500000+83125000000+83125000000
1095+83125000000+83125000000+83125000000+83437500000+83437500000+83437500000
1063+83750000000+83750000000+84062500000+84375000000+84687500000+85000000000
1032+85312500000+85312500000+85625000000+85625000000+85000000000+83750000000
1000+82500000000+82187500000+82500000000+83437500000+83437500000+83750000000
968+84062500000+84687500000+84687500000+84687500000+84062500000+83125000000
937+82187500000+81250000000+81250000000+81250000000+81562500000+81875000000
905+81250000000+80000000000+79062500000+77812500000+76875000000+76562500000
874+76562500000+76875000000+77812500000+78750000000+78750000000+76562500000
842+74062500000+72500000000+70625000000+67500000000+65625000000+65625000000
811+66250000000+69687500000+75000000000+79062500000+81250000000+83125000000
779+84062500000+84687500000+86250000000+87187500000+87500000000+87812500000
747+88125000000+88125000000+88437500000+88437500000+88750000000+88750000000
716+89062500000+89062500000+89375000000+89375000000+89375000000+89375000000
684+89062500000+88750000000+88125000000+87812500000+87187500000+87187500000
653+87187500000+87187500000+87500000000+87812500000+88437500000+89062500000
621+89687500000+90312500000+90937500000+91250000000+91875000000+92187500000
589+92187500000+92187500000+92187500000+91875000000+91875000000+91562500000
558+91562500000+91250000000+91250000000+90937500000+90937500000+90625000000
526+90625000000+90625000000+90625000000+90625000000+90937500000+91562500000
495+92187500000+92812500000+93125000000+93750000000+94375000000+94687500000
463+94687500000+94687500000+94375000000+93750000000+93125000000+92187500000
432+90625000000+89687500000+89062500000+88437500000+88125000000+88125000000
400+88125000000
##END=
