##TITLE=8,10-diacetoxy-2,3-epoxy-4,10a,12-trihydroxy-1,1,4,12-tetramethylperhydro-7,8a-ethanobenz(f)azulene
##JCAMP-DX=4.24
##DATA TYPE=INFRARED SPECTRUM
##DATE=10/06/2025
##SAMPLING PROCEDURE=ATR
##ORIGIN=SDBS
##XUNITS=1/CM
##YUNITS=TRANSMITTANCE
##RESOLUTION=5.2631578947368425
##FIRSTX=4000.0
##LASTX=400.0
##DELTAX=-5.2631578947368425
##MAXY=95.0
##MINY=0.0
##XFACTOR=1
##YFACTOR=1
##NPOINTS=685
##FIRSTY=0.0
##XYDATA=(X++(Y..Y))
4000+0+93750000000+94062500000+94062500000+94062500000+94062500000
3968+94062500000+93750000000+93750000000+93750000000+94062500000+94062500000
3937+93750000000+93750000000+93750000000+93750000000+93750000000+94062500000
3905+94062500000+94062500000+93750000000+93437500000+93125000000+93125000000
3874+93125000000+93125000000+93437500000+93437500000+93437500000+93437500000
3842+93437500000+93750000000+93750000000+93437500000+93437500000+93437500000
3811+93437500000+93750000000+94062500000+94062500000+93750000000+93437500000
3779+93437500000+93437500000+93437500000+93437500000+93125000000+93125000000
3747+92812500000+92812500000+92500000000+92500000000+92187500000+91875000000
3716+91562500000+90937500000+90312500000+89375000000+88125000000+86562500000
3684+84062500000+80625000000+72500000000+60312500000+45625000000+44687500000
3653+50312500000+62812500000+55625000000+43437499999+32812500000+31250000000
3621+33750000000+43437499999+48437500000+51562500000+52500000000+50937500000
3589+47500000000+42812500000+36250000000+34687500000+34375000000+34062500000
3558+35312500000+44375000000+51875000000+57187500000+60312500000+63750000000
3526+66250000000+68750000000+70312500000+72500000000+74687500000+76250000000
3495+77500000000+78125000000+79062500000+79687500000+80312500000+80625000000
3463+81250000000+81875000000+82187500000+82500000000+82812500000+83125000000
3432+83437500000+83750000000+84062500000+84687500000+85000000000+84687500000
3400+85937500000+86250000000+86562500000+85937500000+87187500000+87187500000
3368+87187500000+87187500000+87187500000+87187500000+86875000000+86250000000
3337+84687500000+83750000000+82500000000+78437500000+73125000000+65000000000
3305+65625000000+46250000000+32500000000+36562500000+20937500000+9687500000
3274+8437500000+12812500000+9375000000+5625000000+4687500000+5937500000
3242+11562500000+17500000000+24375000000+29687500000+32812500000+28750000000
3211+25937500000+20000000000+20312500000+37500000000+60625000000+73125000000
3179+79062500000+82187500000+84375000000+85937500000+87187500000+87500000000
3147+88437500000+89062500000+89375000000+89375000000+89062500000+88437500000
3116+88437500000+88437500000+88750000000+89062500000+89062500000+89062500000
3084+89062500000+89062500000+89062500000+89375000000+89687500000+90312500000
3053+90625000000+90625000000+90937500000+90937500000+91250000000+91562500000
3021+91562500000+91875000000+92187500000+92500000000+92500000000+92812500000
2989+93125000000+93125000000+93125000000+92812500000+92812500000+92812500000
2958+92812500000+92500000000+92500000000+92812500000+92812500000+93125000000
2926+93125000000+92812500000+92812500000+93125000000+93125000000+93125000000
2895+93437500000+93437500000+93125000000+93125000000+93125000000+93125000000
2863+93437500000+93437500000+93437500000+93437500000+93437500000+93750000000
2832+93750000000+93750000000+93750000000+93750000000+93750000000+93750000000
2800+93750000000+93750000000+93750000000+93750000000+93750000000+93750000000
2768+93750000000+94062500000+93750000000+93750000000+93750000000+93750000000
2737+93750000000+93750000000+93750000000+93750000000+93750000000+94062500000
2705+94062500000+94375000000+94687500000+94375000000+94375000000+94062500000
2674+94062500000+94062500000+94062500000+94062500000+94375000000+94375000000
2642+94375000000+94687500000+94687500000+94687500000+94687500000+94375000000
2611+94375000000+94375000000+94375000000+94687500000+94687500000+94687500000
2579+94687500000+94687500000+94687500000+94687500000+94687500000+94687500000
2547+94687500000+94687500000+94687500000+94687500000+94687500000+94687500000
2516+94687500000+94687500000+94687500000+94687500000+94687500000+94687500000
2484+95000000000+95000000000+94687500000+94687500000+94687500000+94687500000
2453+94687500000+94375000000+94375000000+94375000000+94375000000+94375000000
2421+94375000000+94375000000+94062500000+94062500000+94062500000+94062500000
2389+94062500000+94062500000+94062500000+93750000000+93750000000+93750000000
2358+93437500000+93125000000+92812500000+92500000000+92187500000+91875000000
2326+91562500000+91562500000+91562500000+91562500000+90937500000+90000000000
2295+89062500000+86875000000+82812500000+76875000000+68125000000+55937500000
2263+44687500000+31875000000+15312500000+8125000000+8437500000+12187500000
2232+13437500000+14687500000+33437500000+54687500000+65312500000+71250000000
2200+77187500000+81562500000+83125000000+83750000000+85625000000+85625000000
2168+86562500000+88125000000+88750000000+89062500000+89062500000+89062500000
2137+89062500000+89062500000+89062500000+89375000000+90000000000+90625000000
2105+91250000000+91875000000+92187500000+92500000000+92812500000+93125000000
2074+93437500000+93437500000+93437500000+93437500000+93750000000+93750000000
2042+93750000000+93750000000+93750000000+93750000000+93750000000+93437500000
2011+93437500000+93125000000+93125000000+93125000000+92812500000+92812500000
1979+92500000000+92187500000+92187500000+92187500000+92187500000+92187500000
1947+92187500000+92187500000+91875000000+91562500000+90937500000+90312500000
1916+89687500000+88437500000+86875000000+85000000000+81250000000+73750000000
1884+58125000000+46250000000+36250000000+36250000000+40625000000+42187500000
1853+43437499999+47500000000+48437500000+49687499999+50937500000+59062500000
1821+67187500000+72500000000+75312500000+77187500000+78750000000+79375000000
1789+76875000000+72812500000+69062500000+63437500000+49375000000+46250000000
1758+46250000000+43125000000+30312500000+30000000000+27812500000+27812500000
1726+33437500000+49687499999+50000000000+50625000000+54375000000+62500000000
1695+70625000000+69687500000+70312500000+66562500000+66875000000+67187500000
1663+71250000000+77500000000+75312500000+70312500000+71250000000+70937500000
1632+65937500000+63125000000+68750000000+55000000000+42187500000+40312499999
1600+41250000000+24687500000+12500000000+8437500000+7187500000+8125000000
1568+13750000000+13750000000+19062500000+25937500000+41250000000+51250000000
1537+60625000000+66250000000+61250000000+61250000000+67187500000+72187500000
1505+70312500000+65625000000+60000000000+56562500000+57500000000+57812500000
1474+58125000000+66250000000+74062500000+70000000000+66250000000+58437500000
1442+50937500000+51562500000+59062500000+68750000000+65937500000+50000000000
1411+47812500000+51250000000+55625000000+51875000000+52187500000+55312500000
1379+59687500000+61562500000+73125000000+71875000000+68437500000+45937500000
1347+37187499999+43750000000+64687500000+75625000000+80000000000+78125000000
1316+74375000000+68750000000+60937500000+55000000000+43125000000+24687500000
1284+22500000000+29375000000+47500000000+53437500000+47812500000+48750000000
1253+55625000000+60625000000+70937500000+77187500000+79062500000+79375000000
1221+69062500000+67500000000+73125000000+74687500000+81250000000+83125000000
1189+73437500000+70000000000+73750000000+82500000000+80000000000+69375000000
1158+65000000000+46562499999+29375000000+29375000000+40937500000+68437500000
1126+59687500000+58437500000+62812500000+70937500000+59375000000+59375000000
1095+61875000000+74687500000+62812500000+59062500000+70625000000+75312500000
1063+63750000000+65000000000+72500000000+78437500000+50000000000+41874999999
1032+61250000000+81562500000+87812500000+90000000000+90625000000+91250000000
1000+91562500000+90000000000+83750000000+85000000000+91875000000+82187500000
968+82500000000+92187500000+89375000000+78750000000+81875000000+91875000000
937+93437500000+94062500000+94062500000+93750000000+92812500000+86250000000
905+73125000000+71250000000+78437500000+90625000000+92500000000+91875000000
874+85312500000+82500000000+85625000000+91250000000+90625000000+89062500000
842+88125000000+88437500000+89687500000+91875000000+94062500000+91250000000
811+90625000000+82812500000+80625000000+90312500000+93437500000+93750000000
779+93750000000+93437500000+92812500000+91250000000+90625000000+85937500000
747+85937500000+86875000000+85000000000+78125000000+77812500000+80312500000
716+79062500000+80937500000+76562500000+73125000000+73125000000+73750000000
684+60625000000+59375000000+60312500000+61250000000+62500000000+64062500000
653+66562500000+68437500000+69375000000+70000000000+70625000000+71250000000
621+72500000000+75937500000+80000000000+82500000000+84062500000+85625000000
589+86250000000+86562500000+86562500000+86562500000+86562500000+86562500000
558+86562500000+86562500000+86250000000+86250000000+84375000000+83125000000
526+82500000000+82187500000+82500000000+83437500000+84687500000+84062500000
495+83125000000+82187500000+81562500000+81250000000+81250000000+81875000000
463+82500000000+82812500000+82500000000+81562500000+80312500000+78750000000
432+76875000000+75000000000+73750000000+72187500000+70937500000+70312500000
400+69687500000
##END=
