##TITLE=acenaphthene
##JCAMP-DX=4.24
##DATA TYPE=INFRARED SPECTRUM
##DATE=10/06/2025
##SAMPLING PROCEDURE=ATR
##ORIGIN=SDBS
##XUNITS=1/CM
##YUNITS=TRANSMITTANCE
##RESOLUTION=5.2631578947368425
##FIRSTX=4000.0
##LASTX=400.0
##DELTAX=-5.2631578947368425
##MAXY=94.6875
##MINY=0.0
##XFACTOR=1
##YFACTOR=1
##NPOINTS=685
##FIRSTY=0.0
##XYDATA=(X++(Y..Y))
4000+0+71250000000+71562500000+71562500000+71562500000+71250000000
3968+71250000000+70937500000+70937500000+70937500000+70937500000+70937500000
3937+70937500000+70625000000+70625000000+70312500000+70312500000+70312500000
3905+70312500000+70000000000+69687500000+69687500000+69375000000+69375000000
3874+69375000000+69687500000+69375000000+69375000000+69375000000+69375000000
3842+69375000000+69375000000+69375000000+69375000000+69062500000+69062500000
3811+69062500000+69375000000+69375000000+69062500000+69062500000+69062500000
3779+69062500000+69062500000+69062500000+69062500000+69062500000+69062500000
3747+69062500000+69375000000+69375000000+69062500000+69062500000+69062500000
3716+69062500000+69375000000+69375000000+69375000000+69375000000+69375000000
3684+69375000000+69062500000+68750000000+68750000000+68750000000+68437500000
3653+68437500000+68437500000+68437500000+68437500000+68125000000+68125000000
3621+68125000000+67812500000+67812500000+67500000000+67500000000+67500000000
3589+67187500000+67187500000+67187500000+67187500000+67187500000+67187500000
3558+67187500000+67187500000+67187500000+67500000000+67500000000+67187500000
3526+67187500000+67187500000+67187500000+66875000000+66875000000+66875000000
3495+66875000000+66875000000+66875000000+66875000000+66875000000+67187500000
3463+67187500000+67187500000+67187500000+67187500000+67187500000+67187500000
3432+67187500000+67187500000+67500000000+67500000000+67812500000+67812500000
3400+68125000000+68437500000+68437500000+68437500000+68437500000+68437500000
3368+68750000000+69062500000+68750000000+65312500000+59375000000+56562500000
3337+56875000000+56875000000+57500000000+58125000000+57187500000+55625000000
3305+52500000000+48750000000+40937500000+30937500000+19375000000+13750000000
3274+12812500000+13750000000+8125000000+5625000000+4687500000+5000000000
3242+10312500000+16562500000+23125000000+28125000000+28750000000+25312500000
3211+21250000000+17187500000+17812500000+34062500000+50937500000+63750000000
3179+71250000000+73750000000+75625000000+77187500000+77812500000+78437500000
3147+79062500000+79375000000+79375000000+79375000000+79062500000+78750000000
3116+78437500000+78437500000+78437500000+78437500000+78437500000+78437500000
3084+78437500000+78437500000+78437500000+78750000000+78750000000+78750000000
3053+78750000000+78750000000+79062500000+79375000000+79687500000+80000000000
3021+80312500000+80312500000+80625000000+80625000000+80937500000+80937500000
2989+81250000000+81250000000+81562500000+81250000000+81250000000+81250000000
2958+81250000000+81250000000+81875000000+82187500000+82187500000+82187500000
2926+82187500000+82187500000+82187500000+82187500000+82187500000+82187500000
2895+82500000000+82500000000+82500000000+82500000000+82500000000+82500000000
2863+82500000000+82500000000+82500000000+82500000000+82500000000+82812500000
2832+82812500000+82812500000+82812500000+83125000000+83125000000+83437500000
2800+83437500000+83437500000+83437500000+83437500000+83437500000+83750000000
2768+83750000000+83750000000+84062500000+84375000000+84062500000+84062500000
2737+84062500000+84375000000+84375000000+84687500000+84687500000+84687500000
2705+84687500000+85000000000+85000000000+85000000000+85000000000+85000000000
2674+85000000000+85000000000+85312500000+85312500000+85312500000+85312500000
2642+85625000000+85625000000+85937500000+86250000000+86250000000+86250000000
2611+86250000000+86250000000+86562500000+86562500000+86562500000+86562500000
2579+86562500000+86562500000+86875000000+86875000000+86875000000+87187500000
2547+87187500000+87500000000+87500000000+87187500000+85937500000+82812500000
2516+82500000000+82812500000+83437500000+84687500000+85312500000+85625000000
2484+85937500000+86250000000+86250000000+86250000000+86250000000+86250000000
2453+86250000000+86250000000+86250000000+86250000000+86250000000+86250000000
2421+86250000000+86250000000+85937500000+85937500000+85937500000+85937500000
2389+86250000000+86250000000+86562500000+86875000000+87187500000+87187500000
2358+87500000000+87500000000+87500000000+87187500000+86875000000+86562500000
2326+86250000000+85937500000+85937500000+85625000000+85000000000+84687500000
2295+84687500000+84687500000+84687500000+84687500000+85000000000+85000000000
2263+85312500000+85312500000+85625000000+85625000000+85937500000+85937500000
2232+85625000000+85625000000+85625000000+85625000000+85625000000+85625000000
2200+85625000000+85625000000+85625000000+85625000000+85937500000+85937500000
2168+86250000000+86250000000+86250000000+86250000000+85937500000+85937500000
2137+85937500000+85625000000+85625000000+85625000000+85625000000+85937500000
2105+86250000000+86562500000+86875000000+87187500000+86875000000+73750000000
2074+74687500000+65000000000+55000000000+54375000000+67500000000+63437500000
2042+66562500000+77500000000+80312500000+82500000000+85312500000+85937500000
2011+86250000000+86250000000+86250000000+86250000000+86250000000+86250000000
1979+86250000000+86250000000+86250000000+86250000000+85937500000+85937500000
1947+85625000000+85000000000+84375000000+84062500000+83125000000+80000000000
1916+77812500000+78750000000+81562500000+79687500000+78437500000+75937500000
1884+69375000000+53125000000+48750000000+48750000000+49062500000+50937500000
1853+52187500000+56250000000+61562500000+65937500000+70625000000+75937500000
1821+79687500000+58750000000+64062500000+66250000000+76250000000+80312500000
1789+81250000000+82187500000+82500000000+81875000000+79687500000+74687500000
1758+69375000000+62187500000+60000000000+57187500000+47812500000+48437500000
1726+63125000000+73750000000+75937500000+79062500000+81250000000+82187500000
1695+82812500000+83437500000+84062500000+84375000000+84375000000+84375000000
1663+84375000000+84062500000+84062500000+84062500000+84375000000+84687500000
1632+85312500000+85625000000+85937500000+84687500000+77812500000+80312500000
1600+83437500000+83437500000+82812500000+82187500000+81875000000+82187500000
1568+83437500000+84375000000+85000000000+85625000000+85937500000+86250000000
1537+86250000000+86250000000+86562500000+86250000000+83750000000+85937500000
1505+86875000000+87187500000+87187500000+86875000000+86562500000+86562500000
1474+85312500000+80000000000+83125000000+85000000000+86250000000+85937500000
1442+85625000000+85312500000+85000000000+85625000000+85625000000+85937500000
1411+85937500000+86250000000+86250000000+86250000000+86562500000+86250000000
1379+86250000000+86250000000+85937500000+85625000000+85625000000+85312500000
1347+85312500000+85000000000+85000000000+85000000000+85000000000+85312500000
1316+85312500000+85625000000+85625000000+85625000000+85625000000+85625000000
1284+85625000000+85625000000+85312500000+85000000000+84687500000+84062500000
1253+83750000000+83437500000+83437500000+83437500000+84062500000+84687500000
1221+85312500000+85937500000+86250000000+86562500000+86875000000+87187500000
1189+87187500000+87500000000+87812500000+88125000000+88125000000+88437500000
1158+88437500000+88437500000+88437500000+88437500000+88750000000+88750000000
1126+89062500000+89375000000+89375000000+90000000000+90312500000+90312500000
1095+90625000000+90625000000+89375000000+83437500000+89687500000+90312500000
1063+90000000000+89687500000+89687500000+89687500000+89687500000+90000000000
1032+90000000000+90312500000+89375000000+84375000000+68437500000+46562499999
1000+46562499999+73125000000+83125000000+85312500000+86562500000+87500000000
968+87812500000+84375000000+73437500000+66250000000+44062500000+44375000000
937+50625000000+30937500000+28437500000+40000000000+56875000000+68750000000
905+75000000000+80000000000+81562500000+84687500000+81875000000+69375000000
874+63125000000+70937500000+82812500000+86250000000+87812500000+86562500000
842+85937500000+86250000000+87812500000+90000000000+90937500000+91250000000
811+91875000000+91875000000+91875000000+91875000000+91875000000+91875000000
779+92187500000+91875000000+91875000000+91562500000+91562500000+91250000000
747+91250000000+91250000000+91250000000+91250000000+91250000000+91250000000
716+91250000000+91250000000+91562500000+91875000000+91875000000+92187500000
684+91875000000+91875000000+91562500000+91562500000+91562500000+91562500000
653+91562500000+91562500000+91250000000+90937500000+90937500000+91250000000
621+91562500000+92187500000+92812500000+93750000000+94375000000+94687500000
589+94687500000+94687500000+94687500000+94687500000+94375000000+94062500000
558+93750000000+93437500000+93125000000+92812500000+92187500000+91562500000
526+91250000000+90625000000+90312500000+90000000000+90000000000+89687500000
495+89375000000+89375000000+89687500000+89687500000+90312500000+91250000000
463+91875000000+91875000000+90312500000+87500000000+84375000000+79687500000
432+74687500000+69687500000+65937500000+62500000000+59375000000+57500000000
400+56562500000
##END=
