##TITLE=acetophenone
##JCAMP-DX=4.24
##DATA TYPE=INFRARED SPECTRUM
##DATE=10/06/2025
##SAMPLING PROCEDURE=ATR
##ORIGIN=SDBS
##XUNITS=1/CM
##YUNITS=TRANSMITTANCE
##RESOLUTION=5.2631578947368425
##FIRSTX=4000.0
##LASTX=400.0
##DELTAX=-5.2631578947368425
##MAXY=95.0
##MINY=0.0
##XFACTOR=1
##YFACTOR=1
##NPOINTS=685
##FIRSTY=0.0
##XYDATA=(X++(Y..Y))
4000+0+93437500000+93437500000+93437500000+93750000000+93750000000
3968+93750000000+93750000000+93750000000+93750000000+93750000000+93750000000
3937+94062500000+94062500000+94062500000+94062500000+94062500000+94062500000
3905+94062500000+94062500000+94062500000+94062500000+94062500000+94062500000
3874+94062500000+93750000000+93750000000+93750000000+93750000000+93750000000
3842+93750000000+94062500000+94062500000+94062500000+94062500000+93750000000
3811+93750000000+93437500000+93437500000+93437500000+93125000000+92812500000
3779+91875000000+90937500000+90312500000+90000000000+89375000000+89062500000
3747+88750000000+88437500000+88437500000+88125000000+88125000000+88125000000
3716+88125000000+87812500000+87812500000+87500000000+87187500000+87187500000
3684+86562500000+86250000000+85937500000+85937500000+85937500000+85937500000
3653+85937500000+86250000000+86250000000+86250000000+86562500000+86875000000
3621+87187500000+87500000000+87812500000+88125000000+88437500000+88750000000
3589+89375000000+89687500000+89687500000+90000000000+89375000000+88437500000
3558+85625000000+83750000000+83437500000+85000000000+87500000000+89375000000
3526+90312500000+90625000000+90937500000+90937500000+90625000000+90625000000
3495+90625000000+90625000000+90625000000+90625000000+90625000000+90625000000
3463+90625000000+90625000000+90312500000+90312500000+90000000000+90000000000
3432+89687500000+89375000000+89062500000+89062500000+89062500000+88750000000
3400+88437500000+88125000000+87500000000+85937500000+81875000000+81875000000
3368+74687500000+74375000000+72812500000+66250000000+65625000000+68125000000
3337+75625000000+75000000000+74375000000+75000000000+74062500000+70000000000
3305+70000000000+76562500000+81875000000+80312500000+79375000000+79375000000
3274+81250000000+84062500000+83750000000+82187500000+82187500000+82500000000
3242+85000000000+87187500000+88437500000+88750000000+88125000000+87500000000
3211+87500000000+87812500000+89375000000+90625000000+91562500000+91875000000
3179+92500000000+92812500000+92812500000+92812500000+92812500000+92812500000
3147+92812500000+92812500000+92812500000+92812500000+93125000000+93437500000
3116+93437500000+93437500000+93750000000+93750000000+93750000000+93437500000
3084+93437500000+93437500000+93437500000+93437500000+93125000000+92812500000
3053+92812500000+92812500000+92812500000+92812500000+92812500000+93125000000
3021+93125000000+93437500000+93437500000+93437500000+93437500000+93750000000
2989+93750000000+93125000000+92812500000+92812500000+93125000000+93437500000
2958+93750000000+94062500000+94062500000+94375000000+94375000000+94062500000
2926+94062500000+94062500000+94062500000+94062500000+94062500000+94375000000
2895+94375000000+94062500000+93750000000+93437500000+93437500000+93437500000
2863+93437500000+93437500000+93437500000+93437500000+93437500000+93437500000
2832+93437500000+93437500000+93750000000+93750000000+93750000000+94062500000
2800+94062500000+94062500000+94062500000+94375000000+94375000000+94062500000
2768+94062500000+94062500000+94062500000+94375000000+94375000000+94687500000
2737+94687500000+94687500000+95000000000+95000000000+95000000000+94687500000
2705+94687500000+94687500000+94687500000+94687500000+94375000000+94062500000
2674+94062500000+94375000000+94375000000+94375000000+94062500000+94062500000
2642+93750000000+93437500000+93437500000+93437500000+92812500000+90937500000
2611+89687500000+89375000000+89375000000+89375000000+89375000000+89062500000
2579+89062500000+89062500000+89062500000+89375000000+89687500000+90312500000
2547+90937500000+91562500000+91875000000+92187500000+92500000000+92187500000
2516+91875000000+90937500000+90312500000+89687500000+89062500000+88437500000
2484+88125000000+88125000000+88125000000+88750000000+90000000000+90937500000
2453+91875000000+92500000000+93125000000+93437500000+93125000000+92812500000
2421+92187500000+91562500000+90937500000+90937500000+90937500000+90937500000
2389+90937500000+90625000000+90312500000+89687500000+89062500000+88750000000
2358+88750000000+89062500000+89687500000+90312500000+90937500000+91562500000
2326+91562500000+90625000000+90000000000+89062500000+87812500000+87187500000
2295+86250000000+84687500000+84062500000+84375000000+84687500000+85000000000
2263+84687500000+83750000000+82500000000+80937500000+79375000000+78125000000
2232+77500000000+76875000000+75625000000+73125000000+70000000000+63750000000
2200+52500000000+33437500000+14375000000+5937500000+4687500000+4687500000
2168+5625000000+8437500000+19062500000+33437500000+47812500000+58437500000
2137+66250000000+70937500000+71875000000+71250000000+71875000000+75625000000
2105+78437500000+79062500000+78750000000+76875000000+74062500000+73750000000
2074+73750000000+71250000000+55000000000+22812500000+23125000000+51562500000
2042+61875000000+46562499999+41874999999+57187500000+71562500000+76875000000
2011+80937500000+83750000000+85625000000+85937500000+85000000000+84375000000
1979+84375000000+84375000000+85000000000+86250000000+87187500000+87500000000
1947+87812500000+88437500000+88750000000+89062500000+89062500000+88437500000
1916+86875000000+84062500000+83750000000+85937500000+86875000000+86562500000
1884+85625000000+84375000000+82187500000+79062500000+72187500000+60000000000
1853+30937500000+26875000000+34375000000+48750000000+54687500000+53437500000
1821+53437500000+53437500000+54375000000+56875000000+62812500000+69687500000
1789+74062500000+77187500000+78125000000+77812500000+77500000000+76562500000
1758+75000000000+72812500000+67812500000+57812500000+41562500000+22500000000
1726+14062500000+13750000000+21562500000+45312500000+60937500000+71250000000
1695+76250000000+78437500000+80625000000+82187500000+80937500000+78125000000
1663+68125000000+65312500000+65625000000+55937500000+55625000000+64062500000
1632+72812500000+71250000000+66250000000+57187500000+38437500000+17187500000
1600+6562500000+5625000000+6562500000+13750000000+23125000000+30625000000
1568+36875000000+44687500000+55000000000+66562500000+74687500000+79375000000
1537+81250000000+82812500000+83750000000+84062500000+83750000000+83437500000
1505+83125000000+82500000000+81562500000+78437500000+70312500000+60937500000
1474+60000000000+63437500000+73437500000+80000000000+80625000000+78437500000
1442+78750000000+84062500000+86875000000+88437500000+89062500000+89687500000
1411+90000000000+90312500000+90312500000+90000000000+89687500000+88437500000
1379+86562500000+83125000000+81875000000+82187500000+83750000000+84375000000
1347+81562500000+73437500000+65000000000+65000000000+73125000000+82500000000
1316+87187500000+88750000000+89687500000+90312500000+90625000000+90625000000
1284+90000000000+89062500000+86875000000+79062500000+51875000000+52187500000
1253+66875000000+75625000000+81875000000+84375000000+82187500000+78437500000
1221+82500000000+86562500000+87500000000+87500000000+86250000000+84375000000
1189+83125000000+79687500000+70937500000+55625000000+40000000000+38437500000
1158+43437499999+63437500000+76875000000+81562500000+80312500000+75937500000
1126+74062500000+74375000000+79687500000+86250000000+89062500000+90312500000
1095+91250000000+91875000000+92187500000+92500000000+92812500000+93125000000
1063+93437500000+93437500000+93750000000+93750000000+93437500000+93125000000
1032+92500000000+91250000000+90312500000+90312500000+90312500000+91250000000
1000+91562500000+92500000000+93125000000+93437500000+93437500000+93750000000
968+93750000000+93437500000+93437500000+93125000000+92500000000+91875000000
937+90625000000+89062500000+86562500000+82500000000+73125000000+56250000000
905+32812500000+19687500000+15937500000+16250000000+28750000000+57812500000
874+74375000000+83125000000+86875000000+85312500000+81875000000+83437500000
842+89062500000+90625000000+89375000000+86875000000+80312500000+68437500000
811+53125000000+27812500000+15312500000+15000000000+23750000000+56562500000
779+73437500000+78437500000+82187500000+87187500000+90937500000+92500000000
747+93125000000+93750000000+94062500000+94375000000+94375000000+94062500000
716+93750000000+93437500000+92500000000+88125000000+83437500000+88750000000
684+86250000000+81250000000+68750000000+45625000000+25625000000+17812500000
653+17500000000+40000000000+68437500000+82500000000+87812500000+90312500000
621+91562500000+92500000000+93125000000+93750000000+94062500000+94062500000
589+94375000000+94375000000+94375000000+94375000000+94375000000+94375000000
558+94375000000+94375000000+94375000000+94375000000+94062500000+94062500000
526+93750000000+93437500000+92812500000+92500000000+92187500000+91875000000
495+91875000000+91875000000+91875000000+91875000000+92187500000+92500000000
463+92812500000+92812500000+92812500000+91875000000+91250000000+90312500000
432+89375000000+89062500000+89062500000+89062500000+89375000000+90000000000
400+90312500000
##END=
