##TITLE=acetaldehyde diethyl acetal
##JCAMP-DX=4.24
##DATA TYPE=INFRARED SPECTRUM
##DATE=10/06/2025
##SAMPLING PROCEDURE=ATR
##ORIGIN=SDBS
##XUNITS=1/CM
##YUNITS=TRANSMITTANCE
##RESOLUTION=5.2631578947368425
##FIRSTX=4000.0
##LASTX=400.0
##DELTAX=-5.2631578947368425
##MAXY=95.0
##MINY=0.0
##XFACTOR=1
##YFACTOR=1
##NPOINTS=685
##FIRSTY=0.0
##XYDATA=(X++(Y..Y))
4000+0+89375000000+89687500000+89687500000+89687500000+90000000000
3968+90312500000+90312500000+90625000000+90625000000+90937500000+91250000000
3937+91250000000+91562500000+91562500000+91875000000+91875000000+91875000000
3905+91875000000+91875000000+91875000000+91875000000+91875000000+91875000000
3874+91875000000+91875000000+91875000000+91875000000+91875000000+91875000000
3842+91875000000+91875000000+91875000000+92187500000+92187500000+91875000000
3811+91875000000+91875000000+91562500000+91250000000+91250000000+90937500000
3779+90937500000+90937500000+90937500000+90625000000+90312500000+90000000000
3747+89687500000+89375000000+89062500000+89062500000+88750000000+88750000000
3716+88750000000+88750000000+88750000000+88750000000+88437500000+88125000000
3684+87500000000+87187500000+86875000000+86562500000+86562500000+86875000000
3653+86875000000+87187500000+87500000000+88125000000+88125000000+88437500000
3621+88750000000+88750000000+88750000000+88750000000+88750000000+88750000000
3589+89062500000+89062500000+89062500000+89062500000+89375000000+89375000000
3558+89375000000+89375000000+89375000000+89375000000+89375000000+89687500000
3526+89687500000+89687500000+90000000000+90000000000+90000000000+90000000000
3495+90000000000+89687500000+89687500000+89375000000+89062500000+88750000000
3463+88750000000+88437500000+88437500000+88437500000+88437500000+88437500000
3432+88437500000+88750000000+89062500000+89062500000+89375000000+89375000000
3400+89375000000+89062500000+89062500000+89062500000+88750000000+88437500000
3368+88125000000+87812500000+87187500000+86250000000+85625000000+84375000000
3337+82500000000+80625000000+77500000000+72812500000+64062500000+50625000000
3305+25000000000+11250000000+6250000000+5625000000+7812500000+22812500000
3274+35625000000+26875000000+20937500000+20000000000+23750000000+22812500000
3242+18437500000+16562500000+16875000000+17187500000+17187500000+17812500000
3211+22812500000+30312500000+37500000000+46250000000+55937500000+61562500000
3179+64687500000+67812500000+70312500000+70312500000+70625000000+72500000000
3147+75312500000+75000000000+75000000000+76250000000+79062500000+79687500000
3116+79687500000+80937500000+82500000000+84687500000+85312500000+87187500000
3084+88437500000+87812500000+85625000000+84062500000+83437500000+83125000000
3053+83750000000+86875000000+88750000000+89687500000+89687500000+90312500000
3021+91875000000+92812500000+93437500000+93750000000+93750000000+93750000000
2989+93750000000+93750000000+93750000000+93750000000+94062500000+94062500000
2958+94062500000+94062500000+94062500000+94062500000+94062500000+94062500000
2926+93750000000+93437500000+93125000000+93125000000+93437500000+93750000000
2895+94062500000+94375000000+94687500000+94687500000+95000000000+94687500000
2863+94687500000+94375000000+94375000000+94062500000+94062500000+93750000000
2832+93750000000+93437500000+93437500000+93437500000+93437500000+93437500000
2800+93437500000+93437500000+93750000000+93750000000+93437500000+93437500000
2768+93125000000+93125000000+93125000000+92812500000+92812500000+93125000000
2737+93125000000+93437500000+93437500000+93437500000+93437500000+93750000000
2705+93750000000+93750000000+93750000000+93750000000+93750000000+93750000000
2674+93750000000+93750000000+93750000000+93750000000+93750000000+93750000000
2642+94062500000+94062500000+93750000000+93125000000+92500000000+91875000000
2611+91250000000+90937500000+90625000000+90312500000+90312500000+90000000000
2579+90000000000+90000000000+90000000000+90000000000+90000000000+90312500000
2547+90312500000+90312500000+90312500000+90625000000+90625000000+90625000000
2516+90625000000+90312500000+90312500000+90000000000+90000000000+90000000000
2484+90000000000+90312500000+90625000000+90937500000+91250000000+91875000000
2453+92187500000+92500000000+92500000000+92812500000+93125000000+93125000000
2421+93437500000+93437500000+93750000000+93750000000+93750000000+93750000000
2389+93750000000+93750000000+93750000000+93750000000+93750000000+93437500000
2358+93125000000+92812500000+92500000000+92187500000+92187500000+92500000000
2326+92500000000+92500000000+92500000000+92187500000+91875000000+91250000000
2295+90625000000+89687500000+88125000000+85937500000+84062500000+80000000000
2263+73750000000+69375000000+69375000000+71875000000+76562500000+79062500000
2232+80000000000+81250000000+83125000000+85625000000+87187500000+85000000000
2200+76875000000+70937500000+71562500000+78125000000+85625000000+88437500000
2168+88750000000+89062500000+90625000000+91250000000+91250000000+91250000000
2137+91250000000+90937500000+90625000000+89375000000+89375000000+89687500000
2105+90000000000+90312500000+90625000000+90937500000+91250000000+91250000000
2074+91562500000+91875000000+92187500000+92187500000+92500000000+92500000000
2042+92812500000+92812500000+92812500000+92812500000+92812500000+92812500000
2011+92812500000+92812500000+92812500000+92500000000+92500000000+92500000000
1979+92187500000+91875000000+91875000000+91250000000+90937500000+90312500000
1947+89687500000+88750000000+88125000000+87812500000+86875000000+85937500000
1916+84687500000+80937500000+74687500000+63437500000+61562500000+64687500000
1884+70312500000+69375000000+65312500000+58125000000+53437500000+53125000000
1853+50000000000+41562500000+39062500000+40625000000+50937500000+62187500000
1821+68125000000+70937500000+71250000000+68750000000+63437500000+56562500000
1789+48750000000+43750000000+38125000000+31875000000+29375000000+27812500000
1758+19687500000+17812500000+18125000000+22187500000+25937500000+43437499999
1726+53750000000+58750000000+65625000000+55625000000+40937500000+31250000000
1695+29062500000+32812500000+50625000000+66875000000+74062500000+77187500000
1663+78437500000+77500000000+75937500000+73750000000+71562500000+71250000000
1632+71875000000+74062500000+76562500000+76875000000+75625000000+75312500000
1600+75312500000+76562500000+78437500000+79375000000+78125000000+76875000000
1568+75312500000+73750000000+72812500000+72812500000+73437500000+74375000000
1537+75312500000+74062500000+72187500000+70312500000+66562500000+61875000000
1505+55312500000+48124999999+39687500000+32500000000+28437500000+25937500000
1474+23750000000+22500000000+21875000000+20937500000+18750000000+15625000000
1442+13125000000+11250000000+8437500000+5937500000+5000000000+4687500000
1411+5312500000+7500000000+10937500000+13437500000+11875000000+9062500000
1379+8125000000+6875000000+6562500000+6562500000+8437500000+9687500000
1347+8125000000+7187500000+7187500000+10312500000+17500000000+11250000000
1316+7812500000+7187500000+7812500000+10937500000+14687500000+19375000000
1284+27812500000+35937500000+34062500000+31875000000+33125000000+43750000000
1253+56250000000+65312500000+71562500000+75937500000+79062500000+80625000000
1221+82187500000+82500000000+82187500000+80937500000+78437500000+74375000000
1189+69062500000+60000000000+43750000000+26875000000+21875000000+16250000000
1158+15937500000+21562500000+34062500000+41874999999+46250000000+53750000000
1126+63125000000+65625000000+57187500000+56250000000+60937500000+69375000000
1095+76562500000+80937500000+83750000000+85312500000+86562500000+87187500000
1063+86875000000+86250000000+84687500000+81875000000+76562500000+65000000000
1032+53125000000+40937500000+38125000000+40312499999+52812500000+61250000000
1000+65937500000+72812500000+78437500000+81562500000+80312500000+77500000000
968+75625000000+75312500000+75312500000+77500000000+80937500000+82187500000
937+82500000000+83125000000+84687500000+87187500000+88750000000+90625000000
905+91875000000+92812500000+93125000000+93750000000+94062500000+94375000000
874+94375000000+94687500000+94687500000+94687500000+94687500000+95000000000
842+95000000000+95000000000+95000000000+94687500000+94687500000+94687500000
811+94687500000+94687500000+94687500000+94687500000+94687500000+94375000000
779+94375000000+94062500000+92812500000+92187500000+91562500000+91562500000
747+91562500000+92187500000+92812500000+93437500000+94062500000+94375000000
716+94375000000+94375000000+94375000000+94062500000+94062500000+94062500000
684+94062500000+93750000000+93437500000+93437500000+93125000000+92812500000
653+92500000000+92500000000+92187500000+92187500000+92187500000+92187500000
621+92187500000+92187500000+91875000000+91250000000+90625000000+89375000000
589+87500000000+83750000000+76875000000+75312500000+76250000000+81875000000
558+86250000000+89687500000+90937500000+92187500000+92500000000+93437500000
526+93437500000+93125000000+93125000000+92500000000+92187500000+91875000000
495+91562500000+91250000000+90937500000+90937500000+90625000000+90625000000
463+90312500000+90000000000+89062500000+88125000000+86875000000+85312500000
432+84062500000+83125000000+82500000000+81875000000+81562500000+81250000000
400+81250000000
##END=
