##TITLE=acetone oxime
##JCAMP-DX=4.24
##DATA TYPE=INFRARED SPECTRUM
##DATE=10/06/2025
##SAMPLING PROCEDURE=ATR
##ORIGIN=SDBS
##XUNITS=1/CM
##YUNITS=TRANSMITTANCE
##RESOLUTION=5.2631578947368425
##FIRSTX=4000.0
##LASTX=400.0
##DELTAX=-5.2631578947368425
##MAXY=95.0
##MINY=0.0
##XFACTOR=1
##YFACTOR=1
##NPOINTS=685
##FIRSTY=0.0
##XYDATA=(X++(Y..Y))
4000+0+91875000000+91562500000+91562500000+91562500000+91875000000
3968+91875000000+91875000000+92187500000+91875000000+91875000000+91875000000
3937+91875000000+92187500000+91875000000+91875000000+91562500000+91562500000
3905+91562500000+91562500000+91562500000+91562500000+91562500000+91562500000
3874+91562500000+91875000000+91875000000+91875000000+91875000000+91562500000
3842+91562500000+91562500000+91562500000+91562500000+91562500000+91562500000
3811+91562500000+91875000000+92500000000+92812500000+92812500000+92812500000
3779+92812500000+92812500000+92812500000+92812500000+92812500000+92812500000
3747+92812500000+92500000000+92187500000+92187500000+92500000000+92812500000
3716+92812500000+92812500000+93125000000+93437500000+93437500000+93125000000
3684+92812500000+92500000000+91875000000+91562500000+90937500000+90000000000
3653+89062500000+88437500000+87187500000+85937500000+84687500000+83437500000
3621+81875000000+79687500000+78125000000+76562500000+74062500000+71250000000
3589+67500000000+65000000000+60937500000+55937500000+51250000000+47187500000
3558+43750000000+41562500000+41250000000+41250000000+41562500000+42812500000
3526+43750000000+44375000000+43437499999+41874999999+39687500000+38125000000
3495+36250000000+34062500000+32812500000+31875000000+30312500000+29062500000
3463+27812500000+27187500000+26250000000+26250000000+26250000000+26562500000
3432+27187500000+28750000000+30312500000+31250000000+29687500000+28750000000
3400+28750000000+29062500000+30000000000+31562500000+33437500000+35000000000
3368+35625000000+36875000000+37812500000+39062500000+40625000000+40937500000
3337+41562500000+42500000000+42500000000+41562500000+40000000000+38749999999
3305+33437500000+28750000000+24062500000+18125000000+11250000000+8750000000
3274+8437500000+8437500000+7187500000+5312500000+4687500000+5000000000
3242+6250000000+7500000000+8750000000+10000000000+11250000000+10625000000
3211+9687500000+8437500000+9375000000+13750000000+23750000000+31875000000
3179+37812500000+41874999999+45312500000+47500000000+50625000000+53125000000
3147+55000000000+55625000000+56250000000+55937500000+55625000000+55937500000
3116+57500000000+59062500000+61250000000+62812500000+64062500000+65000000000
3084+65937500000+66875000000+68125000000+69375000000+70937500000+70937500000
3053+72187500000+73125000000+73437500000+74375000000+75312500000+76250000000
3021+76562500000+77500000000+78125000000+78437500000+78750000000+79375000000
2989+80000000000+80937500000+81875000000+82500000000+83125000000+83125000000
2958+83125000000+83437500000+84062500000+84687500000+85312500000+85625000000
2926+85937500000+85937500000+86250000000+86562500000+86875000000+87187500000
2895+87500000000+87500000000+87812500000+88125000000+88437500000+88437500000
2863+88437500000+88750000000+88750000000+88750000000+88750000000+88750000000
2832+88750000000+88750000000+88750000000+88750000000+89375000000+89687500000
2800+90000000000+90312500000+90312500000+90312500000+90625000000+90625000000
2768+90937500000+91250000000+91562500000+91250000000+91250000000+91250000000
2737+91562500000+91875000000+91875000000+92187500000+92500000000+92812500000
2705+93125000000+92812500000+92812500000+92500000000+92187500000+92187500000
2674+92187500000+92500000000+92812500000+92812500000+93125000000+93437500000
2642+93125000000+93125000000+93125000000+93125000000+93437500000+93750000000
2611+94062500000+94062500000+94062500000+94062500000+94375000000+94375000000
2579+94375000000+94375000000+94687500000+94687500000+94687500000+94687500000
2547+94687500000+95000000000+95000000000+94687500000+94687500000+94687500000
2516+94375000000+94062500000+94062500000+93750000000+93750000000+93750000000
2484+93750000000+93750000000+93750000000+93750000000+93750000000+94062500000
2453+94062500000+94062500000+94062500000+94062500000+94062500000+94062500000
2421+94062500000+94062500000+94062500000+94062500000+94062500000+94062500000
2389+94062500000+94062500000+94062500000+94062500000+94375000000+94375000000
2358+94375000000+94375000000+94375000000+94062500000+94062500000+94062500000
2326+94062500000+94062500000+94062500000+94062500000+94062500000+94062500000
2295+94062500000+94062500000+94062500000+94062500000+94062500000+94062500000
2263+94375000000+94375000000+94062500000+94062500000+93750000000+93437500000
2232+93125000000+92812500000+92812500000+92500000000+92187500000+91875000000
2200+91562500000+90937500000+90000000000+85625000000+77187500000+62187500000
2168+46875000000+44375000000+49375000000+62187500000+70312500000+77500000000
2137+82187500000+84375000000+85625000000+85625000000+85000000000+85000000000
2105+85937500000+86875000000+87500000000+88125000000+88437500000+88437500000
2074+88437500000+88437500000+88125000000+88125000000+87812500000+87500000000
2042+87187500000+86875000000+86250000000+85625000000+85000000000+84375000000
2011+83750000000+83125000000+82812500000+82187500000+81250000000+80312500000
1979+79375000000+78125000000+76562500000+74375000000+72500000000+69375000000
1947+66250000000+61562500000+57187500000+52187500000+47187500000+43125000000
1916+41562500000+41250000000+41562500000+43437499999+45937500000+47187500000
1884+44375000000+36875000000+30937500000+30937500000+31250000000+33125000000
1853+35000000000+40625000000+44375000000+47500000000+50312500000+53437500000
1821+54062500000+53750000000+54375000000+58125000000+63437500000+67500000000
1789+70312500000+72500000000+74375000000+75000000000+71250000000+62812500000
1758+51875000000+32500000000+26562500000+36250000000+38125000000+37500000000
1726+42500000000+54062500000+62500000000+67812500000+71562500000+74687500000
1695+76562500000+79062500000+80625000000+81875000000+83437500000+84062500000
1663+84375000000+84687500000+85000000000+85312500000+85625000000+86250000000
1632+87187500000+87812500000+88125000000+87500000000+84687500000+74687500000
1600+50625000000+49375000000+58437500000+68125000000+75312500000+81562500000
1568+84062500000+85937500000+87187500000+88125000000+88750000000+89687500000
1537+90000000000+90625000000+91250000000+91562500000+91875000000+92187500000
1505+92500000000+92812500000+93125000000+93437500000+93437500000+93437500000
1474+93125000000+93125000000+92812500000+92812500000+92500000000+92500000000
1442+92500000000+92812500000+92812500000+93125000000+93125000000+93125000000
1411+93125000000+93125000000+93125000000+92812500000+92187500000+91562500000
1379+90937500000+90000000000+88437500000+86562500000+84375000000+79687500000
1347+72187500000+63437500000+54062500000+41250000000+32187500000+31250000000
1316+32812500000+37812500000+47500000000+58750000000+67500000000+72812500000
1284+77500000000+80312500000+82187500000+83750000000+85312500000+86562500000
1253+87500000000+88125000000+88125000000+87812500000+87500000000+86875000000
1221+85000000000+80312500000+74062500000+62187500000+48437500000+46250000000
1189+46250000000+47187500000+48750000000+48437500000+45937500000+40000000000
1158+34687500000+33437500000+33750000000+38437500000+49375000000+58437500000
1126+59375000000+53125000000+52812500000+57500000000+64687500000+70000000000
1095+74375000000+77187500000+78437500000+79062500000+79687500000+80312500000
1063+80625000000+80937500000+80937500000+81250000000+80937500000+80937500000
1032+80937500000+80625000000+80312500000+80000000000+79375000000+78437500000
1000+77500000000+76250000000+74375000000+69062500000+60312500000+59375000000
968+65625000000+66250000000+66250000000+66250000000+66250000000+66875000000
937+67500000000+69375000000+71250000000+73125000000+74062500000+75625000000
905+77500000000+79062500000+80000000000+80937500000+81562500000+82187500000
874+82500000000+82812500000+82500000000+81875000000+80312500000+78750000000
842+78437500000+78437500000+80937500000+85000000000+87812500000+89062500000
811+89687500000+90312500000+90625000000+90937500000+90937500000+90937500000
779+90625000000+90625000000+90312500000+90312500000+90000000000+90000000000
747+90000000000+90312500000+90312500000+90312500000+90312500000+90000000000
716+89375000000+88437500000+81875000000+67812500000+64375000000+65625000000
684+70625000000+74375000000+77812500000+79687500000+82500000000+85937500000
653+88437500000+90000000000+90625000000+91562500000+91875000000+92500000000
621+92812500000+93125000000+93750000000+94062500000+94375000000+94687500000
589+95000000000+94687500000+94687500000+94375000000+94062500000+93750000000
558+93750000000+93750000000+93437500000+93125000000+91875000000+90312500000
526+89062500000+88125000000+87812500000+87812500000+87812500000+88437500000
495+89062500000+90000000000+90937500000+91875000000+92500000000+93437500000
463+94062500000+94375000000+92812500000+90312500000+87187500000+82812500000
432+78750000000+75312500000+73125000000+71250000000+70000000000+69062500000
400+68437500000
##END=
