##TITLE=adiponitrile
##JCAMP-DX=4.24
##DATA TYPE=INFRARED SPECTRUM
##DATE=10/06/2025
##SAMPLING PROCEDURE=ATR
##ORIGIN=SDBS
##XUNITS=1/CM
##YUNITS=TRANSMITTANCE
##RESOLUTION=5.2631578947368425
##FIRSTX=4000.0
##LASTX=400.0
##DELTAX=-5.2631578947368425
##MAXY=95.0
##MINY=0.0
##XFACTOR=1
##YFACTOR=1
##NPOINTS=685
##FIRSTY=0.0
##XYDATA=(X++(Y..Y))
4000+0+91875000000+92187500000+92500000000+92812500000+93125000000
3968+93437500000+93437500000+93750000000+94062500000+94062500000+94062500000
3937+94375000000+94375000000+94375000000+94375000000+94375000000+94375000000
3905+94062500000+94062500000+94062500000+94062500000+94062500000+94062500000
3874+94062500000+94062500000+94375000000+94375000000+94375000000+94062500000
3842+94062500000+94062500000+94062500000+94062500000+94062500000+94062500000
3811+94375000000+94062500000+94062500000+93437500000+93125000000+92187500000
3779+90937500000+89375000000+87812500000+86562500000+85625000000+84687500000
3747+84375000000+84062500000+84062500000+84062500000+84375000000+84687500000
3716+85000000000+85312500000+85625000000+85937500000+85625000000+85312500000
3684+84687500000+84375000000+84375000000+84687500000+85625000000+86562500000
3653+87812500000+89062500000+89375000000+90000000000+90625000000+90625000000
3621+90937500000+91250000000+91562500000+91875000000+92187500000+92500000000
3589+92812500000+92812500000+92812500000+92812500000+92812500000+92812500000
3558+92812500000+92500000000+92187500000+92187500000+92187500000+92187500000
3526+92187500000+92187500000+92187500000+91875000000+91562500000+91250000000
3495+90625000000+89687500000+88437500000+88125000000+88750000000+90625000000
3463+91250000000+90625000000+90312500000+90000000000+89375000000+88437500000
3432+86875000000+86250000000+85937500000+85937500000+85937500000+85937500000
3400+85937500000+87187500000+87812500000+87500000000+86562500000+85625000000
3368+84375000000+84375000000+84062500000+83437500000+82812500000+82187500000
3337+81562500000+81250000000+80312500000+79375000000+77500000000+75625000000
3305+72187500000+65937500000+52500000000+32500000000+19687500000+15625000000
3274+12500000000+11875000000+12187500000+14687500000+25312500000+39062500000
3242+51562500000+58125000000+53750000000+36562500000+29375000000+30937500000
3211+50000000000+66250000000+74687500000+76875000000+77500000000+80000000000
3179+83125000000+85312500000+86875000000+87500000000+88437500000+88750000000
3147+89062500000+89375000000+89375000000+90000000000+90312500000+90625000000
3116+90625000000+90000000000+89687500000+89687500000+90000000000+90312500000
3084+90625000000+90312500000+89375000000+89062500000+89375000000+89687500000
3053+90000000000+88750000000+88125000000+88125000000+88750000000+90000000000
3021+90937500000+91250000000+91875000000+92187500000+92187500000+91875000000
2989+91875000000+91562500000+91562500000+91875000000+91562500000+90937500000
2958+90625000000+90625000000+91250000000+91875000000+92187500000+91875000000
2926+91875000000+91875000000+91875000000+92187500000+92187500000+92500000000
2895+92500000000+92500000000+91875000000+91562500000+91250000000+90937500000
2863+90937500000+90625000000+90312500000+90000000000+89687500000+89375000000
2832+89375000000+89062500000+88125000000+86562500000+84062500000+80000000000
2800+67187500000+46562499999+17500000000+4687500000+5937500000+41874999999
2768+67812500000+79687500000+86562500000+89062500000+87187500000+87187500000
2737+90625000000+91875000000+92187500000+92187500000+92500000000+93125000000
2705+93437500000+93750000000+93750000000+94062500000+94062500000+94062500000
2674+93750000000+93750000000+93750000000+93750000000+93750000000+93437500000
2642+93437500000+93125000000+93125000000+93437500000+93437500000+93750000000
2611+94062500000+94062500000+94062500000+94062500000+94062500000+94062500000
2579+94062500000+94062500000+94062500000+94375000000+94375000000+94375000000
2547+94375000000+94687500000+94687500000+94687500000+94687500000+94687500000
2516+94375000000+94375000000+94375000000+94375000000+94375000000+94375000000
2484+94375000000+94375000000+94375000000+94687500000+94687500000+94687500000
2453+94687500000+94687500000+94687500000+94687500000+94687500000+94687500000
2421+94687500000+94375000000+94375000000+94375000000+94375000000+94375000000
2389+94375000000+94062500000+94062500000+94062500000+93750000000+93437500000
2358+93437500000+93125000000+93125000000+93125000000+93125000000+93125000000
2326+93437500000+94062500000+94375000000+94375000000+94687500000+94687500000
2295+94687500000+95000000000+95000000000+94687500000+94687500000+94687500000
2263+94687500000+94687500000+94687500000+94687500000+94687500000+94375000000
2232+94375000000+94375000000+94062500000+94062500000+94062500000+93750000000
2200+93750000000+93750000000+93750000000+93750000000+93750000000+93750000000
2168+93750000000+93750000000+93437500000+93125000000+92812500000+92187500000
2137+91562500000+90937500000+90312500000+89375000000+88750000000+88125000000
2105+87812500000+87500000000+87500000000+87500000000+87812500000+88437500000
2074+89375000000+90312500000+90937500000+91562500000+91875000000+91875000000
2042+91875000000+91875000000+91875000000+91875000000+91562500000+91562500000
2011+91562500000+91250000000+91250000000+90625000000+90312500000+90312500000
1979+90312500000+90312500000+90312500000+90312500000+90312500000+90000000000
1947+89687500000+89062500000+88750000000+88125000000+87500000000+86875000000
1916+86250000000+85312500000+84375000000+82812500000+80625000000+77187500000
1884+70000000000+58125000000+32187500000+15937500000+15625000000+23125000000
1853+29062500000+30937500000+38749999999+39687500000+30937500000+18750000000
1821+10625000000+9375000000+10000000000+16875000000+33125000000+51250000000
1789+62500000000+70000000000+74687500000+77812500000+79375000000+80625000000
1758+80000000000+78750000000+78437500000+78125000000+76562500000+75000000000
1726+74062500000+69062500000+68125000000+70312500000+72187500000+64062500000
1695+52812500000+49687499999+49687499999+54687500000+65000000000+66250000000
1663+65000000000+72812500000+79687500000+80937500000+81875000000+83125000000
1632+82500000000+80625000000+77500000000+76250000000+76250000000+78125000000
1600+80000000000+81250000000+81562500000+81875000000+82500000000+83750000000
1568+85312500000+85937500000+86250000000+85937500000+85937500000+86250000000
1537+85625000000+83437500000+80000000000+76562500000+74687500000+75937500000
1505+81562500000+83750000000+84375000000+85625000000+87500000000+87812500000
1474+86250000000+84687500000+82500000000+82187500000+82187500000+84687500000
1442+89062500000+90937500000+91875000000+91875000000+92187500000+92500000000
1411+92812500000+92812500000+92812500000+92812500000+92812500000+92812500000
1379+92812500000+92812500000+92500000000+92187500000+91562500000+90937500000
1347+89062500000+85000000000+84375000000+84687500000+85937500000+83750000000
1316+82500000000+82812500000+85312500000+85625000000+85937500000+87187500000
1284+87187500000+86562500000+86875000000+88125000000+89375000000+90312500000
1253+90625000000+90000000000+88125000000+83437500000+83125000000+84375000000
1221+89062500000+91562500000+92500000000+92812500000+92812500000+92500000000
1189+92187500000+90937500000+88437500000+86562500000+86562500000+87812500000
1158+89375000000+90625000000+91250000000+90937500000+90312500000+88437500000
1126+84062500000+78125000000+78125000000+84687500000+85937500000+79687500000
1095+70937500000+63125000000+63437500000+69687500000+68437500000+70937500000
1063+79375000000+81250000000+85625000000+87500000000+88125000000+88750000000
1032+88125000000+85937500000+83125000000+82187500000+82500000000+84062500000
1000+87187500000+88750000000+87187500000+86250000000+85937500000+86250000000
968+86562500000+85000000000+82187500000+81875000000+82187500000+84375000000
937+85625000000+86875000000+87187500000+86875000000+85312500000+82500000000
905+79062500000+76875000000+75000000000+73750000000+73125000000+72500000000
874+70937500000+65625000000+58437500000+57500000000+58437500000+66875000000
842+78750000000+85625000000+88750000000+90625000000+91562500000+92187500000
811+92500000000+92812500000+93125000000+93437500000+93437500000+93750000000
779+93750000000+94062500000+94062500000+94062500000+94375000000+94375000000
747+94375000000+94375000000+94687500000+94687500000+94687500000+94687500000
716+94375000000+94375000000+94375000000+94062500000+93750000000+93125000000
684+91875000000+89062500000+88750000000+89375000000+90312500000+90625000000
653+90312500000+88750000000+86250000000+84687500000+85000000000+86250000000
621+86250000000+88125000000+86562500000+85000000000+86250000000+87812500000
589+88125000000+88125000000+88437500000+89062500000+89375000000+89687500000
558+90000000000+90000000000+90312500000+90312500000+90312500000+90625000000
526+90625000000+90625000000+90625000000+90625000000+90625000000+90625000000
495+90625000000+90312500000+90312500000+90312500000+90000000000+89687500000
463+89375000000+89375000000+89062500000+88437500000+88437500000+87812500000
432+87187500000+86562500000+86250000000+85625000000+85312500000+85000000000
400+85000000000
##END=
