##TITLE=alloxan
##JCAMP-DX=4.24
##DATA TYPE=INFRARED SPECTRUM
##DATE=10/06/2025
##SAMPLING PROCEDURE=ATR
##ORIGIN=SDBS
##XUNITS=1/CM
##YUNITS=TRANSMITTANCE
##RESOLUTION=5.2631578947368425
##FIRSTX=4000.0
##LASTX=400.0
##DELTAX=-5.2631578947368425
##MAXY=94.6875
##MINY=0.0
##XFACTOR=1
##YFACTOR=1
##NPOINTS=685
##FIRSTY=0.0
##XYDATA=(X++(Y..Y))
4000+0+89375000000+89687500000+89687500000+89687500000+89375000000
3968+89375000000+89375000000+89687500000+89687500000+89687500000+89687500000
3937+90000000000+90000000000+90000000000+89687500000+89375000000+89375000000
3905+89375000000+89687500000+89687500000+89687500000+89687500000+90000000000
3874+90000000000+90000000000+89687500000+89375000000+89062500000+89062500000
3842+89062500000+89062500000+89375000000+89687500000+90000000000+89687500000
3811+89687500000+89375000000+89375000000+89375000000+89375000000+89062500000
3779+89062500000+89062500000+89375000000+89062500000+88437500000+87500000000
3747+87187500000+86250000000+85312500000+84687500000+84375000000+84062500000
3716+83750000000+83125000000+82812500000+82187500000+81875000000+81250000000
3684+80625000000+80000000000+79062500000+78437500000+77500000000+76562500000
3653+75312500000+74062500000+71875000000+70000000000+68750000000+67187500000
3621+65625000000+63750000000+62187500000+60937500000+58750000000+56562500000
3589+55000000000+52812500000+50625000000+47500000000+44687500000+40937500000
3558+37500000000+33125000000+28125000000+26250000000+26250000000+29687500000
3526+35937500000+41250000000+43437499999+44687500000+45312500000+44062500000
3495+42500000000+40625000000+38125000000+34062500000+27500000000+22187500000
3463+21875000000+25000000000+30000000000+32812500000+31875000000+31250000000
3432+30625000000+30625000000+30312500000+30000000000+29375000000+29375000000
3400+29687500000+30312500000+27812500000+25937500000+20625000000+17500000000
3368+16562500000+16875000000+17812500000+18125000000+15000000000+11250000000
3337+10000000000+10000000000+11875000000+17187500000+23750000000+29375000000
3305+34375000000+39375000000+43437499999+47187500000+49687499999+51250000000
3274+54062500000+56250000000+58750000000+60312500000+62187500000+64062500000
3242+65937500000+67500000000+69687500000+70625000000+70625000000+69375000000
3211+68437500000+67500000000+68125000000+68437500000+66875000000+63750000000
3179+53437500000+48124999999+50625000000+61250000000+66875000000+70000000000
3147+70312500000+71562500000+74062500000+77812500000+80625000000+81250000000
3116+81562500000+81875000000+82500000000+83437500000+85312500000+86250000000
3084+86875000000+86875000000+86875000000+87187500000+87187500000+87500000000
3053+86875000000+86562500000+86250000000+86562500000+88437500000+89375000000
3021+90000000000+90312500000+90312500000+90312500000+90312500000+90937500000
2989+91875000000+91875000000+92187500000+92187500000+92187500000+91250000000
2958+90625000000+89375000000+87500000000+87187500000+88125000000+89375000000
2926+89687500000+89687500000+88437500000+88125000000+88437500000+89687500000
2895+91250000000+91875000000+91875000000+92187500000+92187500000+92187500000
2863+92500000000+92500000000+92812500000+93125000000+93125000000+93437500000
2832+93750000000+93750000000+94062500000+94062500000+94062500000+94375000000
2800+94375000000+94687500000+94687500000+94687500000+94687500000+94375000000
2768+94375000000+94375000000+94687500000+94687500000+94687500000+94687500000
2737+94687500000+94687500000+94687500000+94687500000+94687500000+94375000000
2705+94062500000+94062500000+94062500000+94062500000+94375000000+94375000000
2674+94375000000+94375000000+94375000000+94062500000+93750000000+93437500000
2642+93125000000+93125000000+93750000000+94375000000+94375000000+94687500000
2611+94687500000+94687500000+94687500000+94687500000+94375000000+94375000000
2579+94062500000+94062500000+93750000000+93750000000+93750000000+93750000000
2547+94062500000+94062500000+94062500000+94375000000+94375000000+94375000000
2516+94375000000+94062500000+93750000000+93437500000+93125000000+92812500000
2484+91875000000+91562500000+91250000000+91250000000+91562500000+91562500000
2453+91875000000+91875000000+91562500000+91562500000+91250000000+90937500000
2421+90937500000+90625000000+90000000000+89687500000+89375000000+89062500000
2389+88437500000+87500000000+86562500000+85625000000+84062500000+82812500000
2358+82500000000+81875000000+80937500000+79062500000+77187500000+74375000000
2326+70625000000+64687500000+56875000000+44062500000+30312500000+27812500000
2295+19375000000+10937500000+9375000000+9687500000+12187500000+14062500000
2263+17812500000+15312500000+10312500000+8437500000+8750000000+11562500000
2232+12500000000+8437500000+4687500000+4687500000+8437500000+17187500000
2200+28437500000+38749999999+48124999999+54062500000+58750000000+61562500000
2168+65625000000+69375000000+72187500000+73125000000+74687500000+76562500000
2137+78437500000+81250000000+82812500000+83437500000+84062500000+84687500000
2105+85000000000+85312500000+85625000000+85625000000+85625000000+85625000000
2074+85625000000+86250000000+87187500000+87500000000+88125000000+88750000000
2042+89062500000+89375000000+89687500000+90000000000+90312500000+90312500000
2011+90625000000+90625000000+90625000000+90625000000+90312500000+89687500000
1979+89375000000+88750000000+88125000000+86875000000+86250000000+85937500000
1947+85937500000+85937500000+86250000000+86875000000+87187500000+87500000000
1916+87812500000+88125000000+88437500000+87812500000+87187500000+85312500000
1884+82812500000+80625000000+76875000000+74062500000+71875000000+69375000000
1853+66562500000+66250000000+67500000000+69375000000+68750000000+64375000000
1821+57187500000+46875000000+44375000000+44687500000+43437499999+36562500000
1789+38437500000+38437500000+30312500000+30312500000+36250000000+45625000000
1758+54375000000+61250000000+59375000000+53750000000+49687499999+49375000000
1726+50312500000+52187500000+53437500000+56250000000+60312500000+66250000000
1695+64062500000+56250000000+42187500000+31250000000+21250000000+14062500000
1663+13437500000+15312500000+24062500000+36875000000+48437500000+58750000000
1632+66562500000+70937500000+72187500000+73750000000+75625000000+74375000000
1600+70312500000+63125000000+47812500000+28437500000+15625000000+14687500000
1568+21562500000+38749999999+52812500000+63437500000+71875000000+76875000000
1537+79375000000+81562500000+83125000000+84375000000+84062500000+83437500000
1505+82500000000+81562500000+78750000000+71875000000+63750000000+50000000000
1474+27500000000+10312500000+8750000000+9062500000+10937500000+24062500000
1442+43125000000+54375000000+64687500000+72187500000+75937500000+79062500000
1411+82187500000+83437500000+85312500000+86250000000+86875000000+87187500000
1379+87500000000+87812500000+88125000000+88125000000+88125000000+87500000000
1347+87187500000+86875000000+86250000000+85937500000+85312500000+84687500000
1316+84062500000+83750000000+83125000000+81250000000+77187500000+63437500000
1284+46250000000+39687500000+44062500000+57187500000+46875000000+44375000000
1253+47187500000+51562500000+55937500000+66875000000+75312500000+79687500000
1221+82500000000+85625000000+87812500000+89062500000+90312500000+91250000000
1189+91562500000+91875000000+92187500000+92500000000+92812500000+93125000000
1158+93437500000+93437500000+93750000000+93750000000+94062500000+94062500000
1126+94062500000+94375000000+94375000000+94375000000+94375000000+94687500000
1095+94687500000+94687500000+94687500000+94687500000+94687500000+94687500000
1063+94687500000+94687500000+94687500000+94687500000+94375000000+94375000000
1032+94062500000+93750000000+93437500000+93125000000+92812500000+92500000000
1000+92187500000+91250000000+90000000000+87500000000+85312500000+80625000000
968+72187500000+40312499999+16875000000+42500000000+59687500000+60937500000
937+59687500000+42187500000+25000000000+25000000000+39062500000+52187500000
905+43437499999+44375000000+55625000000+67812500000+74062500000+71250000000
874+69375000000+70312500000+62812500000+68125000000+75312500000+75312500000
842+80937500000+85625000000+85937500000+85312500000+85312500000+86875000000
811+88125000000+89062500000+90000000000+90625000000+90937500000+89687500000
779+88437500000+88125000000+88437500000+88750000000+89062500000+89375000000
747+89687500000+90312500000+88437500000+89062500000+90000000000+90312500000
716+89687500000+90000000000+91562500000+91250000000+89687500000+89687500000
684+90312500000+90625000000+90312500000+90312500000+89687500000+89062500000
653+88125000000+86250000000+83437500000+80625000000+75312500000+67812500000
621+49062500000+40000000000+40937500000+58750000000+73437500000+78125000000
589+80312500000+81250000000+78437500000+74375000000+69375000000+67500000000
558+65000000000+60000000000+58125000000+58125000000+56875000000+56875000000
526+61562500000+76250000000+80937500000+84062500000+86875000000+86875000000
495+85625000000+84062500000+83125000000+82500000000+82187500000+82187500000
463+82187500000+81250000000+79687500000+77500000000+75312500000+72812500000
432+70625000000+69687500000+69687500000+69687500000+70625000000+71250000000
400+72187500000
##END=
