##TITLE=alpha,alpha,alpha',alpha'-tetrabromo-m-xylene
##JCAMP-DX=4.24
##DATA TYPE=INFRARED SPECTRUM
##DATE=10/06/2025
##SAMPLING PROCEDURE=ATR
##ORIGIN=SDBS
##XUNITS=1/CM
##YUNITS=TRANSMITTANCE
##RESOLUTION=5.2631578947368425
##FIRSTX=4000.0
##LASTX=400.0
##DELTAX=-5.2631578947368425
##MAXY=94.6875
##MINY=0.0
##XFACTOR=1
##YFACTOR=1
##NPOINTS=685
##FIRSTY=0.0
##XYDATA=(X++(Y..Y))
4000+0+84687500000+84375000000+84375000000+84375000000+84375000000
3968+84375000000+84687500000+85000000000+84375000000+83750000000+83750000000
3937+83437500000+83437500000+83750000000+83437500000+83125000000+82812500000
3905+82812500000+82500000000+82500000000+82500000000+82500000000+82500000000
3874+82187500000+81875000000+81250000000+81250000000+81250000000+81250000000
3842+80937500000+80937500000+80937500000+80937500000+81250000000+81250000000
3811+81250000000+81250000000+80937500000+80625000000+80625000000+80625000000
3779+80625000000+80312500000+80312500000+80000000000+80000000000+80000000000
3747+80000000000+80000000000+79687500000+79687500000+79687500000+79687500000
3716+79375000000+79375000000+79375000000+79375000000+79687500000+80000000000
3684+80000000000+79687500000+79375000000+78750000000+78437500000+78125000000
3653+77812500000+77812500000+77812500000+77500000000+77500000000+77187500000
3621+77187500000+76875000000+76562500000+76562500000+76562500000+76875000000
3589+76250000000+75937500000+75312500000+75000000000+75000000000+74687500000
3558+74687500000+75000000000+74687500000+74375000000+74062500000+73750000000
3526+73437500000+73437500000+73437500000+73125000000+72812500000+72187500000
3495+71875000000+71562500000+71250000000+71250000000+71250000000+71250000000
3463+70937500000+70937500000+70937500000+70937500000+70937500000+70937500000
3432+70937500000+70937500000+71250000000+71562500000+71875000000+72500000000
3400+71875000000+72812500000+72812500000+73125000000+72812500000+73437500000
3368+73437500000+73125000000+72812500000+72500000000+71875000000+70625000000
3337+69375000000+68750000000+67812500000+66562500000+58750000000+58125000000
3305+53437500000+50937500000+42187500000+31562500000+18437500000+13125000000
3274+12500000000+13437500000+8437500000+5000000000+4687500000+5937500000
3242+13125000000+20312500000+26562500000+32812500000+33125000000+29062500000
3211+23125000000+18750000000+20625000000+41250000000+66562500000+77812500000
3179+82812500000+84687500000+85937500000+86562500000+86875000000+87187500000
3147+87187500000+87500000000+86875000000+86250000000+85937500000+85312500000
3116+85312500000+85312500000+85312500000+85000000000+85000000000+84687500000
3084+84375000000+84375000000+84375000000+84687500000+84687500000+84687500000
3053+84687500000+85000000000+85000000000+85000000000+85000000000+85312500000
3021+85312500000+85625000000+85937500000+86250000000+86250000000+86562500000
2989+86562500000+86250000000+86250000000+86250000000+86562500000+86562500000
2958+86875000000+86875000000+86875000000+86562500000+86562500000+86562500000
2926+86562500000+86562500000+86875000000+86562500000+86562500000+86562500000
2895+86250000000+86250000000+86250000000+86562500000+86562500000+86562500000
2863+86562500000+86875000000+86875000000+86875000000+86875000000+86875000000
2832+86875000000+86875000000+86875000000+86875000000+86875000000+86875000000
2800+86875000000+87187500000+87187500000+87187500000+87187500000+87500000000
2768+87500000000+87812500000+87812500000+87812500000+87812500000+87812500000
2737+87812500000+87500000000+87500000000+87500000000+87812500000+88125000000
2705+88125000000+88437500000+88437500000+88437500000+88437500000+88750000000
2674+88750000000+88750000000+88750000000+88750000000+89062500000+89062500000
2642+89062500000+89062500000+89062500000+89375000000+89375000000+89375000000
2611+89375000000+89375000000+89375000000+89687500000+89687500000+89687500000
2579+89375000000+89375000000+89375000000+89062500000+89375000000+89375000000
2547+89375000000+89375000000+89687500000+89687500000+90000000000+90000000000
2516+90312500000+90312500000+90625000000+90625000000+90312500000+89687500000
2484+89375000000+89375000000+89375000000+89062500000+89375000000+89375000000
2453+89687500000+89687500000+89687500000+90000000000+90000000000+90312500000
2421+90312500000+90625000000+90625000000+90312500000+90312500000+90000000000
2389+90000000000+89687500000+89687500000+90000000000+90000000000+90000000000
2358+90312500000+90312500000+90625000000+90625000000+90937500000+90937500000
2326+90937500000+90937500000+90312500000+89375000000+89375000000+90312500000
2295+90312500000+90312500000+90312500000+90625000000+90625000000+90937500000
2263+90937500000+90937500000+91250000000+91250000000+91250000000+90625000000
2232+89687500000+87500000000+87500000000+88125000000+89062500000+89375000000
2200+89375000000+89687500000+89687500000+90000000000+90000000000+90000000000
2168+90312500000+90312500000+90312500000+90312500000+90312500000+90312500000
2137+90312500000+90312500000+90312500000+90312500000+90312500000+90312500000
2105+90312500000+90312500000+90312500000+90312500000+90312500000+90312500000
2074+90312500000+90312500000+90312500000+90312500000+90312500000+90312500000
2042+90312500000+90312500000+90312500000+90625000000+90625000000+90625000000
2011+90625000000+90625000000+90625000000+90625000000+90625000000+90625000000
1979+90625000000+90625000000+90625000000+90625000000+90937500000+90937500000
1947+90937500000+90937500000+90625000000+90000000000+89375000000+88750000000
1916+88437500000+88437500000+62187500000+59687500000+77812500000+78437500000
1884+72812500000+62812500000+54062500000+54062500000+54687500000+57187500000
1853+59375000000+66250000000+70000000000+74062500000+73125000000+67187500000
1821+79687500000+86875000000+88437500000+89062500000+89062500000+89062500000
1789+89375000000+89375000000+89062500000+88750000000+86250000000+80625000000
1758+76562500000+70312500000+69375000000+72187500000+80937500000+81562500000
1726+84062500000+86875000000+87500000000+88125000000+88750000000+89062500000
1695+89375000000+90000000000+90312500000+90937500000+91562500000+83437500000
1663+78750000000+87812500000+86875000000+86875000000+89375000000+90312500000
1632+90625000000+90937500000+91250000000+91250000000+91562500000+91875000000
1600+91875000000+91562500000+89062500000+89375000000+91562500000+92187500000
1568+93125000000+93750000000+93750000000+93750000000+93750000000+92187500000
1537+87500000000+84375000000+69375000000+52500000000+57187500000+77187500000
1505+84375000000+75625000000+81250000000+89062500000+91250000000+91875000000
1474+92187500000+91875000000+82500000000+85937500000+92812500000+70937500000
1442+60937500000+53437500000+58125000000+54687500000+58125000000+60312500000
1411+83750000000+86562500000+88750000000+90000000000+90625000000+91250000000
1379+91562500000+91875000000+92187500000+92187500000+92187500000+85312500000
1347+85625000000+91250000000+92500000000+92812500000+93437500000+93437500000
1316+93750000000+93750000000+93437500000+93437500000+93437500000+93437500000
1284+93125000000+93437500000+93437500000+93437500000+93750000000+94062500000
1253+94062500000+94375000000+94375000000+94375000000+94375000000+94062500000
1221+94062500000+94062500000+93750000000+93750000000+93750000000+93750000000
1189+93750000000+93750000000+93750000000+94062500000+94062500000+94062500000
1158+94062500000+94062500000+92812500000+80625000000+68750000000+69375000000
1126+82187500000+87500000000+90625000000+86562500000+91875000000+92500000000
1095+92812500000+93125000000+93125000000+73750000000+76562500000+90937500000
1063+92187500000+93125000000+93125000000+93437500000+93437500000+93125000000
1032+92812500000+92812500000+92812500000+92812500000+93125000000+93125000000
1000+93437500000+93437500000+93750000000+94062500000+94375000000+94375000000
968+94687500000+94687500000+93125000000+86250000000+86562500000+92187500000
937+93125000000+94375000000+94375000000+93750000000+92812500000+92812500000
905+87187500000+87187500000+93437500000+94375000000+94375000000+93750000000
874+93437500000+92812500000+92187500000+91250000000+89687500000+87812500000
842+87187500000+87500000000+88437500000+89687500000+88437500000+81250000000
811+70000000000+28125000000+21562500000+30937500000+65937500000+80625000000
779+87187500000+87500000000+75000000000+60937500000+59375000000+72187500000
747+80625000000+84687500000+84375000000+80000000000+79375000000+70625000000
716+72812500000+54375000000+31562500000+23750000000+24062500000+35000000000
684+50937500000+67500000000+75312500000+78437500000+80312500000+82500000000
653+83437500000+84375000000+85312500000+86250000000+86562500000+84062500000
621+39062500000+37812500000+62500000000+79062500000+82812500000+85312500000
589+86875000000+88125000000+88437500000+88437500000+88750000000+89062500000
558+89375000000+89687500000+90000000000+90000000000+89687500000+89687500000
526+89375000000+89687500000+90000000000+90312500000+90625000000+90312500000
495+89687500000+88750000000+88125000000+87500000000+87500000000+87187500000
463+86875000000+85937500000+84687500000+83125000000+81562500000+80000000000
432+78125000000+76250000000+75000000000+73125000000+71875000000+70937500000
400+70312500000
##END=
