##TITLE=alpha-methylbenzyl alcohol
##JCAMP-DX=4.24
##DATA TYPE=INFRARED SPECTRUM
##DATE=10/06/2025
##SAMPLING PROCEDURE=ATR
##ORIGIN=SDBS
##XUNITS=1/CM
##YUNITS=TRANSMITTANCE
##RESOLUTION=5.2631578947368425
##FIRSTX=4000.0
##LASTX=400.0
##DELTAX=-5.2631578947368425
##MAXY=94.6875
##MINY=0.0
##XFACTOR=1
##YFACTOR=1
##NPOINTS=685
##FIRSTY=0.0
##XYDATA=(X++(Y..Y))
4000+0+88125000000+88125000000+88437500000+88437500000+88750000000
3968+88437500000+88437500000+88437500000+88437500000+88437500000+88437500000
3937+88750000000+88750000000+88437500000+88437500000+88437500000+88437500000
3905+88750000000+89062500000+89062500000+88750000000+88750000000+88437500000
3874+88437500000+88437500000+88437500000+88750000000+88437500000+88437500000
3842+88437500000+88125000000+88125000000+88125000000+88125000000+88437500000
3811+88125000000+88125000000+87812500000+87500000000+87187500000+86250000000
3779+84375000000+82187500000+80625000000+78437500000+77187500000+75312500000
3747+74062500000+72500000000+70625000000+68750000000+66562500000+62812500000
3716+58750000000+55000000000+51562500000+48437500000+45937500000+44687500000
3684+44062500000+44062500000+43437499999+42187500000+40000000000+36875000000
3653+34062500000+31875000000+29375000000+26562500000+24375000000+22500000000
3621+20312500000+19062500000+17500000000+16562500000+15312500000+14687500000
3589+13750000000+13125000000+12500000000+12187500000+11875000000+11562500000
3558+11562500000+11562500000+11562500000+11562500000+11562500000+11875000000
3526+12187500000+12500000000+12812500000+13750000000+14375000000+15000000000
3495+15937500000+17187500000+18125000000+19375000000+20625000000+22187500000
3463+24062500000+25312500000+27187500000+29687500000+31875000000+34375000000
3432+36250000000+39062500000+41250000000+43750000000+45937500000+49062500000
3400+51562500000+53437500000+55000000000+54687500000+54687500000+54375000000
3368+44687500000+43750000000+47812500000+38125000000+37500000000+41874999999
3337+46562499999+36562500000+31875000000+32812500000+47500000000+54062500000
3305+53125000000+40000000000+21875000000+15937500000+15625000000+24062500000
3274+44999999999+57500000000+49687499999+39375000000+39375000000+45937500000
3242+49062500000+44687500000+41250000000+40000000000+39687500000+39687500000
3211+42812500000+49062500000+57500000000+61250000000+63437500000+65000000000
3179+66562500000+67187500000+68125000000+69375000000+72500000000+74375000000
3147+75625000000+76875000000+77500000000+77812500000+77812500000+77187500000
3116+76875000000+76875000000+76875000000+76875000000+76875000000+77187500000
3084+77500000000+77812500000+78125000000+78750000000+79687500000+80000000000
3053+80000000000+80000000000+80625000000+81250000000+81875000000+82500000000
3021+83125000000+83437500000+83750000000+84062500000+84375000000+85000000000
2989+85312500000+85625000000+85625000000+85625000000+85312500000+85000000000
2958+85000000000+85625000000+85625000000+85937500000+86250000000+86562500000
2926+86875000000+87187500000+87500000000+87812500000+88125000000+88437500000
2895+89062500000+89062500000+89062500000+89062500000+89062500000+89062500000
2863+89062500000+89375000000+89375000000+89687500000+89687500000+89687500000
2832+90000000000+90312500000+90312500000+90312500000+90312500000+90312500000
2800+90312500000+90312500000+90625000000+90937500000+91250000000+91562500000
2768+91562500000+91562500000+91562500000+91562500000+91875000000+91875000000
2737+91875000000+92187500000+92187500000+92187500000+92187500000+92187500000
2705+92187500000+92187500000+92187500000+92187500000+92187500000+92500000000
2674+92500000000+92812500000+92812500000+92812500000+92812500000+92812500000
2642+93125000000+93125000000+92812500000+92500000000+92187500000+91562500000
2611+90937500000+90625000000+90312500000+90000000000+89687500000+89062500000
2579+88125000000+86875000000+85937500000+85312500000+84375000000+83437500000
2547+82500000000+82500000000+82500000000+84687500000+87187500000+89375000000
2516+90625000000+90937500000+91250000000+91250000000+90625000000+89687500000
2484+89062500000+88125000000+86875000000+85625000000+85000000000+84375000000
2453+84062500000+83750000000+83750000000+84375000000+86250000000+88750000000
2421+90625000000+91875000000+92500000000+92812500000+93125000000+92812500000
2389+92500000000+91562500000+90625000000+89687500000+88750000000+87500000000
2358+85937500000+84687500000+84062500000+84062500000+85937500000+88125000000
2326+90312500000+91562500000+92187500000+92187500000+91875000000+91562500000
2295+91250000000+90312500000+88750000000+88125000000+87812500000+88125000000
2263+89375000000+90937500000+92812500000+93750000000+94375000000+94687500000
2232+94687500000+94687500000+94375000000+94062500000+93437500000+92500000000
2200+91875000000+90312500000+88437500000+84375000000+81250000000+79375000000
2168+77187500000+75937500000+76250000000+78125000000+80937500000+83125000000
2137+84687500000+85625000000+85937500000+85937500000+85937500000+85625000000
2105+85312500000+85000000000+85000000000+84687500000+84375000000+83437500000
2074+79687500000+74375000000+71875000000+70312500000+73125000000+82500000000
2042+85312500000+82500000000+84062500000+89062500000+90312500000+91250000000
2011+91562500000+91250000000+90625000000+89375000000+88437500000+87500000000
1979+87500000000+87500000000+87500000000+88125000000+88125000000+87187500000
1947+85937500000+85000000000+84062500000+81562500000+76875000000+65937500000
1916+44062500000+27500000000+28437500000+54375000000+67187500000+70937500000
1884+68750000000+65000000000+58125000000+49062500000+33437500000+20312500000
1853+17500000000+17812500000+21875000000+33750000000+42500000000+49375000000
1821+50937500000+50000000000+48124999999+46875000000+45625000000+44999999999
1789+44999999999+44999999999+45937500000+47187500000+47812500000+48124999999
1758+47187500000+45625000000+39375000000+30937500000+28750000000+29687500000
1726+36250000000+42500000000+44999999999+46562499999+48750000000+50312500000
1695+51250000000+51562500000+50625000000+50312500000+50937500000+54062500000
1663+52500000000+45937500000+39687500000+37812500000+38125000000+38437500000
1632+39375000000+39687500000+39687500000+39687500000+41250000000+44062500000
1600+44375000000+44375000000+45312500000+46875000000+47812500000+50937500000
1568+55312500000+59687500000+63750000000+68125000000+72187500000+74375000000
1537+75625000000+75625000000+70625000000+60625000000+39687500000+28750000000
1505+28750000000+38125000000+53750000000+64687500000+70000000000+72812500000
1474+71875000000+72187500000+75937500000+81562500000+82500000000+79062500000
1442+77187500000+79062500000+84062500000+86250000000+86250000000+85312500000
1411+83437500000+80000000000+74687500000+64375000000+50937500000+45625000000
1379+44687500000+35000000000+26250000000+24687500000+25312500000+28750000000
1347+22500000000+15000000000+11875000000+11562500000+12812500000+17187500000
1316+21875000000+25312500000+27500000000+32812500000+44999999999+56250000000
1284+65937500000+64062500000+48437500000+30625000000+30625000000+49062500000
1253+46250000000+28750000000+20625000000+20937500000+36562500000+40625000000
1221+33437500000+44375000000+65937500000+73125000000+78750000000+85312500000
1189+89062500000+89375000000+90312500000+90937500000+91875000000+92812500000
1158+93437500000+94375000000+94687500000+94687500000+93437500000+90625000000
1126+86250000000+78750000000+65312500000+46875000000+39687500000+38125000000
1095+31562500000+27500000000+27187500000+29375000000+39062500000+51562500000
1063+67187500000+76250000000+83125000000+85312500000+87500000000+89687500000
1032+90937500000+89687500000+87500000000+85937500000+85937500000+87500000000
1000+90312500000+91562500000+91562500000+90937500000+90000000000+88750000000
968+87500000000+86562500000+85625000000+84062500000+82187500000+80312500000
937+77187500000+70000000000+58125000000+48124999999+40312499999+32812500000
905+24687500000+17500000000+15312500000+15625000000+21875000000+30312500000
874+35312500000+40000000000+42187500000+45937500000+54062500000+59687500000
842+59062500000+55937500000+47812500000+36250000000+20000000000+7500000000
811+4687500000+4687500000+13125000000+29687500000+40000000000+48124999999
779+51250000000+52500000000+53437500000+54062500000+54687500000+55000000000
747+55312500000+55937500000+56250000000+56875000000+56875000000+57187500000
716+56562500000+55937500000+54687500000+52500000000+52187500000+48124999999
684+37187499999+36250000000+41250000000+51875000000+55937500000+59062500000
653+61562500000+62812500000+63750000000+65312500000+66250000000+67187500000
621+66875000000+65625000000+62500000000+59062500000+49062500000+37500000000
589+35937500000+37500000000+43750000000+51562500000+57500000000+62500000000
558+66562500000+69687500000+72500000000+73437500000+73125000000+72187500000
526+71875000000+71875000000+71875000000+72187500000+73437500000+75000000000
495+77187500000+79687500000+82187500000+84375000000+86250000000+88125000000
463+89687500000+90937500000+91875000000+91562500000+90625000000+88437500000
432+86562500000+85000000000+84062500000+83437500000+83125000000+82812500000
400+82812500000
##END=
