##TITLE=alpha-monostearin
##JCAMP-DX=4.24
##DATA TYPE=INFRARED SPECTRUM
##DATE=10/06/2025
##SAMPLING PROCEDURE=ATR
##ORIGIN=SDBS
##XUNITS=1/CM
##YUNITS=TRANSMITTANCE
##RESOLUTION=5.2631578947368425
##FIRSTX=4000.0
##LASTX=400.0
##DELTAX=-5.2631578947368425
##MAXY=95.0
##MINY=0.0
##XFACTOR=1
##YFACTOR=1
##NPOINTS=685
##FIRSTY=0.0
##XYDATA=(X++(Y..Y))
4000+0+94062500000+94062500000+94062500000+94062500000+94062500000
3968+94062500000+94062500000+94062500000+94062500000+94062500000+94062500000
3937+94062500000+93750000000+93750000000+93750000000+93750000000+93750000000
3905+93750000000+94062500000+94062500000+93750000000+93750000000+93750000000
3874+93750000000+93750000000+93750000000+94062500000+94062500000+94062500000
3842+93750000000+93750000000+93750000000+93750000000+94062500000+94062500000
3811+94062500000+94062500000+94062500000+94062500000+94062500000+94062500000
3779+94062500000+94062500000+93750000000+93750000000+93750000000+93437500000
3747+93437500000+93437500000+93125000000+92812500000+92500000000+92500000000
3716+92500000000+92187500000+92187500000+91875000000+91562500000+91250000000
3684+90625000000+90000000000+89375000000+89062500000+88125000000+87500000000
3653+86875000000+86250000000+85937500000+84062500000+82500000000+82500000000
3621+80937500000+80312500000+79687500000+79062500000+77812500000+76562500000
3589+75312500000+73750000000+72500000000+70937500000+69375000000+67812500000
3558+65937500000+63750000000+61562500000+59375000000+56875000000+54375000000
3526+52500000000+51562500000+50937500000+50625000000+50312500000+50000000000
3495+49375000000+48437500000+47500000000+46875000000+46875000000+46875000000
3463+47500000000+48750000000+50312500000+51875000000+54687500000+56875000000
3432+59062500000+61875000000+64375000000+66562500000+68437500000+70625000000
3400+72812500000+74062500000+75625000000+77187500000+78750000000+79687500000
3368+80937500000+81562500000+82187500000+82500000000+83125000000+83437500000
3337+83437500000+83437500000+83125000000+82500000000+81562500000+79375000000
3305+76875000000+71250000000+62500000000+52812500000+37187499999+26250000000
3274+24687500000+25312500000+18125000000+11250000000+6562500000+4687500000
3242+8125000000+19687500000+26562500000+31562500000+36562500000+32500000000
3211+26875000000+12500000000+9687500000+26562500000+52500000000+65000000000
3179+71562500000+75937500000+79062500000+80625000000+82812500000+84687500000
3147+85000000000+86250000000+86562500000+86562500000+86250000000+86250000000
3116+86250000000+86562500000+87187500000+87812500000+87812500000+87812500000
3084+87812500000+87812500000+88125000000+88437500000+88437500000+88750000000
3053+89375000000+89687500000+90000000000+90312500000+90625000000+90625000000
3021+90937500000+90937500000+91250000000+91250000000+91562500000+91875000000
2989+92187500000+92187500000+92500000000+92812500000+92812500000+93125000000
2958+93125000000+93125000000+93437500000+93437500000+93750000000+93750000000
2926+93750000000+93750000000+94062500000+94062500000+94062500000+94062500000
2895+94062500000+94062500000+94062500000+94062500000+94062500000+94062500000
2863+94062500000+94062500000+94062500000+94062500000+94062500000+94062500000
2832+94062500000+94062500000+94062500000+94062500000+94062500000+94062500000
2800+94375000000+94375000000+94375000000+94375000000+94375000000+94375000000
2768+94375000000+94375000000+94375000000+94687500000+94687500000+94687500000
2737+94375000000+94375000000+94375000000+94375000000+94375000000+94375000000
2705+94375000000+94687500000+94687500000+94375000000+94375000000+94375000000
2674+94375000000+94375000000+94375000000+94375000000+94375000000+94375000000
2642+94375000000+94375000000+94375000000+94375000000+94375000000+94375000000
2611+94375000000+94375000000+94375000000+94375000000+94687500000+94687500000
2579+94687500000+94687500000+94687500000+94687500000+94687500000+94687500000
2547+94687500000+94687500000+94687500000+94687500000+94687500000+94687500000
2516+94687500000+94687500000+94687500000+94687500000+94687500000+94687500000
2484+94687500000+94687500000+94687500000+94687500000+94687500000+95000000000
2453+95000000000+95000000000+95000000000+95000000000+94687500000+94687500000
2421+94687500000+94687500000+94687500000+94687500000+94687500000+94687500000
2389+94375000000+94375000000+94375000000+94375000000+94062500000+94062500000
2358+93750000000+93750000000+93437500000+93437500000+93437500000+93437500000
2326+93125000000+92812500000+92812500000+92500000000+92187500000+91875000000
2295+91562500000+91250000000+90312500000+89375000000+87500000000+82500000000
2263+73125000000+56562500000+35625000000+35000000000+21875000000+16562500000
2232+30312500000+59062500000+71250000000+76875000000+80312500000+81875000000
2200+83437500000+84375000000+85000000000+86250000000+87500000000+89375000000
2168+90625000000+90937500000+91562500000+91875000000+91875000000+91875000000
2137+92187500000+92187500000+92187500000+92187500000+92500000000+92500000000
2105+92500000000+92500000000+92500000000+92500000000+92812500000+92812500000
2074+92812500000+92812500000+92812500000+93125000000+93125000000+93125000000
2042+93125000000+93125000000+93125000000+92812500000+92812500000+92812500000
2011+92812500000+92812500000+92500000000+92500000000+92500000000+92187500000
1979+92187500000+91875000000+91875000000+91562500000+91250000000+90937500000
1947+90625000000+90312500000+89687500000+89062500000+88437500000+87500000000
1916+86562500000+84687500000+82812500000+79375000000+75937500000+68437500000
1884+54062500000+34375000000+32812500000+43437499999+49062500000+50937500000
1853+52187500000+59062500000+65312500000+70312500000+73750000000+76875000000
1821+79687500000+79375000000+73125000000+64375000000+65937500000+78125000000
1789+81562500000+80312500000+75312500000+70000000000+69687500000+70937500000
1758+70000000000+65312500000+64687500000+67187500000+72500000000+73750000000
1726+75000000000+78125000000+78750000000+79062500000+80312500000+81250000000
1695+81875000000+83125000000+82187500000+82187500000+84375000000+84375000000
1663+82812500000+80000000000+80312500000+81250000000+80937500000+80000000000
1632+79375000000+79687500000+80000000000+82187500000+80625000000+78437500000
1600+80000000000+79375000000+80625000000+78437500000+74375000000+77187500000
1568+80625000000+80312500000+81250000000+76562500000+77500000000+83125000000
1537+80000000000+73125000000+70312500000+70000000000+79062500000+80937500000
1505+73437500000+61250000000+60625000000+66250000000+65625000000+47812500000
1474+46562499999+53437500000+65000000000+70000000000+74687500000+79062500000
1442+81875000000+84062500000+85312500000+86250000000+86875000000+86250000000
1411+84062500000+79062500000+74375000000+73750000000+75937500000+79062500000
1379+72812500000+66562500000+67500000000+70000000000+73125000000+80312500000
1347+84687500000+86562500000+85000000000+83125000000+82187500000+76250000000
1316+62812500000+60312500000+68750000000+68125000000+50000000000+47812500000
1284+61562500000+75000000000+80937500000+82500000000+85000000000+87812500000
1253+88750000000+89375000000+89062500000+88750000000+88437500000+86562500000
1221+78750000000+72500000000+73125000000+78437500000+82500000000+86250000000
1189+88437500000+89062500000+89375000000+90312500000+90312500000+89062500000
1158+85312500000+76562500000+73750000000+75937500000+85000000000+88750000000
1126+90000000000+90625000000+89687500000+87500000000+86875000000+87187500000
1095+90625000000+91875000000+92500000000+92500000000+92500000000+92500000000
1063+92500000000+92500000000+92500000000+92500000000+92500000000+92500000000
1032+91875000000+89687500000+87812500000+87812500000+90000000000+91250000000
1000+91562500000+89375000000+87500000000+90000000000+91875000000+92187500000
968+90937500000+90312500000+90937500000+91250000000+91250000000+90937500000
937+90312500000+89687500000+88125000000+88125000000+87812500000+87500000000
905+86875000000+85312500000+84375000000+84062500000+83750000000+83125000000
874+82500000000+80625000000+79375000000+78750000000+77187500000+71875000000
842+62187500000+58437500000+69375000000+76875000000+81250000000+82500000000
811+83437500000+84375000000+84687500000+84687500000+84687500000+84687500000
779+84687500000+84687500000+84687500000+84687500000+84687500000+84687500000
747+84687500000+85625000000+86250000000+86875000000+87187500000+86875000000
716+86875000000+86562500000+86562500000+86875000000+87812500000+88750000000
684+89375000000+89687500000+90000000000+89687500000+89375000000+89375000000
653+89375000000+89375000000+89375000000+89687500000+90312500000+90625000000
621+90937500000+91562500000+92187500000+92500000000+92812500000+93437500000
589+93750000000+94062500000+94062500000+94062500000+93750000000+93750000000
558+93437500000+93125000000+93125000000+92812500000+92812500000+92500000000
526+92187500000+92187500000+91875000000+91875000000+91875000000+91875000000
495+91875000000+91875000000+91875000000+92187500000+91875000000+91562500000
463+90937500000+90000000000+88750000000+87187500000+85625000000+83750000000
432+82187500000+80625000000+79687500000+78750000000+78437500000+77812500000
400+77500000000
##END=
