##TITLE=alpha-benzamido-2,4-dimethoxycinnamic acid
##JCAMP-DX=4.24
##DATA TYPE=INFRARED SPECTRUM
##DATE=10/06/2025
##SAMPLING PROCEDURE=ATR
##ORIGIN=SDBS
##XUNITS=1/CM
##YUNITS=TRANSMITTANCE
##RESOLUTION=5.2631578947368425
##FIRSTX=4000.0
##LASTX=400.0
##DELTAX=-5.2631578947368425
##MAXY=95.0
##MINY=0.0
##XFACTOR=1
##YFACTOR=1
##NPOINTS=685
##FIRSTY=0.0
##XYDATA=(X++(Y..Y))
4000+0+84687500000+84687500000+84687500000+84687500000+84687500000
3968+84687500000+85000000000+84687500000+84687500000+85000000000+85000000000
3937+85000000000+85312500000+85625000000+85625000000+85625000000+85312500000
3905+85312500000+85312500000+85625000000+85625000000+85625000000+85625000000
3874+85937500000+85937500000+85937500000+85937500000+85937500000+86250000000
3842+86250000000+86562500000+86875000000+86875000000+86875000000+86875000000
3811+86875000000+86875000000+86875000000+86875000000+86875000000+87187500000
3779+87187500000+86875000000+86875000000+86875000000+87187500000+87187500000
3747+87500000000+87500000000+87500000000+87812500000+87812500000+87812500000
3716+87812500000+88125000000+88125000000+88437500000+88750000000+88750000000
3684+88750000000+88750000000+88750000000+88750000000+89062500000+89062500000
3653+89062500000+89375000000+89375000000+89375000000+89687500000+89687500000
3621+89687500000+89687500000+89687500000+89687500000+89375000000+89375000000
3589+89062500000+89062500000+89062500000+88750000000+88750000000+88437500000
3558+88125000000+87812500000+87500000000+86875000000+85312500000+84062500000
3526+82812500000+80625000000+78750000000+76250000000+73437500000+70937500000
3495+68125000000+66250000000+64687500000+64687500000+64687500000+65937500000
3463+67812500000+69375000000+70937500000+73437500000+75000000000+76562500000
3432+77500000000+78125000000+78125000000+78125000000+78125000000+78125000000
3400+78125000000+77812500000+77812500000+77812500000+77500000000+76875000000
3368+75937500000+75000000000+74687500000+74062500000+73750000000+73437500000
3337+72812500000+72187500000+70000000000+68437500000+65937500000+61562500000
3305+61250000000+56875000000+47500000000+35625000000+19375000000+13437500000
3274+12187500000+13437500000+9062500000+5000000000+4687500000+5000000000
3242+9062500000+14062500000+17812500000+23125000000+25312500000+22187500000
3211+17500000000+13125000000+13750000000+25000000000+44062500000+55000000000
3179+62500000000+65625000000+67812500000+69062500000+70937500000+71875000000
3147+73125000000+74062500000+74375000000+74687500000+75000000000+75312500000
3116+75625000000+75937500000+76562500000+76875000000+75625000000+74375000000
3084+74062500000+74062500000+74062500000+74375000000+74687500000+74062500000
3053+73437500000+73125000000+73125000000+73125000000+73437500000+73437500000
3021+73437500000+73750000000+73750000000+73750000000+74062500000+73750000000
2989+73437500000+73125000000+73125000000+73125000000+73437500000+75000000000
2958+76250000000+76875000000+77187500000+78125000000+79062500000+79687500000
2926+80312500000+80625000000+81250000000+81875000000+82187500000+82812500000
2895+83437500000+83750000000+84375000000+84687500000+84687500000+85000000000
2863+85312500000+85625000000+85937500000+86250000000+86562500000+86875000000
2832+87500000000+87500000000+88125000000+88437500000+88750000000+89062500000
2800+89375000000+89687500000+90000000000+90312500000+90312500000+90625000000
2768+90625000000+90625000000+90937500000+90937500000+90937500000+90937500000
2737+91250000000+91250000000+91250000000+91250000000+91250000000+91250000000
2705+91562500000+92187500000+92812500000+92812500000+93125000000+93125000000
2674+93125000000+93437500000+93125000000+92812500000+92812500000+92812500000
2642+92812500000+93125000000+93125000000+93125000000+93125000000+93125000000
2611+93125000000+93125000000+93125000000+92812500000+92812500000+92812500000
2579+92812500000+92812500000+93125000000+93125000000+93437500000+93437500000
2547+93750000000+93750000000+93750000000+93750000000+93437500000+93437500000
2516+93125000000+92812500000+92812500000+92500000000+92500000000+92187500000
2484+92187500000+92187500000+92187500000+92187500000+92500000000+92500000000
2453+92500000000+92500000000+92500000000+92500000000+92500000000+92187500000
2421+92187500000+92187500000+92187500000+91875000000+91875000000+91875000000
2389+91562500000+91250000000+90937500000+90625000000+90625000000+90312500000
2358+90312500000+90625000000+91562500000+92500000000+93125000000+93437500000
2326+93750000000+94062500000+94062500000+94062500000+94375000000+94375000000
2295+94375000000+94375000000+94687500000+94687500000+94687500000+94687500000
2263+94687500000+95000000000+95000000000+94687500000+94687500000+94062500000
2232+93437500000+92500000000+91250000000+88750000000+85937500000+82187500000
2200+75937500000+66250000000+54375000000+40625000000+34375000000+34062500000
2168+36562500000+44375000000+55312500000+62812500000+65625000000+55625000000
2137+43125000000+28125000000+24062500000+27500000000+49375000000+65312500000
2105+70625000000+65625000000+61250000000+56250000000+55625000000+55000000000
2074+40312499999+28125000000+28125000000+30312500000+33750000000+40937500000
2042+54687500000+63437500000+56250000000+52187500000+55000000000+59375000000
2011+64375000000+72187500000+78437500000+81562500000+83750000000+84062500000
1979+82500000000+80000000000+74687500000+65000000000+55625000000+49062500000
1947+45937500000+43750000000+43437499999+44062500000+44999999999+36562500000
1916+43125000000+57812500000+48437500000+34687500000+32500000000+33437500000
1884+40000000000+39062500000+32500000000+32500000000+32812500000+33437500000
1853+35937500000+41562500000+40937500000+40937500000+37812500000+39062500000
1821+51875000000+61875000000+68125000000+66875000000+67500000000+74375000000
1789+78437500000+80937500000+82500000000+81875000000+79687500000+72187500000
1758+67500000000+61250000000+60000000000+62812500000+70625000000+71562500000
1726+74687500000+78750000000+79687500000+79687500000+79375000000+79375000000
1695+78437500000+76875000000+72500000000+67812500000+62500000000+60625000000
1663+55937500000+48437500000+47500000000+48750000000+48124999999+44375000000
1632+43125000000+32812500000+20625000000+17500000000+17187500000+18437500000
1600+20625000000+24062500000+30625000000+39062500000+47500000000+55000000000
1568+60312500000+63125000000+65625000000+69375000000+73125000000+75937500000
1537+77500000000+76875000000+68125000000+44062500000+33750000000+43125000000
1505+64375000000+73750000000+78750000000+80000000000+77812500000+77812500000
1474+81250000000+80312500000+67812500000+68125000000+61875000000+58750000000
1442+65937500000+74062500000+78125000000+82500000000+85937500000+87187500000
1411+86875000000+82500000000+79687500000+75937500000+53437500000+48124999999
1379+60000000000+73437500000+76875000000+83750000000+87187500000+88125000000
1347+89375000000+89375000000+89375000000+89375000000+90000000000+90312500000
1316+90937500000+90937500000+90000000000+88437500000+86250000000+84687500000
1284+77812500000+60312500000+45937500000+44375000000+56250000000+72812500000
1253+80000000000+84062500000+86562500000+87500000000+88125000000+88437500000
1221+88750000000+89375000000+89375000000+89062500000+87812500000+84062500000
1189+81562500000+80937500000+78125000000+77500000000+77812500000+79375000000
1158+81250000000+81562500000+80937500000+66875000000+67812500000+76875000000
1126+76250000000+70000000000+71250000000+80625000000+85312500000+87500000000
1095+87187500000+82812500000+82812500000+85625000000+89062500000+89062500000
1063+89062500000+89375000000+89375000000+89375000000+90000000000+90625000000
1032+91875000000+92812500000+92812500000+90312500000+90000000000+88125000000
1000+84062500000+80000000000+80625000000+75000000000+51562500000+56562500000
968+85625000000+90312500000+91875000000+89687500000+85000000000+89062500000
937+91250000000+91562500000+93125000000+93437500000+93437500000+93125000000
905+92812500000+92500000000+90937500000+80625000000+77187500000+85000000000
874+88750000000+85000000000+71875000000+71250000000+75312500000+79375000000
842+76250000000+77812500000+76250000000+55625000000+56875000000+77500000000
811+81875000000+81250000000+79687500000+80312500000+85625000000+89687500000
779+90312500000+90625000000+90312500000+89687500000+88437500000+87187500000
747+85625000000+85000000000+83750000000+82500000000+80937500000+77812500000
716+77500000000+80625000000+83437500000+84687500000+80000000000+80312500000
684+79687500000+79375000000+80312500000+81250000000+81562500000+82500000000
653+83125000000+84375000000+85625000000+87187500000+88750000000+90000000000
621+90937500000+91875000000+91875000000+91562500000+91562500000+91875000000
589+91875000000+92187500000+92187500000+91562500000+89687500000+88750000000
558+86875000000+86875000000+86875000000+86562500000+86250000000+85937500000
526+85625000000+85312500000+85312500000+85312500000+85625000000+86562500000
495+87500000000+88125000000+88750000000+88437500000+88125000000+87812500000
463+87500000000+87187500000+86250000000+85000000000+83125000000+80312500000
432+76875000000+72812500000+69687500000+66250000000+63125000000+61250000000
400+60312500000
##END=
