##TITLE=anthracene
##JCAMP-DX=4.24
##DATA TYPE=INFRARED SPECTRUM
##DATE=10/06/2025
##SAMPLING PROCEDURE=ATR
##ORIGIN=SDBS
##XUNITS=1/CM
##YUNITS=TRANSMITTANCE
##RESOLUTION=5.2631578947368425
##FIRSTX=4000.0
##LASTX=400.0
##DELTAX=-5.2631578947368425
##MAXY=94.375
##MINY=0.0
##XFACTOR=1
##YFACTOR=1
##NPOINTS=685
##FIRSTY=0.0
##XYDATA=(X++(Y..Y))
4000+0+80312500000+80312500000+80312500000+80312500000+80312500000
3968+80312500000+80312500000+80312500000+80625000000+80312500000+80312500000
3937+80312500000+80312500000+80312500000+80000000000+80000000000+80000000000
3905+80000000000+80312500000+80312500000+80312500000+80312500000+80312500000
3874+80312500000+80312500000+80312500000+80312500000+80312500000+80000000000
3842+80000000000+80000000000+80000000000+80000000000+80000000000+80000000000
3811+80000000000+80312500000+80312500000+80312500000+80312500000+80312500000
3779+80000000000+80312500000+80312500000+80312500000+80312500000+80312500000
3747+80312500000+80000000000+80000000000+80000000000+80312500000+80312500000
3716+80312500000+80312500000+80312500000+80625000000+80625000000+80625000000
3684+80312500000+80312500000+80312500000+80312500000+80312500000+80312500000
3653+80312500000+80312500000+80312500000+80312500000+80312500000+80312500000
3621+80312500000+80000000000+80000000000+80000000000+80000000000+80000000000
3589+80000000000+80000000000+79687500000+79687500000+80000000000+80000000000
3558+80000000000+80000000000+80000000000+80000000000+79687500000+79687500000
3526+80000000000+80000000000+79687500000+79687500000+79687500000+79687500000
3495+79687500000+79687500000+79687500000+79687500000+79687500000+79687500000
3463+79375000000+79375000000+79062500000+79062500000+79062500000+79062500000
3432+79062500000+79062500000+79062500000+79062500000+79062500000+79375000000
3400+79375000000+79375000000+79687500000+79687500000+79375000000+79375000000
3368+79375000000+79375000000+79687500000+79687500000+78125000000+69687500000
3337+67500000000+70937500000+71875000000+70312500000+68437500000+66250000000
3305+62500000000+56562500000+46875000000+33750000000+19062500000+12500000000
3274+11250000000+11875000000+8437500000+5312500000+4687500000+5000000000
3242+9375000000+14375000000+19375000000+25000000000+25937500000+22187500000
3211+17500000000+13437500000+14375000000+29375000000+54375000000+68437500000
3179+75625000000+79375000000+81562500000+82500000000+83750000000+84687500000
3147+85312500000+85625000000+85937500000+85937500000+85312500000+84687500000
3116+84687500000+84687500000+84687500000+85000000000+85000000000+84687500000
3084+84687500000+84687500000+84687500000+84687500000+85000000000+85000000000
3053+85312500000+85625000000+85625000000+85625000000+85625000000+85937500000
3021+86250000000+86250000000+86875000000+86875000000+87187500000+87187500000
2989+87187500000+87500000000+87500000000+87500000000+87500000000+87500000000
2958+87500000000+87812500000+87812500000+88125000000+88125000000+88125000000
2926+88125000000+87812500000+87812500000+87812500000+87812500000+88125000000
2895+88125000000+88125000000+88125000000+88125000000+88125000000+88125000000
2863+88125000000+88125000000+88125000000+88125000000+88125000000+88125000000
2832+88125000000+88437500000+88437500000+88437500000+88437500000+88437500000
2800+88437500000+88437500000+88750000000+88750000000+88750000000+88750000000
2768+88750000000+88750000000+88750000000+88750000000+88750000000+89062500000
2737+89062500000+89062500000+89062500000+89375000000+89375000000+89375000000
2705+89375000000+89375000000+89375000000+89375000000+89375000000+89375000000
2674+89375000000+89375000000+89687500000+89687500000+89687500000+89687500000
2642+89687500000+89687500000+89687500000+89687500000+89687500000+90000000000
2611+90312500000+90312500000+90312500000+90312500000+90312500000+90312500000
2579+90312500000+90625000000+90625000000+90625000000+90625000000+90312500000
2547+90312500000+90000000000+90000000000+89687500000+89687500000+89687500000
2516+89687500000+89687500000+89687500000+89687500000+89687500000+89687500000
2484+90000000000+90000000000+90000000000+90312500000+90312500000+90312500000
2453+90625000000+90625000000+90312500000+90312500000+90312500000+90312500000
2421+90312500000+90312500000+90312500000+90312500000+90625000000+90625000000
2389+90625000000+90625000000+90937500000+90937500000+90625000000+90625000000
2358+90312500000+90000000000+90000000000+90000000000+89687500000+89687500000
2326+90000000000+90000000000+87812500000+86875000000+89062500000+90312500000
2295+90625000000+90625000000+90937500000+90937500000+90937500000+90937500000
2263+90937500000+90937500000+90625000000+90625000000+90625000000+90312500000
2232+90312500000+90312500000+90312500000+90312500000+90312500000+90312500000
2200+90312500000+90312500000+90312500000+90312500000+90312500000+90312500000
2168+90625000000+90625000000+90625000000+90625000000+90625000000+90937500000
2137+90937500000+90937500000+90937500000+90937500000+90937500000+90937500000
2105+90937500000+91250000000+91562500000+83750000000+80000000000+86250000000
2074+89687500000+89687500000+90000000000+90312500000+90625000000+90625000000
2042+90625000000+90625000000+90625000000+90625000000+90625000000+90625000000
2011+90625000000+90625000000+90625000000+90937500000+90937500000+91250000000
1979+91250000000+91250000000+85625000000+85937500000+88437500000+89062500000
1947+89687500000+89375000000+89062500000+88750000000+88437500000+87812500000
1916+87500000000+87187500000+86250000000+84062500000+81562500000+76875000000
1884+69375000000+56875000000+45625000000+44999999999+44999999999+47187500000
1853+49375000000+53750000000+56875000000+65000000000+71250000000+76875000000
1821+81875000000+85312500000+87500000000+88437500000+88750000000+88750000000
1789+88750000000+88750000000+86250000000+86250000000+83437500000+77187500000
1758+70937500000+62812500000+61250000000+65000000000+74687500000+75625000000
1726+79062500000+83437500000+84062500000+85000000000+85312500000+85625000000
1695+86562500000+87187500000+87812500000+88750000000+87187500000+81875000000
1663+78750000000+80937500000+82187500000+85312500000+86562500000+86875000000
1632+87500000000+88750000000+88750000000+88750000000+89375000000+83750000000
1600+81250000000+88750000000+89375000000+90000000000+90000000000+89687500000
1568+89687500000+89687500000+90000000000+90312500000+90312500000+90625000000
1537+90625000000+90937500000+90937500000+90937500000+90937500000+91250000000
1505+91250000000+91562500000+91562500000+91875000000+91875000000+91562500000
1474+91562500000+91250000000+90625000000+85312500000+86562500000+89687500000
1442+90312500000+90312500000+71562500000+71250000000+87500000000+88750000000
1411+89687500000+89687500000+89375000000+89687500000+90000000000+90312500000
1379+90625000000+90625000000+90937500000+90937500000+91250000000+90937500000
1347+90937500000+90937500000+90937500000+90937500000+90937500000+90937500000
1316+91250000000+91250000000+91562500000+91562500000+91562500000+91562500000
1284+91562500000+91562500000+91562500000+91562500000+91562500000+91562500000
1253+91875000000+91875000000+92187500000+92187500000+92500000000+85312500000
1221+79687500000+89375000000+90937500000+91250000000+91250000000+91250000000
1189+91250000000+91250000000+90937500000+90625000000+64062500000+57187500000
1158+84375000000+88750000000+90000000000+90312500000+90625000000+90937500000
1126+90937500000+91250000000+91562500000+91562500000+91562500000+89375000000
1095+85000000000+90000000000+90312500000+86875000000+76250000000+37187499999
1063+35937500000+51250000000+73125000000+79687500000+84062500000+86875000000
1032+87812500000+88125000000+89687500000+90937500000+91250000000+91562500000
1000+91875000000+92187500000+92187500000+92187500000+92187500000+92187500000
968+92187500000+92187500000+92187500000+92187500000+92187500000+92187500000
937+92187500000+92187500000+91875000000+91875000000+91875000000+91875000000
905+91875000000+91875000000+91875000000+91562500000+91250000000+90312500000
874+74062500000+73125000000+56562500000+62187500000+60312500000+35625000000
842+37812500000+61562500000+74062500000+81562500000+85625000000+88125000000
811+89687500000+90312500000+90625000000+90937500000+91250000000+91562500000
779+91562500000+91562500000+91562500000+91562500000+91562500000+91562500000
747+91250000000+91875000000+92187500000+92187500000+92500000000+92500000000
716+92500000000+92812500000+92812500000+92812500000+93125000000+93125000000
684+93125000000+89687500000+80937500000+90000000000+92500000000+92500000000
653+92500000000+92500000000+92187500000+92187500000+92187500000+92187500000
621+92500000000+92500000000+92812500000+93125000000+93125000000+93125000000
589+93125000000+93125000000+93125000000+93125000000+93125000000+93125000000
558+93125000000+93125000000+92812500000+92812500000+92812500000+93125000000
526+93125000000+93125000000+92187500000+89062500000+83750000000+52500000000
495+50312500000+77187500000+57812500000+86250000000+88437500000+89062500000
463+94062500000+94062500000+94375000000+92500000000+90312500000+86250000000
432+82812500000+79687500000+77187500000+75000000000+73125000000+72187500000
400+71250000000
##END=
