##TITLE=barium D-galacturonate
##JCAMP-DX=4.24
##DATA TYPE=INFRARED SPECTRUM
##DATE=10/06/2025
##SAMPLING PROCEDURE=ATR
##ORIGIN=SDBS
##XUNITS=1/CM
##YUNITS=TRANSMITTANCE
##RESOLUTION=5.2631578947368425
##FIRSTX=4000.0
##LASTX=400.0
##DELTAX=-5.2631578947368425
##MAXY=95.0
##MINY=0.0
##XFACTOR=1
##YFACTOR=1
##NPOINTS=685
##FIRSTY=0.0
##XYDATA=(X++(Y..Y))
4000+0+89687500000+89375000000+89062500000+89062500000+89062500000
3968+89062500000+89375000000+89375000000+89375000000+89375000000+89062500000
3937+88750000000+88437500000+88437500000+88437500000+88437500000+88125000000
3905+88125000000+87812500000+87812500000+87812500000+87812500000+87500000000
3874+87500000000+87187500000+87187500000+86875000000+86875000000+86875000000
3842+86875000000+86562500000+86562500000+86562500000+86250000000+85937500000
3811+85937500000+85625000000+85312500000+85000000000+84687500000+84062500000
3779+83437500000+82500000000+81562500000+80000000000+78437500000+76562500000
3747+75312500000+73750000000+72187500000+70312500000+69062500000+67187500000
3716+65625000000+64375000000+62500000000+60937500000+59062500000+57812500000
3684+56250000000+54375000000+52812500000+51562500000+50000000000+48750000000
3653+47500000000+46250000000+45312500000+44375000000+43437499999+42500000000
3621+41874999999+40937500000+40000000000+39375000000+38749999999+38437500000
3589+37812500000+37500000000+37187499999+36875000000+36562500000+36250000000
3558+36250000000+35937500000+35937500000+35937500000+35937500000+35937500000
3526+35937500000+35937500000+35937500000+35937500000+35937500000+35937500000
3495+35937500000+35937500000+35937500000+35937500000+36250000000+36250000000
3463+36562500000+36875000000+37187499999+37500000000+37812500000+38125000000
3432+38437500000+38749999999+39375000000+40000000000+40625000000+41250000000
3400+41562500000+42187500000+42812500000+43437499999+44375000000+44999999999
3368+45312500000+45937500000+46562499999+46875000000+47500000000+47812500000
3337+48124999999+48124999999+48124999999+47812500000+46875000000+44999999999
3305+41562500000+37187499999+29062500000+19687500000+11250000000+8125000000
3274+7500000000+7500000000+6250000000+5000000000+4687500000+4687500000
3242+5625000000+7500000000+9687500000+11875000000+13125000000+11562500000
3211+10625000000+8750000000+8750000000+15000000000+30937500000+42500000000
3179+49062500000+53437500000+56250000000+58437500000+60312500000+61875000000
3147+63437500000+64062500000+64375000000+64687500000+64375000000+64375000000
3116+64375000000+64375000000+65000000000+65625000000+65937500000+65937500000
3084+66250000000+66250000000+66875000000+67500000000+68750000000+69375000000
3053+70312500000+70937500000+71562500000+71875000000+72500000000+73125000000
3021+74062500000+74375000000+75000000000+75625000000+76250000000+76875000000
2989+77500000000+78125000000+78437500000+78750000000+79375000000+80000000000
2958+80625000000+80937500000+81250000000+81562500000+82187500000+82500000000
2926+83125000000+83125000000+83437500000+83750000000+84062500000+84375000000
2895+84687500000+84687500000+85000000000+85312500000+85625000000+85625000000
2863+85937500000+85937500000+86250000000+86250000000+86562500000+86875000000
2832+86875000000+87187500000+87187500000+87500000000+87500000000+87812500000
2800+87812500000+88125000000+88125000000+88125000000+88125000000+88437500000
2768+88437500000+88437500000+88750000000+88750000000+88750000000+88750000000
2737+88750000000+88750000000+89062500000+89062500000+89375000000+89375000000
2705+89687500000+89687500000+90000000000+90000000000+90312500000+90312500000
2674+90625000000+90625000000+90937500000+90937500000+91250000000+91562500000
2642+91562500000+91562500000+91875000000+92187500000+92187500000+92500000000
2611+92812500000+92812500000+92812500000+93125000000+93125000000+93125000000
2579+93125000000+93437500000+93437500000+93437500000+93750000000+93750000000
2547+93750000000+93750000000+94062500000+94062500000+94062500000+94062500000
2516+94062500000+94062500000+94375000000+94375000000+94375000000+94375000000
2484+94375000000+94375000000+94375000000+94687500000+94687500000+94687500000
2453+94687500000+94687500000+94687500000+94687500000+94687500000+94687500000
2421+94687500000+95000000000+95000000000+95000000000+95000000000+95000000000
2389+95000000000+95000000000+95000000000+95000000000+95000000000+94687500000
2358+94687500000+94687500000+94687500000+94687500000+94375000000+94375000000
2326+94375000000+94062500000+94062500000+93750000000+93437500000+93437500000
2295+93125000000+92812500000+92500000000+92187500000+91875000000+91562500000
2263+91250000000+90937500000+90625000000+90000000000+89375000000+88437500000
2232+87812500000+86875000000+85937500000+85000000000+84375000000+83437500000
2200+82187500000+80937500000+80000000000+78437500000+76875000000+75312500000
2168+73750000000+71875000000+70312500000+68750000000+67187500000+65625000000
2137+63750000000+61875000000+60312500000+58437500000+55937500000+53125000000
2105+50937500000+48437500000+45625000000+42812500000+40937500000+38749999999
2074+36562500000+34687500000+33437500000+32187500000+31562500000+31250000000
2042+31250000000+31875000000+33125000000+35000000000+37187499999+39687500000
2011+42500000000+45625000000+48437500000+50625000000+53437500000+55937500000
1979+58437500000+60937500000+63437500000+65937500000+68125000000+69687500000
1947+71562500000+72812500000+74062500000+74687500000+75000000000+75000000000
1916+74375000000+73125000000+71562500000+69375000000+66875000000+62187500000
1884+53750000000+41562500000+31562500000+30312500000+30312500000+30937500000
1853+31562500000+35937500000+38125000000+40312499999+42187500000+43750000000
1821+45937500000+46562499999+46562499999+46562499999+46562499999+47187500000
1789+48124999999+49687499999+51562500000+53750000000+54375000000+49375000000
1758+44999999999+38749999999+37187499999+40312499999+49062500000+50312500000
1726+52500000000+56250000000+57812500000+58750000000+59375000000+60625000000
1695+61562500000+63125000000+64062500000+64687500000+64375000000+63750000000
1663+63437500000+63125000000+63437500000+63437500000+64375000000+65625000000
1632+67187500000+68437500000+69375000000+70000000000+70937500000+71250000000
1600+71875000000+72500000000+73125000000+73750000000+74062500000+74375000000
1568+74687500000+75312500000+75937500000+76562500000+77187500000+77812500000
1537+78125000000+78437500000+78750000000+79062500000+79687500000+80312500000
1505+81562500000+82500000000+83125000000+83750000000+83437500000+82812500000
1474+81562500000+79687500000+77500000000+75625000000+72812500000+69687500000
1442+66250000000+64375000000+63125000000+63125000000+63750000000+65625000000
1411+66875000000+68750000000+68750000000+67187500000+64375000000+61875000000
1379+59375000000+57187500000+55937500000+55312500000+55312500000+54687500000
1347+54062500000+53437500000+52812500000+52500000000+52500000000+52812500000
1316+53437500000+54375000000+55937500000+56875000000+57500000000+57812500000
1284+58437500000+58750000000+58750000000+58750000000+59062500000+59687500000
1253+60312500000+61562500000+63750000000+66562500000+70625000000+73750000000
1221+77500000000+80000000000+80625000000+79375000000+78437500000+78437500000
1189+78750000000+80312500000+82500000000+84687500000+86875000000+88437500000
1158+89375000000+89062500000+88750000000+88437500000+87812500000+87187500000
1126+86875000000+86875000000+86875000000+87500000000+88125000000+88437500000
1095+88125000000+87187500000+85937500000+85937500000+85625000000+85312500000
1063+85312500000+85625000000+85625000000+86250000000+86875000000+87187500000
1032+87812500000+88125000000+88125000000+87812500000+87187500000+86875000000
1000+86250000000+85625000000+85000000000+84375000000+84375000000+84062500000
968+83750000000+83125000000+83125000000+82812500000+82812500000+82500000000
937+82187500000+81875000000+81875000000+81562500000+81562500000+81250000000
905+81250000000+81250000000+81562500000+81562500000+81250000000+80937500000
874+80312500000+79375000000+78125000000+77187500000+75937500000+73125000000
842+70000000000+70000000000+72187500000+74687500000+75625000000+76250000000
811+76875000000+77187500000+77500000000+78125000000+78437500000+78750000000
779+79375000000+79375000000+79687500000+79687500000+79375000000+79062500000
747+78750000000+78437500000+78125000000+78125000000+78125000000+78125000000
716+78125000000+78437500000+78750000000+79062500000+79062500000+79375000000
684+79687500000+80000000000+80312500000+80625000000+80937500000+81250000000
653+81562500000+81875000000+82187500000+82500000000+82812500000+83125000000
621+83437500000+83750000000+84062500000+84375000000+85000000000+85312500000
589+85937500000+86250000000+86562500000+86875000000+87187500000+87187500000
558+87500000000+87500000000+87500000000+87812500000+87812500000+87812500000
526+88125000000+88750000000+89375000000+90625000000+91562500000+92500000000
495+93437500000+94062500000+94375000000+94375000000+94062500000+93437500000
463+92812500000+92187500000+91875000000+91875000000+91875000000+91875000000
432+92187500000+92187500000+92187500000+91875000000+91562500000+91562500000
400+91562500000
##END=
