##TITLE=benzoylthiourea
##JCAMP-DX=4.24
##DATA TYPE=INFRARED SPECTRUM
##DATE=10/06/2025
##SAMPLING PROCEDURE=ATR
##ORIGIN=SDBS
##XUNITS=1/CM
##YUNITS=TRANSMITTANCE
##RESOLUTION=5.2631578947368425
##FIRSTX=4000.0
##LASTX=400.0
##DELTAX=-5.2631578947368425
##MAXY=94.6875
##MINY=0.0
##XFACTOR=1
##YFACTOR=1
##NPOINTS=685
##FIRSTY=0.0
##XYDATA=(X++(Y..Y))
4000+0+68750000000+68750000000+68437500000+68437500000+68437500000
3968+68437500000+68750000000+68750000000+69062500000+69062500000+68750000000
3937+68750000000+68750000000+69062500000+69062500000+69375000000+69375000000
3905+69375000000+69375000000+69375000000+69375000000+69687500000+69375000000
3874+69375000000+69687500000+69687500000+70000000000+70000000000+70000000000
3842+70000000000+70312500000+70625000000+70625000000+70625000000+70625000000
3811+70625000000+70937500000+71250000000+71562500000+71875000000+71875000000
3779+71875000000+72187500000+71875000000+72187500000+72187500000+72187500000
3747+72500000000+72500000000+72812500000+73125000000+73437500000+73437500000
3716+73750000000+74062500000+74375000000+74687500000+75000000000+75312500000
3684+75625000000+75937500000+76250000000+76562500000+76562500000+77187500000
3653+77187500000+77500000000+77812500000+78125000000+78437500000+78750000000
3621+79062500000+79375000000+79687500000+80000000000+80312500000+80312500000
3589+80312500000+80000000000+79062500000+77187500000+74375000000+71250000000
3558+65937500000+58125000000+51562500000+46875000000+44375000000+40312499999
3526+32187500000+27500000000+27187500000+28750000000+31562500000+34062500000
3495+34687500000+35312500000+35000000000+34375000000+32187500000+30625000000
3463+30000000000+30000000000+30625000000+32187500000+33437500000+33750000000
3432+31875000000+29062500000+26562500000+25625000000+25312500000+25312500000
3400+25937500000+27187500000+27812500000+28437500000+29375000000+30625000000
3368+32500000000+34062500000+35312500000+35312500000+35312500000+35625000000
3337+35625000000+35625000000+35625000000+35937500000+35312500000+34375000000
3305+32812500000+30312500000+25937500000+19687500000+13125000000+9375000000
3274+8437500000+8750000000+7187500000+5000000000+4687500000+5000000000
3242+7812500000+10625000000+13750000000+16250000000+17500000000+15312500000
3211+14062500000+12500000000+12812500000+19687500000+32812500000+43125000000
3179+50000000000+53750000000+56250000000+57812500000+59062500000+60000000000
3147+60937500000+61562500000+61875000000+62187500000+62187500000+61875000000
3116+61875000000+61875000000+62500000000+63125000000+63437500000+63750000000
3084+63750000000+63750000000+63750000000+64062500000+64375000000+64687500000
3053+64687500000+64375000000+64375000000+64375000000+64687500000+65312500000
3021+66250000000+66875000000+67812500000+68437500000+69062500000+69375000000
2989+69687500000+70000000000+70000000000+70312500000+70312500000+70625000000
2958+71250000000+71562500000+72187500000+72500000000+72812500000+72812500000
2926+72812500000+72812500000+72812500000+72812500000+73125000000+73125000000
2895+73437500000+73437500000+73750000000+74062500000+74375000000+74375000000
2863+74687500000+74687500000+75000000000+75000000000+75312500000+75312500000
2832+75625000000+75937500000+75937500000+76250000000+76562500000+76562500000
2800+76875000000+77187500000+77187500000+77812500000+78125000000+78437500000
2768+78437500000+78437500000+78750000000+79062500000+79375000000+79687500000
2737+79687500000+80000000000+80312500000+80312500000+80000000000+79687500000
2705+79062500000+79062500000+79062500000+79375000000+80000000000+80937500000
2674+81250000000+81562500000+81562500000+81562500000+81562500000+81562500000
2642+81562500000+81562500000+81875000000+81875000000+82500000000+83437500000
2611+84062500000+84375000000+84375000000+84375000000+84375000000+84375000000
2579+84375000000+84062500000+84062500000+84062500000+84062500000+84375000000
2547+85000000000+85625000000+85937500000+86250000000+86562500000+86250000000
2516+85937500000+85937500000+85625000000+85312500000+85312500000+85312500000
2484+85312500000+85312500000+85625000000+86250000000+86875000000+87500000000
2453+88125000000+88437500000+89062500000+89375000000+89687500000+89687500000
2421+90000000000+90312500000+90625000000+90625000000+90625000000+90625000000
2389+90312500000+90312500000+90000000000+90000000000+89687500000+90000000000
2358+90000000000+90312500000+90625000000+90937500000+91250000000+91562500000
2326+91875000000+91875000000+91562500000+91562500000+91562500000+91562500000
2295+91562500000+91875000000+92500000000+92812500000+93125000000+93125000000
2263+93437500000+93437500000+93125000000+93125000000+92812500000+92187500000
2232+91562500000+90937500000+89375000000+86875000000+84375000000+80000000000
2200+73750000000+64062500000+53437500000+43437499999+31875000000+22500000000
2168+22187500000+23437500000+26875000000+35625000000+50625000000+62812500000
2137+69687500000+76875000000+80937500000+81250000000+82187500000+80937500000
2105+77187500000+70000000000+59687500000+46562499999+34375000000+23125000000
2074+15937500000+12812500000+12812500000+13750000000+15000000000+20625000000
2042+27187500000+33125000000+29375000000+28750000000+33437500000+36250000000
2011+34062500000+32187500000+29687500000+25937500000+21562500000+17812500000
1979+16250000000+14687500000+14687500000+15000000000+16875000000+19062500000
1947+22187500000+25625000000+28437500000+30625000000+33125000000+35625000000
1916+38125000000+40312499999+34062500000+34062500000+39062500000+37187499999
1884+32812500000+26875000000+21875000000+20937500000+20937500000+21250000000
1853+21875000000+23125000000+24062500000+29375000000+31875000000+34375000000
1821+35312500000+34375000000+33750000000+33437500000+33437500000+33750000000
1789+34062500000+35000000000+35937500000+36875000000+36875000000+33750000000
1758+30312500000+26562500000+25000000000+26250000000+32187500000+33437500000
1726+36250000000+41250000000+44062500000+45312500000+46250000000+47187500000
1695+47812500000+49687499999+50937500000+52500000000+53125000000+52812500000
1663+52500000000+52187500000+51250000000+50625000000+50625000000+52500000000
1632+56562500000+58750000000+55937500000+50625000000+42812500000+36250000000
1600+32187500000+30000000000+28750000000+28437500000+26562500000+22500000000
1568+20000000000+19375000000+18750000000+19062500000+21250000000+27187500000
1537+31875000000+37187499999+41250000000+45312500000+48437500000+51250000000
1505+54062500000+56250000000+57812500000+59375000000+59375000000+53437500000
1474+40937500000+44375000000+56250000000+59375000000+60937500000+60937500000
1442+63437500000+63750000000+65625000000+67187500000+69062500000+70000000000
1411+71562500000+71250000000+70000000000+62500000000+40000000000+29687500000
1379+27812500000+30625000000+30312500000+35937500000+46250000000+52812500000
1347+58125000000+58437500000+42500000000+40312499999+46875000000+55625000000
1316+59375000000+62500000000+65625000000+67500000000+69062500000+70000000000
1284+70625000000+66562500000+46562499999+39062500000+43125000000+58750000000
1253+53125000000+50625000000+47500000000+48750000000+59375000000+47500000000
1221+50312500000+67187500000+68750000000+69375000000+70000000000+69062500000
1189+67812500000+68437500000+71250000000+72500000000+72812500000+73437500000
1158+74062500000+74062500000+73750000000+73437500000+73125000000+73125000000
1126+73125000000+73437500000+74687500000+75625000000+76250000000+76562500000
1095+76875000000+77187500000+77500000000+77812500000+78437500000+78750000000
1063+79375000000+79687500000+80000000000+80312500000+80625000000+79687500000
1032+77187500000+76875000000+76875000000+77500000000+78750000000+80312500000
1000+80937500000+81250000000+81562500000+81562500000+81562500000+80937500000
968+80000000000+78437500000+72812500000+66562500000+63437500000+66562500000
937+68125000000+52812500000+40312499999+40937500000+52812500000+56250000000
905+58125000000+63125000000+66562500000+69062500000+70937500000+72187500000
874+71875000000+69375000000+65000000000+60312500000+48750000000+43750000000
842+43750000000+39375000000+29687500000+27500000000+27500000000+32500000000
811+41250000000+46250000000+39687500000+42812500000+53437500000+52812500000
779+47812500000+45312500000+44062500000+38437500000+22812500000+22812500000
747+30937500000+40937500000+50312500000+56250000000+56875000000+57500000000
716+47500000000+37500000000+35625000000+36562500000+42500000000+42187500000
684+47187500000+52500000000+56875000000+61562500000+65000000000+68750000000
653+71250000000+73125000000+74375000000+75312500000+76562500000+77812500000
621+79062500000+80312500000+81875000000+83125000000+83750000000+83750000000
589+81875000000+80625000000+79062500000+78125000000+78125000000+80000000000
558+82812500000+86562500000+88437500000+88750000000+89375000000+90312500000
526+90000000000+89687500000+89062500000+88750000000+88750000000+88750000000
495+89062500000+89687500000+90312500000+91250000000+91875000000+92812500000
463+93437500000+94062500000+94375000000+94687500000+94375000000+93125000000
432+90937500000+86875000000+83125000000+78125000000+73437500000+70312500000
400+69062500000
##END=
