##TITLE=benzoyl chloride
##JCAMP-DX=4.24
##DATA TYPE=INFRARED SPECTRUM
##DATE=10/06/2025
##SAMPLING PROCEDURE=ATR
##ORIGIN=SDBS
##XUNITS=1/CM
##YUNITS=TRANSMITTANCE
##RESOLUTION=5.2631578947368425
##FIRSTX=4000.0
##LASTX=400.0
##DELTAX=-5.2631578947368425
##MAXY=95.0
##MINY=0.0
##XFACTOR=1
##YFACTOR=1
##NPOINTS=685
##FIRSTY=0.0
##XYDATA=(X++(Y..Y))
4000+0+94062500000+94062500000+94062500000+94062500000+94062500000
3968+93750000000+93750000000+93750000000+93750000000+94062500000+94062500000
3937+94062500000+94375000000+94375000000+94375000000+94375000000+94375000000
3905+94375000000+94375000000+94375000000+94687500000+94687500000+94687500000
3874+94687500000+94687500000+94687500000+94375000000+94375000000+94375000000
3842+94062500000+94062500000+94062500000+94062500000+94062500000+94062500000
3811+93750000000+93750000000+93750000000+94062500000+94062500000+94062500000
3779+94062500000+94062500000+93750000000+93750000000+93750000000+94062500000
3747+94062500000+94062500000+94375000000+94375000000+94375000000+94062500000
3716+94062500000+94062500000+93750000000+93437500000+93125000000+92812500000
3684+92500000000+92500000000+92500000000+92187500000+91562500000+90312500000
3653+88750000000+88437500000+88437500000+89062500000+90312500000+91562500000
3621+91875000000+92187500000+92500000000+92812500000+93125000000+93125000000
3589+93437500000+93437500000+93437500000+93437500000+93125000000+92812500000
3558+92812500000+93125000000+93125000000+93437500000+93437500000+93437500000
3526+93437500000+93437500000+93437500000+93437500000+93437500000+93437500000
3495+93437500000+93125000000+93437500000+93437500000+93437500000+93125000000
3463+93125000000+93125000000+92812500000+92500000000+92187500000+91875000000
3432+91562500000+91562500000+91562500000+91562500000+91562500000+91562500000
3400+91562500000+90937500000+90625000000+89375000000+87812500000+86875000000
3368+85000000000+82187500000+75000000000+75000000000+76250000000+81562500000
3337+86250000000+86875000000+86875000000+87187500000+88750000000+88125000000
3305+89375000000+90625000000+90937500000+90937500000+90937500000+90937500000
3274+91250000000+91250000000+91562500000+91875000000+92187500000+92187500000
3242+92187500000+92187500000+92187500000+92187500000+92187500000+92500000000
3211+92812500000+92812500000+93125000000+93125000000+93125000000+93125000000
3179+93125000000+92500000000+90625000000+90000000000+90625000000+92187500000
3147+91562500000+90937500000+91250000000+92187500000+93125000000+93437500000
3116+93750000000+93750000000+93750000000+93125000000+92187500000+91875000000
3084+91875000000+91875000000+91875000000+91875000000+91875000000+92187500000
3053+92500000000+92500000000+92187500000+91875000000+91875000000+91875000000
3021+92187500000+92500000000+92812500000+93125000000+93125000000+93125000000
2989+93125000000+93437500000+93437500000+93437500000+93437500000+93750000000
2958+93750000000+93750000000+93750000000+93750000000+93750000000+93750000000
2926+93750000000+94062500000+94062500000+94062500000+93437500000+92500000000
2895+91875000000+91875000000+92500000000+91562500000+91250000000+91562500000
2863+91562500000+92187500000+92500000000+92812500000+93125000000+93750000000
2832+94062500000+94375000000+94687500000+94375000000+94062500000+94062500000
2800+94062500000+94062500000+94375000000+94375000000+94375000000+94375000000
2768+94687500000+94687500000+94687500000+94375000000+94375000000+94375000000
2737+94375000000+94375000000+94375000000+94375000000+94687500000+94687500000
2705+94687500000+95000000000+94687500000+94687500000+94375000000+93750000000
2674+93125000000+92187500000+91875000000+91875000000+91875000000+92187500000
2642+92500000000+92812500000+93125000000+93437500000+93750000000+92812500000
2611+91875000000+91562500000+90937500000+90625000000+90312500000+89687500000
2579+89062500000+88437500000+88125000000+88437500000+89375000000+90937500000
2547+92187500000+92812500000+92812500000+92187500000+91250000000+90312500000
2516+89687500000+89375000000+89375000000+89062500000+87812500000+87187500000
2484+87187500000+88125000000+90000000000+91875000000+92500000000+92812500000
2453+92500000000+92187500000+92187500000+91875000000+91875000000+91562500000
2421+91562500000+90937500000+90312500000+89375000000+88750000000+88125000000
2389+87187500000+85937500000+84375000000+83125000000+80312500000+77187500000
2358+75000000000+74062500000+72187500000+68437500000+63125000000+54062500000
2326+42187500000+28125000000+16562500000+8750000000+5312500000+4687500000
2295+5000000000+6250000000+10625000000+15937500000+20937500000+23750000000
2263+25625000000+23437500000+20625000000+17500000000+17187500000+17500000000
2232+21562500000+27812500000+35625000000+43125000000+49375000000+54687500000
2200+61562500000+66562500000+68750000000+68750000000+71250000000+76875000000
2168+81250000000+83750000000+85312500000+87187500000+88750000000+89687500000
2137+90625000000+91250000000+91562500000+91875000000+91875000000+91875000000
2105+91250000000+90000000000+87187500000+84375000000+82812500000+82812500000
2074+84687500000+84062500000+79062500000+58125000000+26875000000+28750000000
2042+55000000000+46250000000+38125000000+56562500000+79062500000+83125000000
2011+87812500000+90000000000+90312500000+89687500000+89375000000+89375000000
1979+89062500000+89062500000+89062500000+89062500000+89062500000+89062500000
1947+89375000000+90000000000+90625000000+91250000000+91875000000+92187500000
1916+91562500000+89687500000+84062500000+77812500000+80000000000+87812500000
1884+90625000000+91562500000+90937500000+89375000000+84687500000+74062500000
1853+15937500000+10312500000+50937500000+72187500000+85937500000+89687500000
1821+90312500000+89687500000+89062500000+89062500000+89062500000+90000000000
1789+90625000000+89062500000+87812500000+87500000000+87812500000+89375000000
1758+90937500000+91875000000+92187500000+92500000000+92812500000+92812500000
1726+92812500000+92187500000+90937500000+87500000000+82187500000+81250000000
1695+82812500000+86562500000+88125000000+87500000000+80937500000+59375000000
1663+51875000000+66250000000+75625000000+75625000000+80312500000+81875000000
1632+83750000000+84375000000+85000000000+86562500000+87500000000+88437500000
1600+88750000000+89062500000+88437500000+87812500000+86250000000+83125000000
1568+79062500000+76875000000+76875000000+78125000000+79062500000+77187500000
1537+71250000000+60937500000+43125000000+22500000000+7812500000+5312500000
1505+5937500000+12187500000+22812500000+35000000000+44375000000+34375000000
1474+15937500000+11875000000+13437500000+27812500000+42812500000+50937500000
1442+63750000000+76250000000+82187500000+85937500000+88750000000+89375000000
1411+90000000000+90312500000+90625000000+90625000000+90312500000+89687500000
1379+89062500000+87187500000+82187500000+81875000000+85000000000+87187500000
1347+88750000000+87812500000+82812500000+82187500000+84375000000+88125000000
1316+91250000000+92187500000+93125000000+93125000000+93125000000+93437500000
1284+93437500000+93437500000+93437500000+85937500000+74375000000+82500000000
1253+90000000000+90625000000+90937500000+90000000000+77812500000+62187500000
1221+83125000000+87812500000+88125000000+88125000000+88125000000+88437500000
1189+89062500000+89687500000+90312500000+90937500000+90937500000+90312500000
1158+89062500000+86250000000+82500000000+75937500000+73437500000+74375000000
1126+78437500000+75937500000+72812500000+69687500000+67812500000+65000000000
1095+60625000000+54687500000+45312500000+34687500000+25312500000+17187500000
1063+12187500000+8750000000+7500000000+7500000000+8125000000+10625000000
1032+15937500000+22500000000+30000000000+36875000000+43437499999+49375000000
1000+57187500000+65937500000+73125000000+78125000000+81562500000+83437500000
968+84687500000+84687500000+82500000000+81250000000+81250000000+83750000000
937+85625000000+80937500000+64687500000+37187499999+20000000000+20000000000
905+42187500000+72187500000+83437500000+87812500000+89687500000+90312500000
874+90625000000+90937500000+90937500000+90625000000+89375000000+88125000000
842+85937500000+83437500000+80625000000+80625000000+79687500000+74062500000
811+63125000000+55312500000+32187500000+15000000000+10000000000+10312500000
779+12812500000+7500000000+6875000000+10937500000+25000000000+46562499999
747+36875000000+13125000000+12812500000+36250000000+65312500000+75000000000
716+79062500000+83125000000+85000000000+83125000000+54687500000+56562500000
684+85000000000+89375000000+91250000000+92187500000+92812500000+93125000000
653+93437500000+93437500000+93437500000+93125000000+93125000000+93125000000
621+93125000000+93125000000+93125000000+93125000000+93437500000+93437500000
589+93750000000+94062500000+94375000000+94687500000+94375000000+94062500000
558+92187500000+88437500000+80625000000+77500000000+77812500000+82500000000
526+83125000000+84062500000+85312500000+87187500000+88437500000+89062500000
495+90000000000+90312500000+90625000000+90312500000+89375000000+88437500000
463+87187500000+85937500000+83750000000+81875000000+80000000000+78125000000
432+76875000000+76562500000+76562500000+76875000000+77812500000+78750000000
400+79375000000
##END=
