##TITLE=benzhydrol
##JCAMP-DX=4.24
##DATA TYPE=INFRARED SPECTRUM
##DATE=10/06/2025
##SAMPLING PROCEDURE=ATR
##ORIGIN=SDBS
##XUNITS=1/CM
##YUNITS=TRANSMITTANCE
##RESOLUTION=5.2631578947368425
##FIRSTX=4000.0
##LASTX=400.0
##DELTAX=-5.2631578947368425
##MAXY=94.6875
##MINY=0.0
##XFACTOR=1
##YFACTOR=1
##NPOINTS=685
##FIRSTY=0.0
##XYDATA=(X++(Y..Y))
4000+0+82812500000+82812500000+82812500000+82812500000+82812500000
3968+83125000000+83125000000+83125000000+83125000000+83125000000+82812500000
3937+82500000000+82500000000+82500000000+82500000000+82500000000+82500000000
3905+82500000000+82812500000+82812500000+82812500000+83125000000+83125000000
3874+82812500000+82812500000+82812500000+83125000000+83125000000+83437500000
3842+83125000000+83125000000+83125000000+83125000000+83125000000+83125000000
3811+83125000000+83437500000+83437500000+83437500000+83437500000+83437500000
3779+83437500000+83750000000+84062500000+84062500000+84062500000+83750000000
3747+83750000000+83750000000+84062500000+84375000000+84375000000+84375000000
3716+84687500000+85000000000+85312500000+85312500000+85312500000+85000000000
3684+84687500000+84375000000+84062500000+83750000000+83125000000+82500000000
3653+81250000000+80000000000+78750000000+77500000000+76250000000+75312500000
3621+73125000000+70937500000+68437500000+66875000000+64062500000+60625000000
3589+57187500000+54687500000+52187500000+50937500000+50312500000+50000000000
3558+49687499999+49062500000+48437500000+47812500000+47500000000+47187500000
3526+47187500000+47500000000+47812500000+48124999999+48750000000+50000000000
3495+50937500000+52187500000+53437500000+54375000000+55312500000+56250000000
3463+57500000000+58750000000+59687500000+60312500000+61250000000+62187500000
3432+62812500000+63750000000+64375000000+65000000000+65312500000+65937500000
3400+66250000000+66562500000+67187500000+67187500000+67812500000+68125000000
3368+65000000000+60937500000+63437500000+62187500000+56562500000+56875000000
3337+60000000000+59062500000+51562500000+50937500000+54687500000+52500000000
3305+48437500000+43437499999+34375000000+23750000000+14062500000+9062500000
3274+9062500000+9687500000+6562500000+5000000000+4687500000+5000000000
3242+8437500000+11875000000+15625000000+19687500000+21562500000+17812500000
3211+14375000000+10937500000+11562500000+24062500000+49687499999+65312500000
3179+72812500000+76875000000+78437500000+80312500000+81562500000+82500000000
3147+83437500000+84062500000+84375000000+84062500000+83437500000+82500000000
3116+82500000000+82500000000+82500000000+82500000000+82187500000+81875000000
3084+81875000000+81875000000+81875000000+81875000000+81875000000+81875000000
3053+81875000000+82187500000+82500000000+82812500000+83125000000+83437500000
3021+83437500000+83750000000+84375000000+84687500000+85625000000+85937500000
2989+86250000000+86250000000+86250000000+86250000000+86250000000+86562500000
2958+86562500000+86562500000+86562500000+86875000000+86875000000+87187500000
2926+87187500000+87187500000+87187500000+87187500000+87187500000+87187500000
2895+87500000000+87812500000+87812500000+87812500000+88125000000+88125000000
2863+88125000000+88125000000+88125000000+88437500000+88437500000+88437500000
2832+88437500000+88750000000+88750000000+89062500000+89062500000+89062500000
2800+89375000000+89062500000+89062500000+89062500000+89375000000+89375000000
2768+89375000000+89687500000+89687500000+89687500000+90000000000+90000000000
2737+90312500000+90312500000+90312500000+90312500000+90312500000+90625000000
2705+90625000000+90937500000+90937500000+90937500000+90937500000+90937500000
2674+91250000000+91250000000+91250000000+90937500000+90937500000+90937500000
2642+90937500000+90937500000+90937500000+91250000000+91562500000+91562500000
2611+91875000000+91875000000+91875000000+91875000000+91875000000+91562500000
2579+91562500000+91250000000+90312500000+89375000000+89375000000+89687500000
2547+89687500000+87812500000+87500000000+90000000000+91250000000+91562500000
2516+92187500000+92187500000+92187500000+92187500000+91875000000+91875000000
2484+91250000000+90937500000+90625000000+90312500000+90000000000+89687500000
2453+89375000000+89375000000+89687500000+90937500000+91875000000+92187500000
2421+92500000000+92500000000+92812500000+92500000000+92500000000+92500000000
2389+92187500000+91875000000+91875000000+91562500000+91250000000+91250000000
2358+91250000000+91250000000+91250000000+91250000000+91875000000+91875000000
2326+92500000000+92500000000+92812500000+92812500000+92500000000+91875000000
2295+91562500000+91562500000+91250000000+91250000000+91250000000+91562500000
2263+92187500000+92500000000+92812500000+93125000000+93437500000+93437500000
2232+93437500000+93437500000+93750000000+93750000000+93750000000+93750000000
2200+93750000000+93750000000+93437500000+93437500000+93437500000+93437500000
2168+93125000000+93125000000+93125000000+93125000000+93125000000+93437500000
2137+93437500000+93437500000+93437500000+93437500000+93750000000+93750000000
2105+93750000000+94062500000+94062500000+94062500000+94062500000+94062500000
2074+93437500000+91562500000+90000000000+86875000000+85000000000+86875000000
2042+90312500000+91250000000+90937500000+91562500000+92812500000+93437500000
2011+93437500000+93437500000+93125000000+93125000000+93125000000+93125000000
1979+93125000000+92812500000+93125000000+93125000000+93437500000+93437500000
1947+93750000000+93750000000+93750000000+92500000000+91250000000+88125000000
1916+62187500000+42500000000+57187500000+70937500000+76562500000+73750000000
1884+65312500000+51250000000+40000000000+38749999999+33125000000+23750000000
1853+25000000000+37500000000+37812500000+51562500000+61562500000+68750000000
1821+74062500000+77187500000+78125000000+78750000000+80312500000+81562500000
1789+82500000000+82187500000+79687500000+77812500000+75312500000+69062500000
1758+63750000000+56562500000+55312500000+59687500000+71250000000+73125000000
1726+77187500000+80000000000+66875000000+64375000000+71250000000+74375000000
1695+79687500000+83125000000+83437500000+84062500000+83125000000+76875000000
1663+75312500000+78750000000+82500000000+83750000000+83750000000+80312500000
1632+77812500000+77187500000+77500000000+79375000000+74687500000+66250000000
1600+63437500000+64687500000+69062500000+71250000000+75000000000+78437500000
1568+80000000000+80000000000+80000000000+82187500000+85000000000+86562500000
1537+87500000000+88437500000+89062500000+89375000000+88437500000+85625000000
1505+80312500000+80625000000+83437500000+81875000000+74375000000+68125000000
1474+68437500000+71562500000+65312500000+71562500000+78125000000+81562500000
1442+80937500000+81875000000+82500000000+85937500000+87500000000+88437500000
1411+89375000000+90000000000+90312500000+90000000000+90000000000+90000000000
1379+90312500000+90625000000+91250000000+91562500000+91562500000+90312500000
1347+85000000000+85000000000+87812500000+87187500000+88125000000+90312500000
1316+90937500000+91250000000+91250000000+90937500000+89687500000+87500000000
1284+79375000000+56250000000+56562500000+52812500000+68125000000+54687500000
1253+47187500000+48124999999+59375000000+69375000000+73750000000+74375000000
1221+80937500000+82500000000+83125000000+85000000000+86250000000+86562500000
1189+86875000000+87187500000+87500000000+88125000000+88437500000+88750000000
1158+89375000000+89687500000+90312500000+90312500000+89687500000+87812500000
1126+79375000000+79375000000+86562500000+87500000000+80312500000+79687500000
1095+88125000000+89687500000+90312500000+90312500000+90625000000+91562500000
1063+91875000000+92500000000+93125000000+93125000000+92812500000+92187500000
1032+90625000000+86250000000+84687500000+85625000000+88125000000+90000000000
1000+91875000000+92812500000+92500000000+92500000000+92812500000+92812500000
968+92812500000+92812500000+93125000000+93125000000+93437500000+94062500000
937+94375000000+94687500000+94375000000+92812500000+90937500000+90312500000
905+89687500000+86562500000+78125000000+50312500000+47187500000+55625000000
874+69062500000+53750000000+44687500000+36250000000+41250000000+68437500000
842+75000000000+76875000000+80000000000+78437500000+61250000000+33750000000
811+29375000000+28750000000+39062500000+67812500000+75000000000+79062500000
779+80625000000+80312500000+79375000000+78125000000+72500000000+63437500000
747+60312500000+60937500000+73125000000+82500000000+86250000000+88437500000
716+88125000000+87812500000+87500000000+87500000000+84375000000+84687500000
684+82812500000+70000000000+66250000000+77187500000+79062500000+80625000000
653+81250000000+82187500000+83125000000+84062500000+85000000000+86250000000
621+86875000000+87187500000+86562500000+84062500000+75625000000+73437500000
589+73750000000+78125000000+82187500000+85625000000+86875000000+87187500000
558+87812500000+88125000000+88125000000+88437500000+88437500000+88125000000
526+88125000000+88125000000+88125000000+88437500000+88437500000+88125000000
495+87500000000+87187500000+86875000000+86562500000+86562500000+86562500000
463+86250000000+85312500000+83750000000+82187500000+80312500000+78125000000
432+76250000000+75312500000+74687500000+74375000000+74375000000+74375000000
400+74375000000
##END=
