##TITLE=benzenesulfonyl chloride
##JCAMP-DX=4.24
##DATA TYPE=INFRARED SPECTRUM
##DATE=10/06/2025
##SAMPLING PROCEDURE=ATR
##ORIGIN=SDBS
##XUNITS=1/CM
##YUNITS=TRANSMITTANCE
##RESOLUTION=5.2631578947368425
##FIRSTX=4000.0
##LASTX=400.0
##DELTAX=-5.2631578947368425
##MAXY=95.0
##MINY=0.0
##XFACTOR=1
##YFACTOR=1
##NPOINTS=685
##FIRSTY=0.0
##XYDATA=(X++(Y..Y))
4000+0+92812500000+92812500000+92812500000+92812500000+92812500000
3968+92812500000+92812500000+92500000000+92500000000+92500000000+92500000000
3937+92500000000+92812500000+92812500000+92812500000+92812500000+92812500000
3905+92812500000+92812500000+92500000000+92500000000+92500000000+92500000000
3874+92187500000+92187500000+91875000000+91875000000+91875000000+91875000000
3842+92187500000+92187500000+92500000000+92500000000+92500000000+92500000000
3811+92187500000+91875000000+91562500000+91250000000+90937500000+90937500000
3779+90937500000+90937500000+91250000000+91250000000+91562500000+91562500000
3747+91562500000+91562500000+91562500000+91875000000+91875000000+91875000000
3716+91875000000+91875000000+91875000000+92187500000+92187500000+92187500000
3684+92187500000+92187500000+92187500000+92187500000+91875000000+91875000000
3653+91875000000+91875000000+91875000000+91875000000+91875000000+91875000000
3621+91875000000+91875000000+91875000000+91875000000+91875000000+91875000000
3589+91875000000+91875000000+91875000000+91875000000+91875000000+92187500000
3558+92187500000+92187500000+92187500000+92187500000+92187500000+92187500000
3526+92187500000+92187500000+92187500000+91875000000+91875000000+91875000000
3495+91562500000+91562500000+91562500000+91562500000+91562500000+91250000000
3463+91250000000+90937500000+90625000000+90312500000+89687500000+89375000000
3432+89062500000+87187500000+83750000000+83750000000+85625000000+86250000000
3400+85625000000+85000000000+83750000000+81250000000+75000000000+71562500000
3368+71875000000+73437500000+64062500000+62187500000+63437500000+73750000000
3337+80312500000+84062500000+84375000000+85625000000+83750000000+83125000000
3305+86250000000+89062500000+90312500000+90937500000+91250000000+91562500000
3274+91562500000+91562500000+91562500000+91562500000+91875000000+91875000000
3242+91875000000+91562500000+90312500000+90312500000+90937500000+92187500000
3211+92187500000+92500000000+92812500000+92812500000+92812500000+92812500000
3179+92812500000+92812500000+92500000000+91875000000+90000000000+90000000000
3147+90937500000+90312500000+90000000000+90000000000+90312500000+90625000000
3116+91562500000+92187500000+92812500000+92812500000+92812500000+92812500000
3084+92812500000+91562500000+87187500000+86250000000+87812500000+90312500000
3053+91250000000+91562500000+91562500000+91250000000+90000000000+90000000000
3021+90312500000+89687500000+89375000000+88750000000+86875000000+86875000000
2989+86875000000+88125000000+89375000000+90312500000+90937500000+91875000000
2958+92187500000+92187500000+92187500000+92187500000+91875000000+91250000000
2926+91250000000+91562500000+92187500000+92812500000+92812500000+92812500000
2895+92812500000+92187500000+92187500000+91875000000+91875000000+91875000000
2863+91875000000+91875000000+91875000000+91875000000+91875000000+92187500000
2832+92187500000+92187500000+90625000000+90625000000+91562500000+90000000000
2800+87500000000+87500000000+88125000000+89062500000+90000000000+91250000000
2768+91875000000+92500000000+92500000000+92500000000+92500000000+92500000000
2737+92812500000+92187500000+90000000000+89062500000+90312500000+92187500000
2705+92812500000+93125000000+93125000000+92812500000+91250000000+91250000000
2674+92500000000+92187500000+92187500000+93125000000+93125000000+93125000000
2642+93125000000+92812500000+92500000000+92187500000+91250000000+89375000000
2611+88125000000+88125000000+88125000000+88125000000+87812500000+87500000000
2579+86875000000+86250000000+86250000000+86875000000+88125000000+89687500000
2547+90937500000+91562500000+91875000000+91562500000+90937500000+90312500000
2516+89375000000+88750000000+88437500000+88437500000+88125000000+86250000000
2484+84687500000+83750000000+83437500000+83750000000+85625000000+87812500000
2453+89375000000+90312500000+90937500000+91875000000+92187500000+92500000000
2421+92812500000+92812500000+92812500000+92500000000+92187500000+91875000000
2389+91562500000+91562500000+91250000000+90625000000+89687500000+88125000000
2358+86562500000+85312500000+84375000000+83125000000+82500000000+82500000000
2326+85312500000+88437500000+90312500000+90625000000+89375000000+88437500000
2295+88125000000+87812500000+87812500000+88437500000+89375000000+90312500000
2263+91250000000+91875000000+92187500000+92187500000+92500000000+92500000000
2232+92812500000+92812500000+92812500000+93125000000+93125000000+93125000000
2200+92812500000+91875000000+90937500000+89375000000+87812500000+86875000000
2168+86875000000+87187500000+88437500000+90000000000+90937500000+91562500000
2137+92187500000+92500000000+92812500000+92812500000+93125000000+92812500000
2105+92500000000+92187500000+92500000000+92187500000+91875000000+90625000000
2074+89062500000+89062500000+89062500000+88125000000+86875000000+85625000000
2042+82500000000+65312500000+55937500000+59062500000+74375000000+80937500000
2011+84687500000+88437500000+90625000000+91250000000+91875000000+92187500000
1979+92500000000+92812500000+92812500000+92500000000+91875000000+91250000000
1947+90937500000+90625000000+90625000000+90625000000+90625000000+90625000000
1916+90937500000+91250000000+91562500000+89687500000+80625000000+54687500000
1884+54687500000+69375000000+77187500000+81250000000+77187500000+61562500000
1853+13750000000+12812500000+37187499999+53750000000+69375000000+75000000000
1821+79375000000+81875000000+82812500000+82187500000+80000000000+77812500000
1789+72812500000+64375000000+52812500000+39375000000+22812500000+12812500000
1758+9687500000+9375000000+9375000000+10312500000+11875000000+15312500000
1726+21875000000+30312500000+38749999999+49062500000+58437500000+53750000000
1695+41874999999+40937500000+44062500000+58437500000+67812500000+65937500000
1663+51875000000+49062500000+57187500000+73750000000+70937500000+62812500000
1632+56250000000+55625000000+56250000000+62187500000+71875000000+79375000000
1600+82812500000+83437500000+85625000000+88750000000+90000000000+90625000000
1568+90625000000+90312500000+89375000000+88437500000+87812500000+87187500000
1537+85937500000+84062500000+81875000000+78750000000+73750000000+65312500000
1505+51250000000+34062500000+13750000000+6875000000+6875000000+8125000000
1474+10625000000+10312500000+11875000000+15000000000+18125000000+20625000000
1442+25625000000+32187500000+38125000000+45312500000+52812500000+59687500000
1411+67812500000+73750000000+78750000000+81562500000+84375000000+86250000000
1379+87500000000+86562500000+80312500000+66562500000+59375000000+60312500000
1347+46250000000+21250000000+19375000000+27187500000+50937500000+55625000000
1316+59375000000+69062500000+77812500000+84375000000+87812500000+89375000000
1284+89375000000+86562500000+85000000000+85000000000+80312500000+60000000000
1253+61562500000+80937500000+86250000000+87500000000+83125000000+48437500000
1221+47812500000+72500000000+83125000000+85312500000+88125000000+87500000000
1189+87187500000+87500000000+90000000000+91250000000+91875000000+92187500000
1158+92500000000+92500000000+91875000000+90625000000+87500000000+83750000000
1126+83125000000+84375000000+89375000000+91875000000+93125000000+93750000000
1095+94375000000+94375000000+94687500000+94687500000+95000000000+94687500000
1063+94687500000+94375000000+94062500000+93437500000+93125000000+93125000000
1032+92812500000+92500000000+91875000000+90000000000+86875000000+85000000000
1000+85000000000+86250000000+88750000000+90625000000+91562500000+91875000000
968+92187500000+92500000000+92500000000+92187500000+91250000000+90625000000
937+90000000000+89687500000+88750000000+87812500000+85625000000+81875000000
905+71562500000+53750000000+32187500000+19375000000+15625000000+15937500000
874+26875000000+52812500000+67187500000+72812500000+70312500000+53125000000
842+14687500000+10000000000+10937500000+26250000000+49375000000+58750000000
811+62187500000+59062500000+59375000000+41874999999+15625000000+11250000000
779+12500000000+30625000000+41562500000+51250000000+67500000000+78437500000
747+82500000000+84687500000+86250000000+86875000000+85937500000+83750000000
716+82187500000+80937500000+78125000000+72812500000+63750000000+51875000000
684+52187500000+47812500000+35000000000+20937500000+12812500000+10000000000
653+8437500000+7500000000+6250000000+5937500000+5937500000+7187500000
621+10000000000+17500000000+14062500000+5937500000+4687500000+8125000000
589+21562500000+51250000000+63750000000+72187500000+77500000000+82187500000
558+85000000000+86875000000+88125000000+89062500000+89375000000+89375000000
526+88437500000+87187500000+85000000000+81562500000+76875000000+69062500000
495+58750000000+49375000000+43750000000+43437499999+45312500000+52187500000
463+56562500000+61562500000+67500000000+72812500000+76562500000+79062500000
432+81562500000+83437500000+84687500000+85625000000+86250000000+86562500000
400+86875000000
##END=
