##TITLE=benzylamine
##JCAMP-DX=4.24
##DATA TYPE=INFRARED SPECTRUM
##DATE=10/06/2025
##SAMPLING PROCEDURE=ATR
##ORIGIN=SDBS
##XUNITS=1/CM
##YUNITS=TRANSMITTANCE
##RESOLUTION=5.2631578947368425
##FIRSTX=4000.0
##LASTX=400.0
##DELTAX=-5.2631578947368425
##MAXY=95.0
##MINY=0.0
##XFACTOR=1
##YFACTOR=1
##NPOINTS=685
##FIRSTY=0.0
##XYDATA=(X++(Y..Y))
4000+0+93437500000+93437500000+93750000000+93750000000+93750000000
3968+93750000000+93750000000+93750000000+93750000000+93750000000+93750000000
3937+93437500000+93437500000+93750000000+93750000000+93437500000+93437500000
3905+93437500000+93125000000+93125000000+93125000000+93125000000+92812500000
3874+92812500000+92812500000+92812500000+92812500000+92812500000+93125000000
3842+93125000000+93125000000+93437500000+93437500000+93125000000+92812500000
3811+92812500000+92500000000+92500000000+92500000000+92500000000+92187500000
3779+91250000000+90000000000+89062500000+87187500000+85937500000+85937500000
3747+86250000000+86875000000+87500000000+88437500000+88750000000+89062500000
3716+89062500000+88750000000+88437500000+87812500000+87500000000+86875000000
3684+86250000000+85625000000+85000000000+84375000000+83750000000+82812500000
3653+81875000000+81250000000+80000000000+79062500000+78125000000+76875000000
3621+75625000000+74375000000+72812500000+71250000000+69375000000+65937500000
3589+61250000000+54687500000+44687500000+35937500000+30937500000+30625000000
3558+30937500000+34687500000+40000000000+45312500000+48750000000+46562499999
3526+43437499999+41562500000+40000000000+39062500000+39062500000+39375000000
3495+40312499999+42500000000+45312500000+48124999999+50625000000+52812500000
3463+54687500000+55937500000+56562500000+56875000000+56875000000+57187500000
3432+57500000000+58750000000+60000000000+61875000000+64687500000+67187500000
3400+69062500000+70625000000+70312500000+64687500000+61250000000+62187500000
3368+41562500000+35937500000+43750000000+28750000000+25312500000+31250000000
3337+41562500000+28437500000+16250000000+15937500000+29062500000+48437500000
3305+50625000000+56875000000+65000000000+66875000000+66250000000+61250000000
3274+52500000000+43437499999+36875000000+31562500000+29375000000+29375000000
3242+30000000000+31875000000+34375000000+36250000000+35000000000+28437500000
3211+24687500000+24375000000+26250000000+32187500000+37812500000+40937500000
3179+47187500000+56250000000+65312500000+70625000000+74687500000+77187500000
3147+78437500000+77187500000+75625000000+75625000000+76875000000+79687500000
3116+83125000000+85312500000+86562500000+87500000000+88125000000+88750000000
3084+88750000000+88750000000+88437500000+88437500000+88125000000+87812500000
3053+87812500000+87812500000+88750000000+90000000000+90000000000+90312500000
3021+91562500000+90937500000+91562500000+92500000000+92812500000+92500000000
2989+92500000000+92500000000+92500000000+92500000000+92500000000+92500000000
2958+92500000000+92812500000+92812500000+93125000000+93125000000+93125000000
2926+93437500000+93437500000+93437500000+93750000000+93750000000+93750000000
2895+93750000000+93750000000+93750000000+93750000000+93437500000+93437500000
2863+93125000000+93125000000+93125000000+92812500000+92812500000+92812500000
2832+92812500000+92812500000+92812500000+93125000000+93437500000+93437500000
2800+93437500000+93125000000+93125000000+93125000000+93125000000+93125000000
2768+93125000000+93437500000+93437500000+93750000000+93750000000+94062500000
2737+94062500000+94375000000+94375000000+94687500000+94687500000+94687500000
2705+94687500000+94687500000+94687500000+95000000000+95000000000+94687500000
2674+94687500000+94687500000+94687500000+94375000000+94375000000+94375000000
2642+94062500000+93750000000+93437500000+93125000000+92812500000+92187500000
2611+91562500000+90937500000+89687500000+89062500000+88437500000+87500000000
2579+86250000000+84375000000+82187500000+80937500000+79687500000+77812500000
2547+76562500000+76562500000+76875000000+79062500000+82187500000+85000000000
2516+86562500000+87812500000+88437500000+88750000000+88437500000+87500000000
2484+86562500000+85625000000+84375000000+83437500000+82812500000+82187500000
2453+81875000000+81875000000+81875000000+82500000000+83437500000+84687500000
2421+86250000000+87187500000+87812500000+88125000000+88437500000+88125000000
2389+87500000000+86875000000+85625000000+84687500000+83750000000+82500000000
2358+80937500000+80312500000+80312500000+80625000000+83125000000+85312500000
2326+88125000000+89687500000+90312500000+89687500000+88750000000+88125000000
2295+87812500000+87500000000+86875000000+86875000000+86875000000+87187500000
2263+87812500000+88750000000+89375000000+89687500000+90000000000+90312500000
2232+90000000000+90000000000+89687500000+89062500000+88437500000+87500000000
2200+86562500000+85937500000+85312500000+84687500000+83437500000+82187500000
2168+80937500000+79375000000+77187500000+75312500000+73437500000+71875000000
2137+70000000000+67500000000+65312500000+62187500000+60000000000+58125000000
2105+56250000000+53125000000+50000000000+46562499999+44062500000+39687500000
2074+34062500000+27500000000+26875000000+28125000000+33750000000+36562500000
2042+36875000000+36250000000+37500000000+42812500000+47187500000+50625000000
2011+54375000000+57812500000+60937500000+63125000000+65000000000+66562500000
1979+68125000000+70000000000+72500000000+75000000000+76875000000+78125000000
1947+78750000000+78437500000+77500000000+74375000000+67812500000+47500000000
1916+16875000000+11562500000+21562500000+49062500000+67187500000+73125000000
1884+71562500000+67187500000+59687500000+50312500000+35625000000+16562500000
1853+8750000000+10937500000+32812500000+50937500000+60312500000+67500000000
1821+73437500000+77187500000+79687500000+81250000000+82187500000+81562500000
1789+79375000000+75000000000+67500000000+58125000000+47500000000+41250000000
1758+40625000000+42812500000+49375000000+58437500000+64687500000+67500000000
1726+65625000000+62187500000+59375000000+59375000000+60000000000+63437500000
1695+67187500000+70000000000+70937500000+71875000000+73125000000+75000000000
1663+77187500000+78437500000+78750000000+78437500000+77500000000+76562500000
1632+76562500000+76562500000+77187500000+78437500000+78437500000+77187500000
1600+75937500000+75937500000+75937500000+77812500000+80000000000+82500000000
1568+85000000000+86875000000+88125000000+89062500000+89375000000+89062500000
1537+88125000000+86250000000+82500000000+77500000000+72812500000+69062500000
1505+67500000000+68125000000+71875000000+75625000000+75312500000+74062500000
1474+73125000000+73437500000+75937500000+76875000000+75312500000+72500000000
1442+71562500000+71875000000+74687500000+78437500000+81250000000+83125000000
1411+85312500000+86875000000+88125000000+88750000000+88750000000+88125000000
1379+87500000000+87187500000+86875000000+85625000000+84062500000+81875000000
1347+78437500000+73125000000+63437500000+60312500000+60312500000+57187500000
1316+49375000000+43125000000+43125000000+45625000000+49687499999+52812500000
1284+56562500000+60000000000+63437500000+45625000000+30312500000+31250000000
1253+45625000000+57500000000+63437500000+64062500000+59062500000+56562500000
1221+57500000000+54687500000+51562500000+49062500000+48124999999+48124999999
1189+48124999999+48750000000+50312500000+52812500000+55312500000+56562500000
1158+56250000000+54375000000+52187500000+48437500000+44062500000+39062500000
1126+35312500000+30312500000+26250000000+23125000000+21250000000+20000000000
1095+19687500000+19375000000+19062500000+18437500000+17500000000+16562500000
1063+15625000000+14687500000+14062500000+13750000000+13750000000+13750000000
1032+13750000000+14062500000+14375000000+14687500000+15000000000+15625000000
1000+16562500000+18125000000+19687500000+21875000000+25000000000+27500000000
968+30937500000+33125000000+35000000000+38437500000+41562500000+37187499999
937+29687500000+25000000000+23125000000+22812500000+23125000000+24687500000
905+26250000000+27187500000+23750000000+16875000000+11250000000+9062500000
874+8125000000+7500000000+7187500000+7500000000+8125000000+10937500000
842+16875000000+25625000000+32187500000+30625000000+17812500000+8125000000
811+5000000000+4687500000+7500000000+25312500000+45625000000+59687500000
779+67187500000+70937500000+72500000000+75625000000+79062500000+81875000000
747+83750000000+85000000000+86250000000+87187500000+87812500000+88437500000
716+88750000000+88437500000+86875000000+83750000000+85625000000+87500000000
684+86250000000+84375000000+81562500000+77500000000+68750000000+54375000000
653+35000000000+27500000000+27500000000+34375000000+50000000000+65000000000
621+74062500000+81250000000+85625000000+88437500000+89687500000+90937500000
589+92187500000+92812500000+93125000000+93437500000+93750000000+93750000000
558+93437500000+93125000000+92500000000+91562500000+89687500000+86562500000
526+81562500000+74687500000+66250000000+61875000000+59375000000+57812500000
495+57812500000+59062500000+61562500000+64687500000+68125000000+71562500000
463+74375000000+76250000000+77500000000+77500000000+76562500000+75000000000
432+73437500000+71875000000+70937500000+69687500000+69062500000+68437500000
400+67812500000
##END=
