##TITLE=benz(a)anthracene
##JCAMP-DX=4.24
##DATA TYPE=INFRARED SPECTRUM
##DATE=10/06/2025
##SAMPLING PROCEDURE=ATR
##ORIGIN=SDBS
##XUNITS=1/CM
##YUNITS=TRANSMITTANCE
##RESOLUTION=5.2631578947368425
##FIRSTX=4000.0
##LASTX=400.0
##DELTAX=-5.2631578947368425
##MAXY=94.6875
##MINY=0.0
##XFACTOR=1
##YFACTOR=1
##NPOINTS=685
##FIRSTY=0.0
##XYDATA=(X++(Y..Y))
4000+0+84062500000+84375000000+84687500000+84687500000+84687500000
3968+84687500000+84687500000+84375000000+84375000000+84062500000+83750000000
3937+83750000000+83437500000+83437500000+83437500000+83437500000+83437500000
3905+83437500000+83125000000+82812500000+82812500000+82812500000+82812500000
3874+82812500000+82812500000+82500000000+82500000000+82500000000+82187500000
3842+81875000000+81875000000+81875000000+81875000000+81875000000+81875000000
3811+81875000000+81875000000+81562500000+81562500000+81250000000+81250000000
3779+81250000000+81250000000+81250000000+81250000000+80937500000+80625000000
3747+80625000000+80625000000+80625000000+80937500000+80625000000+80625000000
3716+80625000000+80625000000+80937500000+80937500000+80937500000+80937500000
3684+80937500000+80937500000+80937500000+80625000000+80625000000+80625000000
3653+80312500000+80000000000+79687500000+79687500000+79687500000+79687500000
3621+80000000000+79687500000+79687500000+79687500000+79687500000+79687500000
3589+79687500000+79687500000+79687500000+79687500000+79687500000+79375000000
3558+79375000000+79062500000+79062500000+79062500000+79062500000+79375000000
3526+79062500000+79062500000+78750000000+78750000000+78750000000+78750000000
3495+79062500000+78750000000+78750000000+78437500000+78437500000+78437500000
3463+78750000000+78750000000+78750000000+78437500000+78437500000+78437500000
3432+78437500000+78437500000+78750000000+79062500000+79062500000+79375000000
3400+79375000000+79375000000+79375000000+79375000000+79375000000+79687500000
3368+79375000000+78125000000+76875000000+74687500000+71250000000+68125000000
3337+67500000000+69687500000+67187500000+68125000000+69375000000+66875000000
3305+63125000000+59062500000+50000000000+37187499999+21875000000+14375000000
3274+13125000000+14062500000+9375000000+5312500000+4687500000+5000000000
3242+9687500000+15312500000+20625000000+26250000000+27812500000+24375000000
3211+20000000000+14687500000+15312500000+30625000000+54375000000+66875000000
3179+73750000000+77187500000+79375000000+80625000000+81875000000+83125000000
3147+84062500000+84687500000+85000000000+85000000000+84375000000+84062500000
3116+84062500000+84062500000+84375000000+84375000000+84375000000+84375000000
3084+84375000000+84375000000+84375000000+84375000000+84687500000+85000000000
3053+85312500000+85625000000+85937500000+85937500000+86250000000+86250000000
3021+86250000000+86562500000+86875000000+87187500000+87500000000+87812500000
2989+87812500000+88125000000+88125000000+88125000000+88437500000+88437500000
2958+88437500000+88437500000+88437500000+88750000000+88750000000+88750000000
2926+88750000000+88750000000+88750000000+88750000000+88750000000+88750000000
2895+88750000000+88750000000+88750000000+88437500000+88437500000+88437500000
2863+88437500000+88437500000+88750000000+88750000000+88750000000+89062500000
2832+89062500000+89062500000+89062500000+89375000000+89375000000+89375000000
2800+89375000000+89375000000+89375000000+89687500000+90000000000+90000000000
2768+90000000000+90000000000+90000000000+90000000000+90312500000+90312500000
2737+90312500000+90312500000+90312500000+90312500000+90312500000+90625000000
2705+90625000000+90625000000+90625000000+90625000000+90625000000+90937500000
2674+90625000000+90625000000+90625000000+90625000000+90625000000+90625000000
2642+90625000000+90625000000+90937500000+90937500000+90937500000+91250000000
2611+91250000000+91250000000+91250000000+91250000000+91250000000+91250000000
2579+90937500000+90937500000+90937500000+90937500000+90625000000+90625000000
2547+90625000000+90312500000+90312500000+90312500000+90000000000+90000000000
2516+90000000000+90000000000+90000000000+90312500000+90312500000+90312500000
2484+90625000000+90625000000+90625000000+90937500000+90937500000+90937500000
2453+90937500000+91250000000+91250000000+91250000000+91250000000+90937500000
2421+90937500000+90937500000+90937500000+90937500000+90937500000+90937500000
2389+90937500000+90937500000+90937500000+90937500000+90937500000+90937500000
2358+90937500000+90625000000+90625000000+90625000000+90312500000+90312500000
2326+90312500000+90000000000+90000000000+90000000000+90000000000+90000000000
2295+90312500000+90312500000+90625000000+90625000000+90937500000+90937500000
2263+90937500000+90937500000+90937500000+90937500000+90937500000+90937500000
2232+90937500000+90937500000+90937500000+90937500000+90625000000+90625000000
2200+90625000000+90625000000+90625000000+90625000000+90625000000+90937500000
2168+90937500000+90937500000+90937500000+90937500000+91250000000+91250000000
2137+91250000000+91250000000+91250000000+91250000000+90937500000+90625000000
2105+90000000000+89062500000+88125000000+88125000000+88125000000+88437500000
2074+88750000000+88750000000+89062500000+89375000000+89375000000+89687500000
2042+90000000000+90312500000+90625000000+90625000000+90625000000+90625000000
2011+90312500000+90312500000+90312500000+90312500000+90312500000+90312500000
1979+90312500000+90312500000+90312500000+90312500000+90312500000+90312500000
1947+90000000000+89687500000+89062500000+88437500000+86562500000+78437500000
1916+78750000000+83125000000+84375000000+83437500000+81250000000+74375000000
1884+69687500000+59687500000+48750000000+48437500000+48750000000+50312500000
1853+52187500000+59687500000+64062500000+68750000000+73437500000+77500000000
1821+82187500000+83437500000+85312500000+87500000000+82500000000+84062500000
1789+85625000000+86562500000+86875000000+86250000000+84062500000+77812500000
1758+73125000000+65000000000+63437500000+66250000000+76562500000+76250000000
1726+79062500000+82500000000+83750000000+84687500000+85312500000+78437500000
1695+74375000000+76875000000+84687500000+87187500000+87500000000+87500000000
1663+87812500000+87812500000+87500000000+85625000000+81250000000+82187500000
1632+85000000000+85937500000+86875000000+88125000000+84375000000+85312500000
1600+89062500000+89375000000+89687500000+89687500000+89687500000+90000000000
1568+89375000000+85937500000+78437500000+79062500000+85937500000+85312500000
1537+85312500000+88750000000+89062500000+90000000000+90625000000+90937500000
1505+90937500000+91562500000+91562500000+91875000000+91875000000+91250000000
1474+90625000000+90000000000+90312500000+90312500000+90625000000+89687500000
1442+87187500000+88437500000+89375000000+90000000000+90312500000+90625000000
1411+89375000000+86875000000+90000000000+91250000000+91562500000+91875000000
1379+91562500000+91562500000+91562500000+91562500000+91562500000+91562500000
1347+91562500000+91562500000+91562500000+91562500000+91875000000+91875000000
1316+91875000000+92187500000+92187500000+91875000000+91875000000+91562500000
1284+91250000000+91250000000+91562500000+91875000000+91875000000+92187500000
1253+92187500000+91875000000+91875000000+91250000000+91875000000+91875000000
1221+91875000000+91875000000+91875000000+91875000000+91875000000+91562500000
1189+91562500000+91250000000+90937500000+90000000000+85312500000+76250000000
1158+75937500000+87500000000+87187500000+89375000000+91562500000+91875000000
1126+92187500000+92187500000+92187500000+91562500000+91250000000+90937500000
1095+88437500000+61250000000+57187500000+70937500000+74375000000+20625000000
1063+21875000000+75625000000+85937500000+88125000000+88750000000+89687500000
1032+90937500000+90625000000+90625000000+90625000000+91250000000+91562500000
1000+91562500000+91875000000+91875000000+91250000000+90000000000+74687500000
968+44999999999+41562500000+72500000000+88437500000+90937500000+91875000000
937+92812500000+90625000000+79062500000+80937500000+90937500000+91250000000
905+90312500000+84687500000+83750000000+76250000000+47812500000+35625000000
874+34687500000+39687500000+55000000000+77500000000+84062500000+83750000000
842+82812500000+82812500000+85312500000+88437500000+90937500000+92500000000
811+93125000000+93750000000+91875000000+68437500000+71875000000+91875000000
779+93750000000+93750000000+93437500000+93125000000+93125000000+93125000000
747+93125000000+89687500000+86250000000+93437500000+93750000000+93437500000
716+93437500000+93125000000+93125000000+92187500000+91250000000+93437500000
684+93437500000+93437500000+93437500000+93125000000+92812500000+92187500000
653+91562500000+90625000000+90000000000+90000000000+90000000000+90312500000
621+91562500000+92187500000+93437500000+94375000000+93437500000+80625000000
589+92187500000+94062500000+94062500000+94687500000+93750000000+93437500000
558+93125000000+92812500000+92500000000+92812500000+92812500000+93437500000
526+92500000000+90937500000+88437500000+85625000000+84375000000+83750000000
495+83750000000+84062500000+84687500000+85312500000+85937500000+86250000000
463+86562500000+86562500000+85937500000+85000000000+83437500000+81250000000
432+78437500000+75937500000+73750000000+71562500000+69687500000+68437500000
400+67500000000
##END=
