##TITLE=benzyl disulfide
##JCAMP-DX=4.24
##DATA TYPE=INFRARED SPECTRUM
##DATE=10/06/2025
##SAMPLING PROCEDURE=ATR
##ORIGIN=SDBS
##XUNITS=1/CM
##YUNITS=TRANSMITTANCE
##RESOLUTION=5.2631578947368425
##FIRSTX=4000.0
##LASTX=400.0
##DELTAX=-5.2631578947368425
##MAXY=94.6875
##MINY=0.0
##XFACTOR=1
##YFACTOR=1
##NPOINTS=685
##FIRSTY=0.0
##XYDATA=(X++(Y..Y))
4000+0+66250000000+66250000000+66250000000+66562500000+66562500000
3968+66250000000+66250000000+66250000000+66250000000+66250000000+65937500000
3937+65000000000+64375000000+63750000000+63437500000+63437500000+63750000000
3905+63750000000+63750000000+63750000000+64062500000+64062500000+63750000000
3874+63750000000+63437500000+62812500000+62812500000+62812500000+62812500000
3842+62500000000+62187500000+62187500000+62187500000+62500000000+62812500000
3811+63125000000+62500000000+62187500000+61875000000+61875000000+61875000000
3779+61875000000+61562500000+60937500000+60625000000+60625000000+60625000000
3747+60312500000+60312500000+60625000000+60625000000+60937500000+60625000000
3716+60625000000+60937500000+61250000000+61562500000+61562500000+61250000000
3684+61250000000+61250000000+60937500000+60312500000+60312500000+60000000000
3653+60000000000+60000000000+60000000000+60312500000+60625000000+60625000000
3621+60625000000+60312500000+60312500000+60312500000+60000000000+60000000000
3589+60000000000+60000000000+60000000000+60000000000+60000000000+59687500000
3558+60000000000+60000000000+60000000000+59687500000+59687500000+59375000000
3526+59375000000+59375000000+59062500000+59062500000+58750000000+58750000000
3495+59062500000+59062500000+58750000000+58750000000+59062500000+59062500000
3463+58750000000+58437500000+57812500000+57812500000+57812500000+57812500000
3432+58125000000+57812500000+57812500000+57812500000+57812500000+56562500000
3400+57812500000+58125000000+58125000000+57812500000+56250000000+55937500000
3368+55625000000+55625000000+49062500000+42812500000+43750000000+38125000000
3337+42187500000+42812500000+36250000000+36250000000+41562500000+39062500000
3305+37500000000+33750000000+27187500000+19062500000+9062500000+8125000000
3274+8437500000+9375000000+6875000000+5000000000+4687500000+5937500000
3242+10625000000+15937500000+21875000000+27812500000+27500000000+23750000000
3211+19687500000+16562500000+18125000000+38125000000+62812500000+72500000000
3179+75937500000+77187500000+77500000000+77812500000+78125000000+78125000000
3147+77812500000+77500000000+77187500000+76875000000+76250000000+75937500000
3116+75625000000+75625000000+75625000000+75312500000+75000000000+74687500000
3084+74687500000+74375000000+74375000000+74687500000+74687500000+74687500000
3053+74687500000+75000000000+75000000000+74687500000+74687500000+75000000000
3021+75000000000+75312500000+75625000000+75625000000+75937500000+75937500000
2989+76250000000+76562500000+76562500000+76562500000+76562500000+76875000000
2958+76875000000+76875000000+76875000000+77187500000+77187500000+77500000000
2926+77500000000+77500000000+77500000000+77500000000+77500000000+77500000000
2895+77500000000+77500000000+77812500000+77812500000+78125000000+78125000000
2863+78437500000+78437500000+78437500000+78437500000+78750000000+78750000000
2832+79062500000+79062500000+79062500000+79062500000+79062500000+78750000000
2800+78437500000+78125000000+78125000000+78437500000+79062500000+79687500000
2768+79375000000+79062500000+79062500000+80000000000+80937500000+80937500000
2737+80625000000+80312500000+80000000000+80000000000+80000000000+80625000000
2705+81250000000+81875000000+81875000000+81875000000+81875000000+82187500000
2674+82187500000+82187500000+82187500000+82187500000+82187500000+82500000000
2642+82500000000+82812500000+83125000000+83125000000+83125000000+83437500000
2611+83437500000+83437500000+83437500000+83437500000+83437500000+83125000000
2579+82812500000+82187500000+81875000000+81562500000+81250000000+80312500000
2547+78125000000+78125000000+78437500000+80312500000+82812500000+83750000000
2516+84375000000+84375000000+84687500000+84687500000+84687500000+84375000000
2484+84375000000+84062500000+83125000000+81875000000+80312500000+79375000000
2453+78750000000+78750000000+79062500000+81562500000+83125000000+84062500000
2421+84375000000+84687500000+85000000000+85312500000+85312500000+85000000000
2389+84687500000+84375000000+84062500000+84062500000+83750000000+83437500000
2358+83125000000+82812500000+82812500000+83125000000+83437500000+83750000000
2326+84375000000+84687500000+85312500000+85625000000+85937500000+84687500000
2295+83125000000+82187500000+81562500000+81250000000+81250000000+82187500000
2263+84687500000+85625000000+86250000000+86562500000+86562500000+86875000000
2232+86875000000+86875000000+87187500000+87187500000+87500000000+87500000000
2200+87500000000+87812500000+87500000000+86562500000+85937500000+85312500000
2168+85312500000+85312500000+85625000000+85937500000+86250000000+86875000000
2137+87187500000+87812500000+87812500000+88125000000+88125000000+87812500000
2105+87812500000+87812500000+87500000000+87500000000+87500000000+87500000000
2074+88437500000+89687500000+84062500000+63750000000+69062500000+80937500000
2042+84687500000+84375000000+82500000000+87187500000+87500000000+87500000000
2011+87500000000+86875000000+86875000000+86562500000+86250000000+86250000000
1979+86562500000+86875000000+86875000000+87187500000+87500000000+87812500000
1947+88125000000+88750000000+89687500000+90312500000+91250000000+90312500000
1916+52500000000+32187500000+40937500000+56562500000+64062500000+64687500000
1884+60937500000+52187500000+44375000000+44375000000+40625000000+20625000000
1853+17187500000+24687500000+53437500000+65625000000+71250000000+76250000000
1821+80625000000+82812500000+83437500000+81250000000+73437500000+52500000000
1789+52187500000+76562500000+82812500000+82500000000+79687500000+74062500000
1758+69687500000+64062500000+63125000000+67187500000+76875000000+77812500000
1726+80312500000+84062500000+85000000000+85937500000+86562500000+86562500000
1695+81875000000+82187500000+86562500000+87187500000+87187500000+87500000000
1663+87812500000+88125000000+88125000000+88750000000+88750000000+86875000000
1632+85625000000+85937500000+87187500000+88437500000+89062500000+89687500000
1600+90000000000+90312500000+90625000000+91250000000+91562500000+91875000000
1568+92187500000+91875000000+90625000000+87812500000+77187500000+66875000000
1537+62812500000+63437500000+76250000000+84062500000+86875000000+85312500000
1505+61875000000+48437500000+70000000000+83750000000+85625000000+70937500000
1474+73437500000+85312500000+86875000000+87187500000+87500000000+88750000000
1442+89375000000+89375000000+89375000000+89062500000+86562500000+85625000000
1411+88750000000+90625000000+91875000000+91562500000+91562500000+91250000000
1379+91250000000+91250000000+91562500000+92187500000+92500000000+92812500000
1347+92500000000+91562500000+89687500000+77812500000+65625000000+66250000000
1316+71250000000+80312500000+86562500000+90312500000+91875000000+92500000000
1284+93125000000+91875000000+86250000000+60000000000+60625000000+80937500000
1253+88437500000+90000000000+90937500000+91562500000+83750000000+83437500000
1221+91562500000+91875000000+91875000000+91875000000+91562500000+90937500000
1189+83437500000+82812500000+91875000000+92500000000+92500000000+92500000000
1158+92500000000+92500000000+92500000000+92500000000+92500000000+92500000000
1126+92500000000+92500000000+92187500000+88437500000+83750000000+86562500000
1095+91562500000+92812500000+92812500000+92812500000+92500000000+92187500000
1063+92187500000+92187500000+91875000000+87812500000+69375000000+64062500000
1032+79687500000+84687500000+91250000000+91562500000+92187500000+92812500000
1000+93437500000+94062500000+94062500000+94687500000+93125000000+92187500000
968+91875000000+91875000000+87812500000+82187500000+84687500000+89375000000
937+90000000000+90937500000+90000000000+86875000000+80625000000+63750000000
905+26562500000+25000000000+36250000000+25937500000+39062500000+74062500000
874+81875000000+86250000000+87500000000+87500000000+86562500000+85000000000
842+83750000000+82812500000+80312500000+76562500000+67812500000+38125000000
811+15312500000+12500000000+12500000000+35000000000+65625000000+77500000000
779+83437500000+84375000000+77187500000+60312500000+35000000000+35312500000
747+55312500000+74062500000+80000000000+84062500000+87187500000+90625000000
716+90625000000+90625000000+90625000000+89062500000+79375000000+90000000000
684+91250000000+92187500000+92187500000+92187500000+92187500000+91875000000
653+91250000000+90625000000+89687500000+81562500000+53125000000+63437500000
621+59062500000+76250000000+87187500000+90312500000+92187500000+92812500000
589+93125000000+93125000000+93125000000+93437500000+93437500000+94062500000
558+94062500000+93437500000+90000000000+77500000000+82187500000+90000000000
526+90937500000+91562500000+92187500000+90312500000+84062500000+81562500000
495+80312500000+80000000000+80625000000+80625000000+80937500000+81250000000
463+80937500000+80625000000+80625000000+80937500000+81562500000+82500000000
432+83437500000+82187500000+80625000000+77812500000+75312500000+73750000000
400+73125000000
##END=
