##TITLE=benzyl acetate
##JCAMP-DX=4.24
##DATA TYPE=INFRARED SPECTRUM
##DATE=10/06/2025
##SAMPLING PROCEDURE=ATR
##ORIGIN=SDBS
##XUNITS=1/CM
##YUNITS=TRANSMITTANCE
##RESOLUTION=5.2631578947368425
##FIRSTX=4000.0
##LASTX=400.0
##DELTAX=-5.2631578947368425
##MAXY=95.0
##MINY=0.0
##XFACTOR=1
##YFACTOR=1
##NPOINTS=685
##FIRSTY=0.0
##XYDATA=(X++(Y..Y))
4000+0+93750000000+93750000000+93750000000+93750000000+93750000000
3968+93750000000+94062500000+94062500000+94062500000+94062500000+94062500000
3937+94062500000+94062500000+94062500000+94062500000+94062500000+94062500000
3905+94375000000+94375000000+94375000000+94375000000+94687500000+94687500000
3874+94687500000+94687500000+94687500000+94687500000+94687500000+94687500000
3842+94687500000+95000000000+94687500000+94687500000+94687500000+94687500000
3811+94687500000+94687500000+94687500000+94687500000+94375000000+94375000000
3779+93750000000+93437500000+93125000000+92812500000+92812500000+92812500000
3747+92812500000+93125000000+93125000000+93437500000+93437500000+93437500000
3716+93750000000+93750000000+93750000000+93437500000+93437500000+93437500000
3684+93125000000+93125000000+93437500000+93437500000+93437500000+93437500000
3653+93125000000+92500000000+91875000000+91250000000+90625000000+90000000000
3621+90000000000+90312500000+91250000000+92500000000+93125000000+93750000000
3589+94062500000+94062500000+94062500000+94062500000+94062500000+94062500000
3558+94062500000+94062500000+94062500000+94062500000+94062500000+94062500000
3526+94062500000+94062500000+93750000000+93750000000+93750000000+93750000000
3495+93750000000+93750000000+93750000000+93750000000+93437500000+93437500000
3463+93437500000+93437500000+93125000000+93125000000+93125000000+92812500000
3432+92812500000+92500000000+92500000000+92187500000+92187500000+91875000000
3400+91562500000+90937500000+89062500000+87187500000+87187500000+82187500000
3368+78125000000+79687500000+75000000000+68750000000+69375000000+75937500000
3337+68750000000+58750000000+58437500000+68437500000+76875000000+78437500000
3305+80625000000+80625000000+80000000000+78750000000+75000000000+71250000000
3274+70625000000+71562500000+73437500000+77187500000+83125000000+85937500000
3242+86562500000+83437500000+82500000000+83125000000+85312500000+88125000000
3211+90312500000+91562500000+91875000000+92187500000+92187500000+92187500000
3179+92500000000+92812500000+93125000000+93437500000+93750000000+94062500000
3147+94062500000+94062500000+94062500000+94062500000+94062500000+93750000000
3116+93750000000+93750000000+93750000000+93750000000+93750000000+94062500000
3084+94062500000+94375000000+94375000000+94375000000+94375000000+94375000000
3053+94375000000+94375000000+94062500000+94062500000+94062500000+94062500000
3021+94062500000+94062500000+94375000000+94375000000+94687500000+94687500000
2989+94687500000+95000000000+94687500000+94687500000+94687500000+94375000000
2958+94062500000+93750000000+93437500000+93437500000+93125000000+93125000000
2926+93437500000+93437500000+93750000000+93750000000+94062500000+94062500000
2895+94062500000+94375000000+94375000000+94687500000+94687500000+94687500000
2863+94687500000+94687500000+94687500000+94687500000+94687500000+94687500000
2832+94687500000+94687500000+94687500000+94375000000+94375000000+94375000000
2800+94375000000+94375000000+94375000000+94375000000+94375000000+94375000000
2768+94062500000+94062500000+94062500000+93750000000+93750000000+93750000000
2737+93750000000+93750000000+93437500000+93437500000+93437500000+93437500000
2705+93750000000+93750000000+94062500000+94062500000+94062500000+94062500000
2674+94062500000+93750000000+93125000000+92500000000+92500000000+92500000000
2642+92812500000+93125000000+93125000000+93437500000+93437500000+93125000000
2611+92812500000+92500000000+91875000000+91562500000+91250000000+90625000000
2579+90000000000+89375000000+89062500000+88437500000+87812500000+87812500000
2547+87812500000+88437500000+89375000000+90312500000+90937500000+91562500000
2516+91562500000+91875000000+91875000000+91875000000+91562500000+91562500000
2484+91250000000+90937500000+90625000000+90000000000+89687500000+89375000000
2453+89062500000+88750000000+88437500000+88437500000+88437500000+88437500000
2421+88750000000+88750000000+89062500000+89062500000+89062500000+88750000000
2389+88125000000+87187500000+86250000000+85937500000+85000000000+84062500000
2358+82812500000+82187500000+82187500000+81875000000+81562500000+80625000000
2326+79375000000+77500000000+75937500000+73437500000+70625000000+66562500000
2295+61875000000+53125000000+40312499999+25625000000+14687500000+7812500000
2263+5312500000+4687500000+4687500000+5000000000+6250000000+8750000000
2232+13437500000+20937500000+31250000000+42187500000+51562500000+57187500000
2200+61562500000+65937500000+69375000000+71250000000+74062500000+77500000000
2168+79687500000+80625000000+81250000000+81250000000+81250000000+81562500000
2137+81562500000+81875000000+82812500000+83437500000+84687500000+85937500000
2105+86562500000+86875000000+87187500000+87500000000+87187500000+86250000000
2074+83437500000+82187500000+82812500000+85000000000+86250000000+86250000000
2042+81875000000+81250000000+85312500000+88125000000+89062500000+89687500000
2011+90000000000+89687500000+89375000000+89062500000+88437500000+88125000000
1979+88125000000+88125000000+88125000000+88125000000+88125000000+87500000000
1947+87187500000+86250000000+85312500000+81875000000+74687500000+55312500000
1916+50625000000+54062500000+69062500000+75625000000+79062500000+79687500000
1884+77187500000+72500000000+64062500000+58437500000+45625000000+32812500000
1853+34375000000+51875000000+56250000000+58125000000+59062500000+60312500000
1821+61875000000+64062500000+67187500000+70312500000+73125000000+75000000000
1789+75312500000+73750000000+70625000000+65625000000+55937500000+39375000000
1758+25000000000+23750000000+26250000000+40000000000+40312499999+25000000000
1726+24062500000+31562500000+55625000000+70000000000+76250000000+80000000000
1695+80625000000+79375000000+78750000000+78750000000+78750000000+78125000000
1663+76875000000+75000000000+73750000000+72500000000+71562500000+69375000000
1632+65312500000+60625000000+54375000000+49062500000+44687500000+40312499999
1600+32187500000+22500000000+15000000000+12187500000+10312500000+8437500000
1568+7187500000+6875000000+6562500000+5937500000+5312500000+5312500000
1537+5625000000+6875000000+11250000000+19062500000+26250000000+36562500000
1505+46250000000+54375000000+60000000000+65625000000+69375000000+71250000000
1474+70937500000+71875000000+75937500000+79687500000+81250000000+80937500000
1442+80937500000+82187500000+84375000000+85937500000+87187500000+87500000000
1411+88125000000+88437500000+88437500000+88125000000+87812500000+86562500000
1379+85000000000+84687500000+84375000000+83750000000+82812500000+80625000000
1347+75000000000+67812500000+67500000000+69687500000+73125000000+71250000000
1316+68437500000+63125000000+55000000000+44999999999+37500000000+31875000000
1284+29062500000+26562500000+24375000000+18437500000+17187500000+18750000000
1253+25625000000+35312500000+45625000000+53437500000+52500000000+52187500000
1221+57500000000+61250000000+65000000000+65625000000+62500000000+58750000000
1189+55312500000+52500000000+52187500000+52187500000+55000000000+61250000000
1158+69687500000+76250000000+79062500000+77500000000+75625000000+73437500000
1126+71875000000+69687500000+69687500000+70312500000+73125000000+72812500000
1095+70625000000+70312500000+72812500000+78125000000+82500000000+85000000000
1063+86875000000+87812500000+88750000000+89375000000+89375000000+88750000000
1032+87812500000+85937500000+83750000000+80937500000+77187500000+72500000000
1000+70625000000+70937500000+75625000000+78437500000+78437500000+80000000000
968+84687500000+86562500000+87187500000+88125000000+89687500000+90937500000
937+91562500000+91875000000+91250000000+90312500000+89062500000+86875000000
905+81562500000+72500000000+56250000000+37187499999+29062500000+28750000000
874+29687500000+33125000000+34062500000+34687500000+39687500000+53750000000
842+67812500000+75937500000+78125000000+72812500000+55312500000+31562500000
811+18437500000+18125000000+28437500000+61875000000+77187500000+81875000000
779+81562500000+83125000000+86875000000+88437500000+88437500000+88125000000
747+87187500000+85625000000+82500000000+81562500000+82187500000+86562500000
716+89062500000+88437500000+84375000000+75625000000+65625000000+64062500000
684+65312500000+68750000000+74687500000+84062500000+87812500000+88437500000
653+84375000000+74062500000+64062500000+64687500000+79062500000+88437500000
621+91562500000+93125000000+94062500000+94375000000+94687500000+94687500000
589+94687500000+94687500000+94375000000+93750000000+93125000000+91875000000
558+89062500000+82187500000+70312500000+66562500000+65000000000+65000000000
526+66875000000+70000000000+72500000000+75625000000+79687500000+81875000000
495+84062500000+85625000000+86562500000+87187500000+87500000000+87812500000
463+87812500000+87812500000+87500000000+87500000000+87187500000+87187500000
432+86875000000+86562500000+86250000000+85937500000+85312500000+85000000000
400+85000000000
##END=
