##TITLE=biphenyl
##JCAMP-DX=4.24
##DATA TYPE=INFRARED SPECTRUM
##DATE=10/06/2025
##SAMPLING PROCEDURE=ATR
##ORIGIN=SDBS
##XUNITS=1/CM
##YUNITS=TRANSMITTANCE
##RESOLUTION=5.2631578947368425
##FIRSTX=4000.0
##LASTX=400.0
##DELTAX=-5.2631578947368425
##MAXY=95.0
##MINY=0.0
##XFACTOR=1
##YFACTOR=1
##NPOINTS=685
##FIRSTY=0.0
##XYDATA=(X++(Y..Y))
4000+0+80625000000+80625000000+80625000000+80625000000+80625000000
3968+80625000000+80625000000+80625000000+80937500000+80937500000+80937500000
3937+80625000000+80625000000+80625000000+80625000000+80625000000+80625000000
3905+80625000000+80625000000+80937500000+80625000000+80625000000+80625000000
3874+80312500000+80312500000+80312500000+80312500000+80625000000+80625000000
3842+80625000000+80312500000+80000000000+80000000000+80000000000+80312500000
3811+80312500000+80312500000+80000000000+80000000000+80000000000+80000000000
3779+80000000000+80000000000+80000000000+79687500000+79687500000+79687500000
3747+80000000000+80000000000+80312500000+80312500000+80312500000+80625000000
3716+80625000000+80625000000+80312500000+80312500000+80625000000+80625000000
3684+80937500000+80937500000+80937500000+80937500000+80937500000+80937500000
3653+80937500000+80937500000+80937500000+80937500000+80937500000+80937500000
3621+80937500000+80937500000+80937500000+80937500000+80937500000+80937500000
3589+80937500000+80937500000+80937500000+80937500000+80937500000+80937500000
3558+80937500000+80937500000+80937500000+80937500000+80937500000+80937500000
3526+80937500000+80625000000+80625000000+80625000000+80625000000+80625000000
3495+80625000000+80625000000+80625000000+80312500000+80312500000+80312500000
3463+80625000000+80625000000+80312500000+80312500000+80625000000+80312500000
3432+80312500000+80312500000+80000000000+80000000000+80000000000+80000000000
3400+80000000000+80000000000+79687500000+79062500000+78750000000+77500000000
3368+70000000000+70000000000+71875000000+70937500000+64375000000+63750000000
3337+63750000000+62187500000+60937500000+65625000000+66875000000+67500000000
3305+65000000000+64687500000+59062500000+52812500000+43125000000+36875000000
3274+36250000000+37812500000+31250000000+25000000000+24062500000+25625000000
3242+35937500000+42812500000+48124999999+53437500000+55000000000+50937500000
3211+47187500000+41562500000+42812500000+57812500000+73437500000+81562500000
3179+83750000000+85312500000+85937500000+86562500000+87187500000+87187500000
3147+87187500000+87187500000+87187500000+87187500000+86875000000+86562500000
3116+86562500000+86562500000+86562500000+86562500000+86562500000+86562500000
3084+86250000000+86250000000+86250000000+86250000000+86250000000+86562500000
3053+86562500000+86562500000+86562500000+86562500000+86562500000+86562500000
3021+86875000000+86875000000+86875000000+86875000000+87187500000+87187500000
2989+87187500000+87500000000+87500000000+87500000000+87500000000+87500000000
2958+87812500000+87812500000+87812500000+87812500000+87812500000+87812500000
2926+87812500000+88125000000+88125000000+88125000000+88125000000+88125000000
2895+88125000000+88125000000+88125000000+87812500000+87812500000+87500000000
2863+87500000000+87500000000+87812500000+87812500000+87812500000+87812500000
2832+87812500000+88125000000+88125000000+88125000000+88437500000+88750000000
2800+88750000000+88750000000+88750000000+89062500000+89062500000+89062500000
2768+89062500000+89062500000+89062500000+89062500000+89375000000+89375000000
2737+89687500000+89375000000+89375000000+89375000000+89687500000+89687500000
2705+89687500000+89687500000+90000000000+90000000000+90000000000+90312500000
2674+90312500000+90312500000+90312500000+90312500000+90312500000+90312500000
2642+90312500000+90625000000+90625000000+90625000000+90312500000+90312500000
2611+90312500000+90312500000+90312500000+90625000000+90625000000+90625000000
2579+90625000000+90312500000+89687500000+88750000000+87500000000+86562500000
2547+85312500000+85000000000+83437500000+83125000000+85312500000+88750000000
2516+89687500000+90312500000+90312500000+90625000000+90625000000+90625000000
2484+90625000000+90312500000+90312500000+90000000000+89375000000+89062500000
2453+87500000000+85625000000+83750000000+83750000000+87187500000+89375000000
2421+90312500000+90625000000+90937500000+91250000000+91250000000+91562500000
2389+91250000000+91250000000+90937500000+90937500000+90625000000+90625000000
2358+90312500000+90312500000+90312500000+90312500000+90312500000+90312500000
2326+90312500000+90625000000+90625000000+90625000000+90937500000+90937500000
2295+90937500000+90625000000+90312500000+89687500000+88750000000+87187500000
2263+86250000000+86250000000+88125000000+89687500000+90937500000+91250000000
2232+91562500000+91562500000+91562500000+91562500000+91562500000+91562500000
2200+91250000000+90937500000+90937500000+90937500000+90937500000+90937500000
2168+91250000000+91250000000+91250000000+91250000000+91250000000+91250000000
2137+91250000000+91250000000+91250000000+91250000000+91562500000+91562500000
2105+91562500000+91250000000+91250000000+90937500000+90625000000+90625000000
2074+91562500000+92187500000+92500000000+85312500000+81875000000+87812500000
2042+89687500000+90000000000+89375000000+88125000000+80312500000+69062500000
2011+69062500000+83750000000+90312500000+91250000000+91875000000+91875000000
1979+91875000000+91875000000+92187500000+92187500000+91875000000+91250000000
1947+90625000000+90312500000+90312500000+90312500000+91250000000+92500000000
1916+93437500000+94062500000+93125000000+84375000000+52812500000+49062500000
1884+59687500000+66562500000+63125000000+63125000000+64375000000+65937500000
1853+67812500000+72500000000+74687500000+75000000000+70000000000+48750000000
1821+35312500000+41874999999+67187500000+76875000000+82500000000+85937500000
1789+86875000000+88125000000+87500000000+86875000000+84687500000+80937500000
1758+78125000000+74375000000+73437500000+75000000000+81250000000+83125000000
1726+85000000000+87187500000+86875000000+84062500000+66875000000+66875000000
1695+82500000000+87500000000+89375000000+90000000000+90312500000+90000000000
1663+89062500000+87187500000+86250000000+86875000000+88125000000+89062500000
1632+89687500000+90000000000+90312500000+90312500000+90000000000+89687500000
1600+89062500000+89062500000+90937500000+91562500000+91875000000+91562500000
1568+91562500000+91562500000+91875000000+91875000000+91875000000+91875000000
1537+91875000000+91875000000+92187500000+92187500000+92187500000+92187500000
1505+92187500000+92500000000+92500000000+92500000000+92500000000+82812500000
1474+85937500000+88437500000+63750000000+64687500000+88125000000+90000000000
1442+87500000000+87500000000+91562500000+91875000000+91875000000+92187500000
1411+92187500000+91875000000+91875000000+91562500000+90000000000+84375000000
1379+84375000000+87812500000+89375000000+87500000000+80937500000+77500000000
1347+79375000000+84062500000+83125000000+82500000000+82500000000+85937500000
1316+89375000000+90625000000+91562500000+92500000000+93125000000+91250000000
1284+81562500000+87500000000+90312500000+90937500000+91562500000+92187500000
1253+92500000000+91562500000+86875000000+78750000000+79687500000+85937500000
1221+89062500000+90312500000+90625000000+90937500000+91250000000+91250000000
1189+91562500000+91562500000+91562500000+91875000000+91875000000+91875000000
1158+91875000000+91875000000+91875000000+92187500000+92187500000+92187500000
1126+92187500000+91875000000+91562500000+90937500000+90312500000+85625000000
1095+64375000000+65000000000+80625000000+88125000000+90000000000+90937500000
1063+91562500000+91562500000+91875000000+91875000000+92187500000+92187500000
1032+92187500000+92187500000+92500000000+92500000000+92500000000+92500000000
1000+92500000000+92500000000+92187500000+92187500000+91875000000+91875000000
968+91875000000+91875000000+91562500000+91562500000+91562500000+91250000000
937+90937500000+89375000000+87500000000+87187500000+87187500000+86875000000
905+86562500000+86250000000+85937500000+84062500000+79375000000+75937500000
874+69062500000+54375000000+26875000000+13125000000+5312500000+4687500000
842+30625000000+64687500000+78125000000+77812500000+63750000000+38125000000
811+15625000000+14062500000+18125000000+48750000000+65000000000+75312500000
779+80312500000+82812500000+85625000000+87812500000+90625000000+91250000000
747+91875000000+91875000000+92187500000+92500000000+92812500000+93125000000
716+93437500000+93750000000+94062500000+94062500000+94062500000+79687500000
684+68437500000+90625000000+93437500000+93750000000+94062500000+94375000000
653+94062500000+94062500000+94062500000+93750000000+93750000000+93750000000
621+93750000000+93750000000+93750000000+94062500000+94062500000+94375000000
589+94375000000+94687500000+94687500000+94687500000+95000000000+94687500000
558+94687500000+94687500000+94375000000+94062500000+93750000000+93437500000
526+93125000000+92500000000+91875000000+90937500000+90000000000+88750000000
495+87812500000+87500000000+87187500000+87187500000+87187500000+87812500000
463+88750000000+89687500000+90625000000+91875000000+92812500000+93437500000
432+92500000000+90625000000+88125000000+85000000000+82187500000+80000000000
400+79375000000
##END=
