##TITLE=biphenyl-2-ol
##JCAMP-DX=4.24
##DATA TYPE=INFRARED SPECTRUM
##DATE=10/06/2025
##SAMPLING PROCEDURE=ATR
##ORIGIN=SDBS
##XUNITS=1/CM
##YUNITS=TRANSMITTANCE
##RESOLUTION=5.2631578947368425
##FIRSTX=4000.0
##LASTX=400.0
##DELTAX=-5.2631578947368425
##MAXY=94.6875
##MINY=0.0
##XFACTOR=1
##YFACTOR=1
##NPOINTS=685
##FIRSTY=0.0
##XYDATA=(X++(Y..Y))
4000+0+80625000000+80625000000+80312500000+80312500000+80312500000
3968+80625000000+80937500000+80937500000+80625000000+80312500000+79687500000
3937+79687500000+79375000000+79375000000+79375000000+79375000000+79062500000
3905+79062500000+79375000000+79375000000+79062500000+79062500000+79062500000
3874+79062500000+79375000000+79375000000+79687500000+79375000000+79062500000
3842+79062500000+79062500000+79062500000+79062500000+79375000000+79375000000
3811+79375000000+79375000000+79375000000+79375000000+79375000000+79375000000
3779+79687500000+79687500000+80000000000+80000000000+80000000000+80000000000
3747+80312500000+80312500000+80625000000+80625000000+80937500000+81562500000
3716+81875000000+80000000000+69062500000+55000000000+54687500000+60000000000
3684+65312500000+62187500000+59687500000+59687500000+60625000000+63750000000
3653+66562500000+68437500000+69375000000+70625000000+71562500000+72187500000
3621+72812500000+73437500000+73750000000+73750000000+74062500000+74375000000
3589+74375000000+74687500000+74687500000+74687500000+75000000000+75000000000
3558+75000000000+75312500000+75312500000+75312500000+75625000000+75625000000
3526+75937500000+75937500000+75625000000+75625000000+75625000000+75625000000
3495+75625000000+75625000000+75625000000+75625000000+75625000000+75625000000
3463+75625000000+75625000000+75625000000+75312500000+75312500000+75625000000
3432+75625000000+75625000000+75625000000+75625000000+75625000000+75937500000
3400+75937500000+75937500000+76250000000+76250000000+76250000000+76250000000
3368+75000000000+72500000000+71875000000+71250000000+70937500000+70625000000
3337+69375000000+67187500000+65000000000+64375000000+63437500000+61875000000
3305+57500000000+51562500000+42187500000+31562500000+18750000000+12187500000
3274+11562500000+12187500000+8437500000+4687500000+4687500000+5312500000
3242+9375000000+14375000000+18437500000+23750000000+25312500000+21562500000
3211+18125000000+13750000000+14062500000+27812500000+50625000000+65312500000
3179+73125000000+77187500000+80000000000+81250000000+82812500000+84062500000
3147+85000000000+85625000000+85312500000+85000000000+84687500000+84062500000
3116+83750000000+83750000000+84062500000+84375000000+84375000000+84375000000
3084+84375000000+84375000000+84375000000+84687500000+84687500000+85000000000
3053+85312500000+85312500000+85625000000+85625000000+85625000000+85937500000
3021+86250000000+86562500000+86875000000+87187500000+87500000000+87500000000
2989+87812500000+88125000000+88125000000+88437500000+88437500000+88437500000
2958+88437500000+88437500000+88437500000+88750000000+89062500000+89062500000
2926+89062500000+88750000000+88750000000+88437500000+88437500000+88437500000
2895+88437500000+88437500000+88750000000+89062500000+89062500000+89062500000
2863+89062500000+89062500000+89062500000+89062500000+89062500000+89062500000
2832+89062500000+89062500000+89375000000+89375000000+89375000000+89687500000
2800+89687500000+89687500000+89687500000+90000000000+90000000000+90000000000
2768+90000000000+90312500000+90312500000+90312500000+90625000000+90625000000
2737+90625000000+90625000000+90625000000+90625000000+90625000000+90625000000
2705+90937500000+90937500000+91250000000+91250000000+90937500000+90937500000
2674+90937500000+90937500000+90937500000+90937500000+90937500000+91250000000
2642+91250000000+91250000000+91250000000+91562500000+91562500000+91562500000
2611+91562500000+91562500000+91562500000+91562500000+91562500000+91250000000
2579+91250000000+90937500000+90937500000+90937500000+90625000000+90625000000
2547+90625000000+90625000000+90625000000+90625000000+90937500000+91250000000
2516+91562500000+91562500000+91562500000+90937500000+90937500000+90312500000
2484+90312500000+90312500000+90312500000+90312500000+90312500000+90312500000
2453+90625000000+90625000000+90937500000+91250000000+91562500000+91875000000
2421+91875000000+92187500000+92187500000+92187500000+92187500000+92187500000
2389+92187500000+92187500000+92187500000+92187500000+91875000000+91875000000
2358+91875000000+91875000000+91875000000+91875000000+91875000000+91875000000
2326+91875000000+91875000000+91875000000+91875000000+91875000000+92187500000
2295+92187500000+92187500000+92500000000+92500000000+92500000000+92500000000
2263+92500000000+91875000000+91562500000+90937500000+90937500000+90937500000
2232+90937500000+91562500000+91875000000+92187500000+92187500000+92187500000
2200+92187500000+92187500000+92187500000+92187500000+92187500000+92500000000
2168+92812500000+92812500000+93125000000+93125000000+93437500000+93437500000
2137+93750000000+94062500000+94062500000+94375000000+94375000000+94375000000
2105+94062500000+93125000000+92500000000+91875000000+89687500000+85937500000
2074+85312500000+82500000000+82812500000+87812500000+84687500000+82187500000
2042+75625000000+73437500000+73750000000+75937500000+80312500000+83437500000
2011+85625000000+86562500000+87812500000+88750000000+89687500000+89687500000
1979+90625000000+91250000000+91562500000+91562500000+91562500000+92187500000
1947+92500000000+92812500000+91875000000+84062500000+74062500000+75625000000
1916+75937500000+81250000000+76250000000+54062500000+52187500000+44687500000
1884+40312499999+41874999999+35625000000+35312500000+35312500000+33125000000
1853+32187500000+40000000000+52187500000+58125000000+45625000000+42812500000
1821+54062500000+67500000000+74062500000+77812500000+80312500000+81875000000
1789+83125000000+84687500000+84375000000+83125000000+80000000000+72500000000
1758+66250000000+57500000000+55625000000+59062500000+70000000000+71875000000
1726+75312500000+80625000000+82500000000+82812500000+82187500000+76875000000
1695+70625000000+68437500000+68750000000+62500000000+61875000000+65937500000
1663+72500000000+77500000000+80937500000+82500000000+82812500000+82187500000
1632+80937500000+77812500000+72187500000+71562500000+73125000000+64062500000
1600+60000000000+60312500000+65312500000+70625000000+74687500000+75625000000
1568+74687500000+75312500000+78437500000+72500000000+70000000000+74687500000
1537+79375000000+76875000000+76875000000+80937500000+84375000000+85000000000
1505+84062500000+82187500000+78437500000+72812500000+67187500000+60625000000
1474+58750000000+58750000000+55625000000+56250000000+62500000000+64062500000
1442+64062500000+63437500000+63125000000+70937500000+77187500000+80312500000
1411+82500000000+84062500000+85625000000+86250000000+87187500000+85625000000
1379+79687500000+68437500000+58437500000+58437500000+67500000000+74375000000
1347+79062500000+81875000000+83750000000+78437500000+73750000000+75312500000
1316+82187500000+84062500000+85937500000+86875000000+85625000000+78125000000
1284+77812500000+81250000000+85312500000+83750000000+83750000000+86562500000
1253+88125000000+87187500000+71250000000+65312500000+81562500000+85937500000
1221+85000000000+85000000000+88750000000+89375000000+89062500000+88750000000
1189+88750000000+88750000000+89375000000+89687500000+90312500000+90625000000
1158+90312500000+89062500000+88125000000+86875000000+86875000000+87500000000
1126+89375000000+89062500000+86875000000+86250000000+86875000000+88750000000
1095+90625000000+91562500000+91562500000+91562500000+91562500000+92187500000
1063+92500000000+92500000000+92812500000+92812500000+92812500000+92812500000
1032+90937500000+90312500000+90625000000+91875000000+93125000000+93437500000
1000+90937500000+78125000000+61250000000+62812500000+84062500000+88437500000
968+90625000000+91875000000+92500000000+93125000000+93750000000+94375000000
937+94687500000+93437500000+90937500000+86250000000+80000000000+68437500000
905+59687500000+56875000000+49062500000+46250000000+43125000000+43750000000
874+63750000000+78437500000+70937500000+51562500000+51250000000+68125000000
842+60312500000+60312500000+75625000000+76875000000+66250000000+52812500000
811+49687499999+51250000000+74375000000+83437500000+86250000000+87812500000
779+89062500000+89375000000+90000000000+90312500000+90625000000+90625000000
747+90625000000+91875000000+92187500000+92812500000+93125000000+93125000000
716+92812500000+92812500000+92187500000+88437500000+81250000000+80312500000
684+90937500000+91875000000+93125000000+93750000000+94062500000+94687500000
653+94687500000+94687500000+93750000000+90937500000+81562500000+71250000000
621+71875000000+85937500000+87500000000+90000000000+91562500000+92187500000
589+92812500000+93125000000+93125000000+91875000000+87500000000+86875000000
558+87187500000+90000000000+90312500000+91875000000+92500000000+91250000000
526+87812500000+83750000000+83750000000+86562500000+86562500000+86875000000
495+87500000000+87812500000+86875000000+85937500000+85000000000+84375000000
463+83750000000+83437500000+82812500000+81875000000+81250000000+79687500000
432+78125000000+76250000000+74687500000+72500000000+70937500000+70000000000
400+69687500000
##END=
