##TITLE=bromobenzene
##JCAMP-DX=4.24
##DATA TYPE=INFRARED SPECTRUM
##DATE=10/06/2025
##SAMPLING PROCEDURE=ATR
##ORIGIN=SDBS
##XUNITS=1/CM
##YUNITS=TRANSMITTANCE
##RESOLUTION=5.2631578947368425
##FIRSTX=4000.0
##LASTX=400.0
##DELTAX=-5.2631578947368425
##MAXY=94.6875
##MINY=0.0
##XFACTOR=1
##YFACTOR=1
##NPOINTS=685
##FIRSTY=0.0
##XYDATA=(X++(Y..Y))
4000+0+93437500000+93437500000+93750000000+93750000000+94062500000
3968+94062500000+94062500000+94062500000+94062500000+94062500000+94062500000
3937+94062500000+94062500000+94062500000+94062500000+94062500000+94062500000
3905+94062500000+94062500000+94062500000+94062500000+94062500000+94062500000
3874+94062500000+94062500000+94062500000+94062500000+94062500000+94062500000
3842+93750000000+93437500000+93437500000+93125000000+93125000000+93437500000
3811+93437500000+93437500000+93437500000+93437500000+93125000000+93437500000
3779+93437500000+93437500000+93437500000+93750000000+93750000000+93750000000
3747+93750000000+93750000000+93750000000+93750000000+93750000000+93750000000
3716+93750000000+93750000000+94062500000+94062500000+94062500000+94062500000
3684+94062500000+94062500000+94062500000+94062500000+94062500000+93750000000
3653+93750000000+93750000000+93750000000+94062500000+94062500000+94062500000
3621+94062500000+93750000000+93750000000+93750000000+93750000000+93750000000
3589+93750000000+93750000000+93750000000+93750000000+93750000000+93750000000
3558+93750000000+93750000000+93750000000+93750000000+93750000000+94062500000
3526+93750000000+93750000000+93750000000+93750000000+93750000000+93750000000
3495+93750000000+93750000000+93750000000+93750000000+93750000000+93750000000
3463+93437500000+93437500000+93437500000+93437500000+93437500000+93437500000
3432+93437500000+93125000000+92812500000+92812500000+92812500000+92812500000
3400+92500000000+92500000000+92187500000+91875000000+91250000000+90312500000
3368+85937500000+78125000000+76562500000+68750000000+68750000000+74375000000
3337+79687500000+85937500000+88125000000+87187500000+88750000000+88437500000
3305+87500000000+90625000000+92187500000+92812500000+93125000000+93125000000
3274+93125000000+93437500000+93437500000+93437500000+93437500000+91875000000
3242+92500000000+94062500000+94062500000+94062500000+94062500000+93750000000
3211+93750000000+93750000000+94062500000+94062500000+94062500000+94375000000
3179+94375000000+94375000000+94375000000+94375000000+94375000000+94062500000
3147+94062500000+94062500000+94375000000+94375000000+94375000000+94375000000
3116+94375000000+94687500000+94687500000+94687500000+94687500000+94687500000
3084+94687500000+94687500000+94687500000+94062500000+93750000000+93437500000
3053+93750000000+94062500000+94062500000+94375000000+94062500000+94062500000
3021+94062500000+94062500000+94062500000+94062500000+94375000000+94062500000
2989+93437500000+93437500000+94375000000+94375000000+94687500000+94375000000
2958+94375000000+94375000000+94375000000+94375000000+94375000000+94687500000
2926+94687500000+94687500000+94687500000+94687500000+94687500000+94687500000
2895+94375000000+94062500000+94062500000+94062500000+94062500000+94062500000
2863+94062500000+94062500000+94062500000+94062500000+94062500000+94062500000
2832+94375000000+94375000000+94375000000+94687500000+94687500000+94687500000
2800+94687500000+94687500000+94375000000+94062500000+94062500000+94062500000
2768+94062500000+94375000000+94687500000+94687500000+94687500000+94687500000
2737+94687500000+94687500000+94687500000+94375000000+94375000000+94375000000
2705+94375000000+94375000000+94687500000+94687500000+94687500000+94687500000
2674+94687500000+94687500000+94687500000+94687500000+94687500000+94687500000
2642+94687500000+94687500000+94687500000+94687500000+94687500000+94375000000
2611+94375000000+94375000000+94062500000+94062500000+94062500000+93750000000
2579+93437500000+92500000000+91875000000+91250000000+91250000000+91250000000
2547+91250000000+90312500000+88750000000+88125000000+88437500000+90312500000
2516+91562500000+92812500000+93437500000+93750000000+94062500000+94062500000
2484+94062500000+94062500000+93750000000+93125000000+92812500000+92187500000
2453+90937500000+90625000000+90625000000+90937500000+90000000000+88125000000
2421+87500000000+88125000000+89687500000+91562500000+92812500000+93437500000
2389+94062500000+94062500000+94062500000+94062500000+94062500000+93750000000
2358+93437500000+93125000000+92500000000+92187500000+91875000000+91562500000
2326+90312500000+89687500000+89687500000+90937500000+92187500000+92812500000
2295+93125000000+93437500000+93437500000+93750000000+93437500000+93437500000
2263+93125000000+91562500000+90625000000+90312500000+89687500000+89687500000
2232+90000000000+90937500000+92187500000+92812500000+93437500000+93437500000
2200+93750000000+93750000000+93750000000+93750000000+93750000000+93750000000
2168+93750000000+93750000000+94062500000+93750000000+93750000000+93750000000
2137+93437500000+92812500000+92187500000+91250000000+90937500000+90625000000
2105+90937500000+90937500000+92187500000+92812500000+93437500000+93125000000
2074+92812500000+92500000000+92187500000+91875000000+90937500000+88125000000
2042+80312500000+62500000000+34062500000+30000000000+40937500000+52187500000
2011+61250000000+76875000000+82812500000+88437500000+90937500000+91875000000
1979+92187500000+92812500000+93125000000+93125000000+93125000000+92812500000
1947+92812500000+92500000000+92500000000+92187500000+92187500000+92187500000
1916+91562500000+90625000000+89062500000+85000000000+75625000000+40625000000
1884+6250000000+10000000000+42187500000+65937500000+83125000000+87187500000
1853+85312500000+74062500000+21875000000+22187500000+62500000000+75937500000
1821+85312500000+88750000000+90000000000+91562500000+91875000000+92187500000
1789+92500000000+92812500000+92812500000+92500000000+91875000000+90937500000
1758+90000000000+90312500000+91250000000+92187500000+92500000000+92187500000
1726+91875000000+91875000000+92187500000+93437500000+94062500000+94062500000
1695+94062500000+94062500000+93125000000+90937500000+87500000000+87500000000
1663+89687500000+91875000000+92500000000+91875000000+91250000000+91250000000
1632+91875000000+93125000000+93125000000+93125000000+92500000000+91562500000
1600+90937500000+90000000000+90000000000+90625000000+91875000000+92187500000
1568+92500000000+92187500000+91875000000+91562500000+91562500000+91875000000
1537+92187500000+93125000000+93437500000+93437500000+93125000000+92812500000
1505+91875000000+91562500000+91562500000+91562500000+91250000000+90937500000
1474+90312500000+88125000000+88125000000+89062500000+89375000000+88125000000
1442+88125000000+89375000000+90312500000+90937500000+91250000000+91562500000
1411+91562500000+91562500000+91875000000+92187500000+92187500000+92500000000
1379+92187500000+91562500000+90625000000+88750000000+87812500000+87812500000
1347+87187500000+85000000000+80312500000+67187500000+26562500000+16250000000
1316+24687500000+57187500000+78125000000+85625000000+88125000000+89687500000
1284+90312500000+89062500000+88437500000+84687500000+71562500000+30625000000
1253+20000000000+38749999999+70000000000+78125000000+73437500000+33125000000
1221+46250000000+81875000000+77500000000+77500000000+81250000000+86562500000
1189+89375000000+90312500000+90312500000+90625000000+90937500000+91562500000
1158+91875000000+92187500000+92187500000+92500000000+92187500000+92187500000
1126+91875000000+90625000000+89062500000+87187500000+86562500000+83125000000
1095+76562500000+76250000000+80625000000+86562500000+90625000000+91250000000
1063+91875000000+91875000000+91875000000+92187500000+92187500000+92187500000
1032+92500000000+92500000000+92187500000+91875000000+91562500000+91562500000
1000+91562500000+91562500000+91562500000+91250000000+91562500000+90625000000
968+89375000000+89375000000+89687500000+90625000000+91250000000+91562500000
937+91875000000+91875000000+91875000000+91562500000+90937500000+90625000000
905+90000000000+88750000000+86562500000+84375000000+78437500000+70000000000
874+46875000000+18125000000+6250000000+4687500000+5625000000+25625000000
842+60312500000+75625000000+80937500000+85625000000+87500000000+86875000000
811+86562500000+80937500000+66562500000+48124999999+16875000000+16875000000
779+47500000000+18750000000+18125000000+48437500000+73750000000+79687500000
747+84375000000+88125000000+90000000000+90625000000+90937500000+90937500000
716+90937500000+90937500000+91250000000+91250000000+91562500000+85312500000
684+87500000000+93437500000+93437500000+94062500000+93750000000+93750000000
653+93437500000+93125000000+93125000000+93125000000+93125000000+93437500000
621+93437500000+94062500000+94375000000+94375000000+94687500000+94687500000
589+94687500000+94687500000+94375000000+94375000000+94062500000+94062500000
558+94062500000+93750000000+93437500000+93437500000+92812500000+92187500000
526+91250000000+90937500000+90625000000+90312500000+90000000000+90625000000
495+90625000000+88125000000+80937500000+54062500000+27812500000+70312500000
463+71250000000+73125000000+76562500000+84375000000+82500000000+79687500000
432+76875000000+74687500000+73437500000+73437500000+73437500000+74062500000
400+74375000000
##END=
