##TITLE=butylcyclohexane
##JCAMP-DX=4.24
##DATA TYPE=INFRARED SPECTRUM
##DATE=10/06/2025
##SAMPLING PROCEDURE=ATR
##ORIGIN=SDBS
##XUNITS=1/CM
##YUNITS=TRANSMITTANCE
##RESOLUTION=5.2631578947368425
##FIRSTX=4000.0
##LASTX=400.0
##DELTAX=-5.2631578947368425
##MAXY=94.6875
##MINY=0.0
##XFACTOR=1
##YFACTOR=1
##NPOINTS=685
##FIRSTY=0.0
##XYDATA=(X++(Y..Y))
4000+0+82500000000+82187500000+82187500000+82187500000+82500000000
3968+82500000000+82500000000+82187500000+82500000000+82500000000+82187500000
3937+82187500000+81875000000+81562500000+81250000000+81250000000+81250000000
3905+81562500000+81562500000+81875000000+81875000000+81875000000+81562500000
3874+81250000000+81250000000+81250000000+81250000000+81250000000+81562500000
3842+81562500000+81562500000+81250000000+81250000000+80937500000+80937500000
3811+81250000000+81250000000+81250000000+80937500000+80937500000+80937500000
3779+81250000000+81250000000+81250000000+81250000000+81250000000+81250000000
3747+81250000000+81250000000+80937500000+80937500000+80937500000+80937500000
3716+81250000000+81250000000+81250000000+81250000000+81250000000+81250000000
3684+81250000000+80937500000+80937500000+80937500000+80625000000+80625000000
3653+80625000000+80625000000+80625000000+80625000000+80625000000+80625000000
3621+80937500000+80937500000+80937500000+80937500000+80937500000+80625000000
3589+80312500000+80000000000+80000000000+80000000000+80000000000+80000000000
3558+80000000000+80000000000+79687500000+80000000000+80000000000+79687500000
3526+78750000000+78125000000+77187500000+76250000000+75312500000+74687500000
3495+73437500000+71875000000+70000000000+68437500000+66562500000+65937500000
3463+65937500000+66250000000+66562500000+67500000000+68125000000+68437500000
3432+69062500000+69687500000+70312500000+70625000000+71250000000+71562500000
3400+72187500000+72500000000+72812500000+73125000000+72812500000+70625000000
3368+64687500000+67500000000+70000000000+66875000000+67187500000+69062500000
3337+69062500000+68437500000+67500000000+65937500000+63437500000+59687500000
3305+54687500000+48124999999+36875000000+24375000000+13750000000+9687500000
3274+9375000000+9687500000+7187500000+5000000000+4687500000+5000000000
3242+7187500000+10000000000+13125000000+15937500000+17812500000+15312500000
3211+12187500000+10000000000+10312500000+19062500000+39375000000+53750000000
3179+62500000000+67500000000+71250000000+73125000000+75000000000+76875000000
3147+78125000000+78437500000+79062500000+78750000000+78437500000+77812500000
3116+77812500000+77812500000+78125000000+78437500000+78437500000+78437500000
3084+78437500000+78437500000+78750000000+79062500000+79375000000+79375000000
3053+79687500000+79687500000+80000000000+80000000000+80312500000+80625000000
3021+80937500000+81250000000+81875000000+82187500000+82500000000+82500000000
2989+82812500000+83125000000+83437500000+83437500000+83750000000+83750000000
2958+84375000000+84375000000+84687500000+84687500000+84687500000+84687500000
2926+84687500000+85000000000+85000000000+84687500000+84687500000+85000000000
2895+85000000000+85312500000+85000000000+85000000000+85000000000+85000000000
2863+85000000000+85000000000+85000000000+85312500000+85625000000+85625000000
2832+85937500000+85937500000+85937500000+85937500000+86250000000+86250000000
2800+86250000000+86562500000+86562500000+86875000000+86875000000+86875000000
2768+86875000000+86875000000+87187500000+87187500000+87187500000+87500000000
2737+87500000000+87500000000+87500000000+87500000000+87812500000+87812500000
2705+87812500000+88125000000+88125000000+88125000000+88125000000+88437500000
2674+88437500000+88437500000+88437500000+88750000000+88437500000+88437500000
2642+88437500000+88437500000+88437500000+88437500000+88437500000+88437500000
2611+88750000000+88750000000+88750000000+89062500000+89062500000+89062500000
2579+89062500000+89062500000+89062500000+89062500000+89062500000+89375000000
2547+89375000000+89375000000+89687500000+89687500000+90000000000+90000000000
2516+89687500000+89687500000+89687500000+89687500000+89687500000+90000000000
2484+90000000000+90312500000+90625000000+90312500000+88437500000+87812500000
2453+88437500000+90312500000+90312500000+90312500000+90312500000+90625000000
2421+90625000000+90625000000+90625000000+90625000000+90937500000+90937500000
2389+90937500000+90937500000+91250000000+91250000000+91250000000+91562500000
2358+91250000000+91250000000+91250000000+91250000000+91250000000+91562500000
2326+91562500000+91875000000+91875000000+91562500000+90625000000+87187500000
2295+87500000000+89687500000+90312500000+90625000000+90625000000+90625000000
2263+90937500000+91250000000+91562500000+91562500000+91250000000+90625000000
2232+89687500000+89062500000+88125000000+85625000000+80937500000+71250000000
2200+60312500000+50625000000+43125000000+42500000000+48437500000+60937500000
2168+68437500000+73437500000+77812500000+80000000000+82187500000+82500000000
2137+82812500000+84062500000+85937500000+86875000000+87500000000+87500000000
2105+87500000000+87500000000+87812500000+88437500000+88750000000+89062500000
2074+89375000000+89375000000+88750000000+82812500000+79687500000+81875000000
2042+85000000000+85625000000+84687500000+85312500000+88437500000+89062500000
2011+89375000000+89687500000+90000000000+90312500000+90625000000+90937500000
1979+90937500000+90937500000+91250000000+91250000000+91250000000+91250000000
1947+91250000000+91250000000+90937500000+90625000000+90000000000+89062500000
1916+87812500000+84375000000+80937500000+59062500000+34375000000+42812500000
1884+52812500000+41250000000+32500000000+30937500000+28750000000+26562500000
1853+26562500000+32500000000+39687500000+47187500000+53437500000+61250000000
1821+68750000000+70625000000+70312500000+68437500000+65000000000+63437500000
1789+63750000000+67187500000+66875000000+70937500000+68125000000+59062500000
1758+51250000000+43125000000+41250000000+44687500000+55000000000+56562500000
1726+61250000000+66875000000+68125000000+66875000000+62812500000+60625000000
1695+60625000000+63750000000+65937500000+60625000000+50312500000+40000000000
1663+33125000000+33125000000+41874999999+48437500000+51562500000+57187500000
1632+63125000000+65937500000+68437500000+68437500000+69687500000+74687500000
1600+77187500000+76562500000+75625000000+73750000000+65312500000+60000000000
1568+54062500000+50312500000+49062500000+38749999999+38749999999+51875000000
1537+58750000000+63750000000+71562500000+75937500000+79375000000+77500000000
1505+59062500000+46250000000+46250000000+54375000000+65000000000+70937500000
1474+74375000000+68125000000+45937500000+45625000000+59375000000+61250000000
1442+44687500000+40312499999+41874999999+53125000000+61562500000+66875000000
1411+70937500000+74375000000+75937500000+76250000000+78437500000+80000000000
1379+79687500000+79375000000+78437500000+76875000000+77187500000+79687500000
1347+82187500000+81875000000+77812500000+81250000000+65625000000+47187500000
1316+60312500000+70937500000+76562500000+81250000000+82500000000+83437500000
1284+84375000000+84687500000+85000000000+85625000000+85937500000+86562500000
1253+87500000000+78750000000+52187500000+62812500000+75000000000+79687500000
1221+82500000000+84687500000+86250000000+86562500000+86875000000+87187500000
1189+87187500000+86875000000+86875000000+86875000000+86875000000+86875000000
1158+86875000000+86875000000+86875000000+86875000000+86875000000+86875000000
1126+86875000000+87187500000+87500000000+87500000000+88125000000+88437500000
1095+87812500000+82187500000+82187500000+86562500000+87500000000+87812500000
1063+87187500000+57812500000+59062500000+85625000000+88125000000+87812500000
1032+86562500000+81250000000+68437500000+68750000000+83437500000+86562500000
1000+88437500000+89375000000+87812500000+83437500000+73437500000+74062500000
968+82812500000+71250000000+57500000000+65937500000+81562500000+86562500000
937+87500000000+85312500000+59687500000+59062500000+80312500000+85625000000
905+87187500000+88125000000+88437500000+87812500000+87187500000+86250000000
874+83437500000+70000000000+61562500000+69375000000+74062500000+70312500000
842+63750000000+63125000000+63437500000+68750000000+77500000000+81875000000
811+73125000000+67812500000+68125000000+71875000000+71562500000+75000000000
779+81875000000+85000000000+86562500000+88125000000+89062500000+89375000000
747+89062500000+88750000000+88437500000+88125000000+88437500000+89062500000
716+89375000000+89687500000+90312500000+90625000000+90937500000+91250000000
684+90937500000+90937500000+90625000000+90312500000+90000000000+89687500000
653+89687500000+89687500000+89687500000+90000000000+90312500000+90625000000
621+90312500000+90000000000+89375000000+90000000000+80312500000+90937500000
589+93437500000+94375000000+94375000000+94375000000+94687500000+94375000000
558+93437500000+91562500000+88437500000+63437500000+60937500000+85000000000
526+89687500000+91875000000+91562500000+90000000000+89375000000+88750000000
495+88750000000+88750000000+89375000000+89687500000+90000000000+89062500000
463+87812500000+86250000000+85000000000+84062500000+84062500000+83750000000
432+82812500000+81250000000+79375000000+76875000000+74375000000+72812500000
400+72500000000
##END=
