##TITLE=chloroacetyl chloride
##JCAMP-DX=4.24
##DATA TYPE=INFRARED SPECTRUM
##DATE=10/06/2025
##SAMPLING PROCEDURE=ATR
##ORIGIN=SDBS
##XUNITS=1/CM
##YUNITS=TRANSMITTANCE
##RESOLUTION=5.2631578947368425
##FIRSTX=4000.0
##LASTX=400.0
##DELTAX=-5.2631578947368425
##MAXY=94.6875
##MINY=0.0
##XFACTOR=1
##YFACTOR=1
##NPOINTS=685
##FIRSTY=0.0
##XYDATA=(X++(Y..Y))
4000+0+75625000000+75937500000+76250000000+76562500000+76875000000
3968+76562500000+75937500000+75625000000+75625000000+76250000000+76875000000
3937+76875000000+76562500000+76250000000+76250000000+76250000000+76562500000
3905+77187500000+77500000000+77812500000+78437500000+78750000000+78750000000
3874+78437500000+78437500000+78437500000+78750000000+78750000000+79062500000
3842+79062500000+79062500000+79062500000+79062500000+79062500000+79062500000
3811+79062500000+79062500000+79375000000+79375000000+79062500000+78750000000
3779+78750000000+78437500000+78125000000+77500000000+76875000000+76562500000
3747+76250000000+75937500000+75625000000+75000000000+75000000000+75000000000
3716+74687500000+74687500000+74687500000+74687500000+74375000000+74375000000
3684+74062500000+73750000000+73750000000+73437500000+73125000000+73125000000
3653+72812500000+72812500000+72187500000+71875000000+71250000000+70937500000
3621+70937500000+70625000000+70312500000+70000000000+69687500000+69062500000
3589+68437500000+67500000000+66562500000+65625000000+64687500000+64062500000
3558+63437500000+63125000000+62500000000+62187500000+60937500000+60000000000
3526+58750000000+57812500000+56562500000+54687500000+53125000000+51875000000
3495+50312500000+48437500000+46875000000+45312500000+43750000000+42187500000
3463+40937500000+39687500000+38437500000+37187499999+36250000000+35312500000
3432+34375000000+33125000000+31875000000+31250000000+30000000000+29375000000
3400+28750000000+28125000000+27812500000+26562500000+25937500000+25625000000
3368+25625000000+25312500000+25000000000+24687500000+24375000000+24062500000
3337+23750000000+23437500000+22500000000+20937500000+17812500000+17812500000
3305+20625000000+20000000000+17812500000+14375000000+9375000000+6250000000
3274+5625000000+6562500000+5937500000+5000000000+4687500000+5000000000
3242+6250000000+7812500000+9062500000+10625000000+11875000000+11250000000
3211+9687500000+8750000000+8750000000+12500000000+19375000000+24062500000
3179+27500000000+30000000000+32500000000+34375000000+36250000000+37812500000
3147+39687500000+40000000000+39062500000+37812500000+36250000000+34062500000
3116+33437500000+33125000000+33125000000+33437500000+34375000000+36250000000
3084+38125000000+39062500000+39062500000+39062500000+40312499999+40625000000
3053+39687500000+37812500000+36250000000+34062500000+33437500000+33437500000
3021+35937500000+37812500000+40937500000+41562500000+44062500000+44375000000
2989+44999999999+44687500000+42812500000+40937500000+40937500000+43125000000
2958+46250000000+48437500000+50000000000+52812500000+55000000000+56875000000
2926+58437500000+59062500000+59375000000+59375000000+60000000000+62187500000
2895+63750000000+64062500000+64687500000+66250000000+68125000000+68437500000
2863+69062500000+69687500000+70625000000+70937500000+71875000000+72187500000
2832+73125000000+73750000000+75000000000+75937500000+76875000000+77500000000
2800+78125000000+78125000000+78437500000+77812500000+77187500000+76875000000
2768+76562500000+76875000000+78750000000+80312500000+80937500000+81562500000
2737+82187500000+83125000000+83437500000+83750000000+83437500000+82187500000
2705+80312500000+79687500000+78750000000+78437500000+78437500000+78437500000
2674+79687500000+80937500000+82500000000+83125000000+83750000000+84687500000
2642+85000000000+85000000000+84687500000+84375000000+84062500000+84062500000
2611+84062500000+83750000000+83750000000+83750000000+83437500000+83125000000
2579+83125000000+82812500000+82500000000+82187500000+82187500000+82187500000
2547+82187500000+82187500000+82187500000+82187500000+82187500000+82187500000
2516+82187500000+82187500000+82187500000+82187500000+82187500000+82187500000
2484+82187500000+82187500000+81875000000+81875000000+81250000000+80937500000
2453+80312500000+80000000000+79375000000+79062500000+78437500000+77812500000
2421+77187500000+75625000000+76562500000+75312500000+73437500000+72187500000
2389+70625000000+68437500000+64062500000+60625000000+59687500000+60937500000
2358+63750000000+64062500000+62812500000+61250000000+60000000000+58437500000
2326+56250000000+54375000000+52187500000+49375000000+45625000000+41562500000
2295+37812500000+33125000000+28437500000+24062500000+20625000000+17500000000
2263+14687500000+12500000000+11250000000+10000000000+9687500000+9062500000
2232+8750000000+8437500000+8125000000+8125000000+8125000000+8437500000
2200+9375000000+11250000000+14062500000+16875000000+19687500000+23125000000
2168+26250000000+29375000000+33750000000+37812500000+41874999999+45312500000
2137+48750000000+52500000000+55312500000+57500000000+59375000000+60625000000
2105+62187500000+63125000000+65312500000+66875000000+68437500000+69687500000
2074+71562500000+72812500000+73750000000+74375000000+74375000000+74375000000
2042+74687500000+75312500000+75937500000+76875000000+78125000000+78750000000
2011+79687500000+80625000000+81875000000+82500000000+83125000000+83750000000
1979+84375000000+85000000000+85625000000+85937500000+86250000000+86875000000
1947+87187500000+87500000000+87500000000+86562500000+85000000000+83125000000
1916+81562500000+79687500000+78437500000+76875000000+74062500000+70625000000
1884+65312500000+56250000000+47187500000+45312500000+44687500000+44687500000
1853+45312500000+48437500000+46562499999+42500000000+34375000000+26875000000
1821+23125000000+22812500000+23437500000+26562500000+32500000000+39062500000
1789+43750000000+42187500000+33125000000+24375000000+24375000000+35625000000
1758+47812500000+52187500000+51875000000+55000000000+63125000000+64375000000
1726+66875000000+70625000000+71875000000+71250000000+69062500000+65000000000
1695+60937500000+57812500000+52812500000+47187500000+40937500000+34687500000
1663+28437500000+24062500000+21875000000+21875000000+22500000000+25625000000
1632+31562500000+39687500000+46562499999+54375000000+60937500000+60312500000
1600+47187500000+50000000000+64687500000+65312500000+60937500000+53750000000
1568+46250000000+38125000000+30312500000+24062500000+19687500000+17812500000
1537+16250000000+15625000000+15000000000+15312500000+16250000000+18750000000
1505+21875000000+25312500000+28750000000+31562500000+30000000000+20625000000
1474+20937500000+27187500000+33125000000+37500000000+40312499999+43437499999
1442+45937500000+48437500000+50312500000+52500000000+55625000000+57187500000
1411+59375000000+61562500000+63750000000+65000000000+66250000000+67187500000
1379+68125000000+68750000000+69687500000+70625000000+70937500000+71250000000
1347+71562500000+71875000000+72187500000+72187500000+72500000000+72500000000
1316+72812500000+73125000000+73437500000+73437500000+73750000000+73750000000
1284+73750000000+73437500000+73437500000+73437500000+73437500000+73437500000
1253+73437500000+73437500000+73750000000+73750000000+73750000000+73750000000
1221+73750000000+73437500000+72812500000+72187500000+71250000000+70625000000
1189+69687500000+68437500000+67187500000+65625000000+64062500000+61250000000
1158+57812500000+54062500000+50937500000+45312500000+35312500000+23437500000
1126+24062500000+36250000000+40937500000+34062500000+32812500000+30625000000
1095+28125000000+25625000000+24687500000+24687500000+25625000000+27812500000
1063+31250000000+34375000000+38749999999+44062500000+49062500000+52500000000
1032+57500000000+60312500000+63125000000+65625000000+68125000000+70000000000
1000+70937500000+71875000000+71562500000+70937500000+68750000000+64062500000
968+57500000000+49687499999+37500000000+25625000000+21250000000+21250000000
937+22187500000+25937500000+30000000000+33750000000+40312499999+47187500000
905+52187500000+56562500000+59687500000+62187500000+64687500000+67187500000
874+68750000000+69687500000+70625000000+70937500000+71250000000+71875000000
842+72812500000+73750000000+74687500000+75312500000+75937500000+76250000000
811+76250000000+75937500000+75625000000+75312500000+74687500000+71875000000
779+64687500000+55937500000+41250000000+30937500000+30000000000+31562500000
747+35312500000+42187500000+49687499999+56875000000+63125000000+68437500000
716+71562500000+73437500000+75625000000+78437500000+80312500000+81562500000
684+81875000000+82500000000+83125000000+83750000000+83750000000+84375000000
653+84687500000+85312500000+85625000000+85937500000+86250000000+86562500000
621+86562500000+86875000000+87500000000+88125000000+88750000000+89375000000
589+90312500000+90937500000+91562500000+91875000000+92500000000+92812500000
558+92812500000+93125000000+93125000000+93125000000+93437500000+94062500000
526+94687500000+94687500000+94062500000+92500000000+90000000000+86250000000
495+80937500000+75312500000+70625000000+67500000000+65937500000+65937500000
463+67187500000+69375000000+73125000000+77812500000+83125000000+87500000000
432+91562500000+93750000000+92500000000+90000000000+87187500000+85312500000
400+84687500000
##END=
