##TITLE=cholesterol
##JCAMP-DX=4.24
##DATA TYPE=INFRARED SPECTRUM
##DATE=10/06/2025
##SAMPLING PROCEDURE=ATR
##ORIGIN=SDBS
##XUNITS=1/CM
##YUNITS=TRANSMITTANCE
##RESOLUTION=5.2631578947368425
##FIRSTX=4000.0
##LASTX=400.0
##DELTAX=-5.2631578947368425
##MAXY=94.6875
##MINY=0.0
##XFACTOR=1
##YFACTOR=1
##NPOINTS=685
##FIRSTY=0.0
##XYDATA=(X++(Y..Y))
4000+0+75312500000+75312500000+75625000000+75937500000+75937500000
3968+75937500000+75625000000+75625000000+75625000000+75937500000+75625000000
3937+75625000000+75312500000+75312500000+75312500000+75625000000+75625000000
3905+75937500000+75625000000+75625000000+75625000000+75625000000+75625000000
3874+75625000000+75625000000+75625000000+75625000000+75625000000+75937500000
3842+75937500000+75937500000+76250000000+76250000000+76250000000+76250000000
3811+76250000000+76250000000+76250000000+76562500000+76562500000+76562500000
3779+76562500000+76875000000+76875000000+76875000000+76875000000+76875000000
3747+76562500000+76562500000+76562500000+76562500000+76562500000+76875000000
3716+76875000000+76562500000+75937500000+75625000000+75000000000+74687500000
3684+74062500000+73125000000+71562500000+70312500000+68437500000+66250000000
3653+64062500000+61875000000+59375000000+57500000000+56562500000+55625000000
3621+55000000000+54687500000+54062500000+54062500000+53750000000+53750000000
3589+53437500000+53437500000+53125000000+53125000000+53437500000+54062500000
3558+54687500000+55937500000+57187500000+58437500000+59687500000+60937500000
3526+61875000000+63125000000+64062500000+65000000000+65937500000+66562500000
3495+67187500000+67812500000+68125000000+68750000000+69062500000+69375000000
3463+69687500000+70000000000+70312500000+70000000000+70000000000+70000000000
3432+70000000000+70000000000+70312500000+70625000000+70937500000+71250000000
3400+71562500000+71875000000+72187500000+72187500000+72500000000+72187500000
3368+72187500000+71875000000+71250000000+70937500000+69687500000+67812500000
3337+66250000000+65000000000+64375000000+63437500000+60625000000+57500000000
3305+51875000000+45312500000+37812500000+30000000000+19062500000+13437500000
3274+12187500000+12500000000+9062500000+5312500000+4687500000+5000000000
3242+8437500000+11562500000+14062500000+16875000000+19062500000+16562500000
3211+15000000000+11562500000+11875000000+18750000000+29062500000+36250000000
3179+42187500000+48124999999+52812500000+55625000000+58750000000+61562500000
3147+63750000000+65000000000+65937500000+66562500000+65937500000+65625000000
3116+65312500000+65312500000+65937500000+66562500000+67187500000+67187500000
3084+67187500000+67187500000+67187500000+67500000000+67812500000+68125000000
3053+68750000000+69375000000+70000000000+70312500000+70937500000+71250000000
3021+72187500000+72812500000+73437500000+74375000000+74687500000+75312500000
2989+75937500000+76250000000+76875000000+77187500000+77500000000+77812500000
2958+78125000000+78437500000+78750000000+79062500000+79375000000+79375000000
2926+79687500000+79687500000+79687500000+79687500000+79687500000+79687500000
2895+80000000000+80000000000+80000000000+80000000000+80000000000+80312500000
2863+80312500000+80312500000+80312500000+80625000000+80625000000+80625000000
2832+80625000000+80937500000+80937500000+81250000000+81250000000+81562500000
2800+81875000000+81875000000+81875000000+81875000000+82187500000+82187500000
2768+82500000000+82500000000+82812500000+82812500000+82812500000+82812500000
2737+82812500000+83125000000+83125000000+83437500000+83437500000+83750000000
2705+83750000000+84062500000+84062500000+84062500000+84062500000+84062500000
2674+84375000000+84375000000+84375000000+84375000000+84375000000+84375000000
2642+84375000000+84375000000+84375000000+84687500000+84687500000+85000000000
2611+85000000000+85312500000+85312500000+85312500000+85312500000+85312500000
2579+85312500000+85625000000+85625000000+85625000000+85625000000+85625000000
2547+85625000000+85625000000+85625000000+85625000000+85937500000+85937500000
2516+85937500000+85937500000+85937500000+85937500000+85937500000+85937500000
2484+85937500000+85937500000+85937500000+85937500000+85937500000+85937500000
2453+85937500000+85937500000+85937500000+86250000000+86250000000+86250000000
2421+86250000000+86250000000+86250000000+86250000000+86250000000+86250000000
2389+86250000000+86562500000+86562500000+86562500000+86562500000+86562500000
2358+86562500000+86562500000+86562500000+86562500000+86562500000+86562500000
2326+86562500000+86562500000+86562500000+86562500000+86562500000+86562500000
2295+86562500000+86562500000+86250000000+86250000000+86250000000+86250000000
2263+85937500000+85937500000+85625000000+85625000000+85312500000+85312500000
2232+85000000000+85000000000+85000000000+84687500000+84687500000+84687500000
2200+84687500000+85000000000+85000000000+85000000000+85000000000+84687500000
2168+84062500000+82500000000+80937500000+80625000000+82187500000+83750000000
2137+84687500000+85000000000+85000000000+85000000000+85312500000+85312500000
2105+85625000000+85625000000+85937500000+85937500000+86250000000+86250000000
2074+86250000000+86250000000+86562500000+86562500000+86562500000+86562500000
2042+86562500000+86562500000+86562500000+86562500000+86562500000+86250000000
2011+86250000000+85937500000+85937500000+85625000000+85625000000+85312500000
1979+85000000000+84687500000+84687500000+84375000000+84375000000+84062500000
1947+83750000000+83437500000+82812500000+81562500000+80625000000+79062500000
1916+77500000000+75312500000+72500000000+68437500000+63437500000+55625000000
1884+45312500000+37500000000+30937500000+30312500000+30312500000+31250000000
1853+32500000000+36250000000+38125000000+40312499999+42812500000+45312500000
1821+49375000000+56250000000+61250000000+63750000000+64687500000+65625000000
1789+66562500000+67500000000+68437500000+67500000000+61875000000+49375000000
1758+43125000000+38437500000+36562500000+37812500000+44999999999+43750000000
1726+46250000000+52500000000+55312500000+55312500000+56562500000+58125000000
1695+59375000000+59062500000+59062500000+62187500000+65000000000+65000000000
1663+65000000000+64687500000+64687500000+65000000000+65312500000+66250000000
1632+67500000000+69375000000+70312500000+70312500000+70000000000+69687500000
1600+70000000000+70625000000+73437500000+73125000000+70000000000+70312500000
1568+73125000000+71562500000+70625000000+70312500000+70312500000+72187500000
1537+73437500000+72812500000+73437500000+75937500000+76875000000+76250000000
1505+75000000000+73750000000+71562500000+71250000000+71562500000+73750000000
1474+75625000000+74375000000+72187500000+72187500000+73125000000+73125000000
1442+73437500000+74687500000+75625000000+74375000000+73125000000+71875000000
1411+70625000000+70625000000+71562500000+75000000000+75937500000+73125000000
1379+70937500000+70937500000+73125000000+76250000000+77812500000+76250000000
1347+73437500000+72500000000+73125000000+73437500000+71250000000+65937500000
1316+58437500000+50937500000+48750000000+48750000000+51250000000+55312500000
1284+59375000000+61875000000+65000000000+67500000000+61562500000+59375000000
1253+60312500000+66875000000+70000000000+69687500000+70625000000+73437500000
1221+76250000000+75937500000+72500000000+71250000000+71875000000+75625000000
1189+76250000000+75312500000+72187500000+65312500000+63437500000+63437500000
1158+64062500000+69687500000+75937500000+76562500000+76250000000+75625000000
1126+73437500000+73437500000+75937500000+78437500000+79687500000+80937500000
1095+82187500000+82500000000+81562500000+80937500000+80000000000+80000000000
1063+80000000000+80625000000+82500000000+84375000000+85312500000+85937500000
1032+85937500000+84062500000+80937500000+78750000000+73125000000+71562500000
1000+72187500000+75625000000+78750000000+79375000000+81250000000+83437500000
968+85000000000+82500000000+78437500000+71875000000+69062500000+71562500000
937+82187500000+86875000000+88125000000+88125000000+88125000000+88125000000
905+87812500000+87500000000+87187500000+86875000000+85937500000+84062500000
874+79375000000+75312500000+75000000000+75000000000+75312500000+72187500000
842+69062500000+69375000000+74375000000+81250000000+85000000000+87187500000
811+88125000000+89062500000+90625000000+91562500000+92187500000+92812500000
779+92500000000+92500000000+92187500000+91875000000+91562500000+90937500000
747+90000000000+89375000000+88437500000+87812500000+87812500000+87187500000
716+85625000000+82500000000+82187500000+84062500000+84062500000+83437500000
684+82500000000+82187500000+81250000000+81250000000+80937500000+80625000000
653+80625000000+80937500000+80937500000+81562500000+82187500000+82812500000
621+83437500000+84062500000+84687500000+85000000000+85625000000+86250000000
589+86875000000+87187500000+87812500000+88125000000+88125000000+87812500000
558+87500000000+86875000000+86875000000+86875000000+86875000000+87187500000
526+88125000000+89062500000+90312500000+91562500000+92500000000+93125000000
495+93437500000+93125000000+92500000000+92187500000+92187500000+92187500000
463+92500000000+93125000000+94062500000+94687500000+94375000000+93125000000
432+90937500000+89062500000+87500000000+85937500000+84687500000+83750000000
400+83437500000
##END=
