##TITLE=cinnamyl alcohol
##JCAMP-DX=4.24
##DATA TYPE=INFRARED SPECTRUM
##DATE=10/06/2025
##SAMPLING PROCEDURE=ATR
##ORIGIN=SDBS
##XUNITS=1/CM
##YUNITS=TRANSMITTANCE
##RESOLUTION=5.2631578947368425
##FIRSTX=4000.0
##LASTX=400.0
##DELTAX=-5.2631578947368425
##MAXY=95.0
##MINY=0.0
##XFACTOR=1
##YFACTOR=1
##NPOINTS=685
##FIRSTY=0.0
##XYDATA=(X++(Y..Y))
4000+0+93750000000+93750000000+94062500000+94062500000+94062500000
3968+94062500000+93750000000+93750000000+93750000000+93437500000+93437500000
3937+93437500000+93125000000+93125000000+93125000000+93125000000+93125000000
3905+93437500000+93750000000+94062500000+94062500000+94375000000+94375000000
3874+94375000000+94375000000+94375000000+94375000000+94375000000+94375000000
3842+94375000000+94375000000+94375000000+94375000000+94062500000+93750000000
3811+93437500000+93125000000+92812500000+92500000000+92187500000+91250000000
3779+90000000000+88125000000+86250000000+84062500000+81562500000+80000000000
3747+79375000000+77812500000+75312500000+72187500000+68437500000+63437500000
3716+58437500000+54375000000+51250000000+48750000000+47500000000+46875000000
3684+46562499999+45937500000+44375000000+42500000000+39687500000+36562500000
3653+33437500000+30937500000+28125000000+25312500000+23125000000+21250000000
3621+19375000000+17500000000+16250000000+15000000000+14062500000+13125000000
3589+12187500000+11562500000+10937500000+10312500000+10000000000+9687500000
3558+9375000000+9062500000+9062500000+8750000000+8750000000+8750000000
3526+8750000000+9062500000+9062500000+9375000000+9375000000+10000000000
3495+10312500000+10937500000+11562500000+12187500000+12812500000+13750000000
3463+14687500000+15937500000+16875000000+18437500000+19687500000+21562500000
3432+23125000000+25000000000+27187500000+29375000000+30937500000+33125000000
3400+35625000000+38125000000+39687500000+41562500000+40312499999+40937500000
3368+40312499999+31562500000+32187500000+35312500000+29687500000+30000000000
3337+35000000000+28750000000+20625000000+20625000000+31875000000+42500000000
3305+45625000000+49687499999+54687500000+56250000000+56250000000+53437500000
3274+47500000000+42812500000+39062500000+36562500000+35312500000+35000000000
3242+35312500000+37500000000+38749999999+36562500000+31875000000+28125000000
3211+27500000000+27812500000+30937500000+36562500000+42500000000+46875000000
3179+51562500000+55312500000+59062500000+61875000000+65000000000+67187500000
3147+69375000000+70625000000+71875000000+72500000000+73437500000+73750000000
3116+73750000000+73750000000+74375000000+75625000000+76875000000+77500000000
3084+78125000000+78437500000+78750000000+79062500000+79375000000+79062500000
3053+79062500000+79062500000+79375000000+80312500000+81250000000+81875000000
3021+82812500000+84062500000+84687500000+85312500000+85937500000+86562500000
2989+86875000000+87500000000+87812500000+87812500000+88125000000+88437500000
2958+88750000000+89062500000+89687500000+90000000000+90312500000+90000000000
2926+90000000000+89687500000+89687500000+89375000000+89375000000+89375000000
2895+89375000000+89687500000+90000000000+90312500000+90312500000+90625000000
2863+90937500000+91250000000+91250000000+91562500000+91875000000+91875000000
2832+92187500000+92500000000+92500000000+92500000000+92500000000+92812500000
2800+92812500000+92812500000+92812500000+93125000000+93437500000+93437500000
2768+93750000000+93750000000+93750000000+93437500000+93437500000+93125000000
2737+93125000000+93437500000+93437500000+93750000000+94062500000+94062500000
2705+94375000000+94375000000+94687500000+94687500000+94687500000+94687500000
2674+94687500000+95000000000+94687500000+94687500000+94687500000+94375000000
2642+94062500000+93750000000+93125000000+92812500000+92500000000+92500000000
2611+92187500000+91875000000+91562500000+90625000000+90000000000+89375000000
2579+88437500000+87187500000+86250000000+85625000000+84687500000+83125000000
2547+81562500000+81562500000+81562500000+83437500000+86250000000+88437500000
2516+89687500000+90625000000+91562500000+92187500000+92500000000+92500000000
2484+91562500000+90937500000+89375000000+88437500000+87812500000+87187500000
2453+86250000000+85312500000+85312500000+85937500000+87500000000+90625000000
2421+92500000000+93750000000+94062500000+94375000000+94062500000+93750000000
2389+93125000000+92187500000+90937500000+89687500000+88125000000+86875000000
2358+85625000000+84687500000+83437500000+82812500000+82812500000+83437500000
2326+85000000000+86875000000+87500000000+87812500000+87812500000+88437500000
2295+88437500000+88437500000+88125000000+87187500000+86562500000+86562500000
2263+86562500000+87187500000+87812500000+88125000000+87500000000+85937500000
2232+85000000000+84375000000+83437500000+81875000000+80937500000+80625000000
2200+80625000000+80625000000+80312500000+80000000000+79375000000+77500000000
2168+75625000000+74062500000+72187500000+69062500000+66250000000+63437500000
2137+61562500000+62187500000+69062500000+74375000000+77500000000+77500000000
2105+77500000000+78437500000+78437500000+78750000000+80625000000+82500000000
2074+82500000000+79062500000+67812500000+54687500000+54062500000+65000000000
2042+77187500000+80312500000+69062500000+55000000000+62812500000+79687500000
2011+85312500000+87812500000+88750000000+89062500000+88750000000+87812500000
1979+87187500000+86250000000+85625000000+85312500000+85312500000+85625000000
1947+85312500000+84375000000+82812500000+79687500000+74062500000+55937500000
1916+24375000000+13437500000+18125000000+46562499999+60312500000+62812500000
1884+60625000000+58125000000+54687500000+50312500000+44999999999+37812500000
1853+21250000000+16250000000+20625000000+36875000000+41874999999+43437499999
1821+42812500000+42500000000+42187500000+41874999999+41874999999+42187500000
1789+42812500000+43437499999+44687500000+45625000000+45625000000+44687500000
1758+43437499999+41874999999+39062500000+37500000000+37500000000+39375000000
1726+42812500000+46875000000+50937500000+53437500000+54687500000+55312500000
1695+54375000000+53437500000+53437500000+53750000000+54687500000+55312500000
1663+53750000000+53125000000+52500000000+51562500000+50312500000+49375000000
1632+49687499999+53750000000+57812500000+58437500000+58125000000+58437500000
1600+60312500000+61875000000+65625000000+70000000000+71562500000+72812500000
1568+73437500000+73125000000+71562500000+69062500000+65625000000+62500000000
1537+59687500000+57812500000+57187500000+57187500000+54687500000+52187500000
1505+52187500000+53437500000+55937500000+60312500000+64375000000+63750000000
1474+63750000000+65625000000+72500000000+77812500000+79375000000+72812500000
1442+70312500000+74062500000+81562500000+83750000000+83437500000+81875000000
1411+80312500000+79375000000+78437500000+76875000000+72500000000+62187500000
1379+47812500000+34687500000+27500000000+19375000000+16250000000+16250000000
1347+18437500000+27812500000+41250000000+46562499999+23125000000+22187500000
1316+29687500000+46562499999+61562500000+68750000000+71562500000+69687500000
1284+65000000000+55625000000+41562500000+28437500000+25312500000+20000000000
1253+16250000000+14062500000+13125000000+13125000000+14062500000+15625000000
1221+15625000000+17812500000+19375000000+19687500000+19687500000+13437500000
1189+7500000000+5000000000+4687500000+5937500000+11875000000+24687500000
1158+38749999999+50625000000+59687500000+65625000000+70937500000+72500000000
1126+66562500000+56875000000+54687500000+55937500000+60000000000+63750000000
1095+73750000000+82500000000+86562500000+88125000000+89062500000+89687500000
1063+90312500000+90000000000+89375000000+88437500000+87812500000+86562500000
1032+83750000000+76875000000+73125000000+72187500000+70937500000+69062500000
1000+66562500000+66250000000+68750000000+76875000000+77187500000+74687500000
968+74375000000+74375000000+70625000000+66250000000+66562500000+70625000000
937+74687500000+75937500000+74062500000+71875000000+68125000000+65000000000
905+62500000000+58125000000+48437500000+31250000000+17187500000+11875000000
874+10625000000+10937500000+10625000000+10312500000+10625000000+19375000000
842+37187499999+47500000000+50625000000+50625000000+45625000000+35937500000
811+22500000000+8750000000+5312500000+5937500000+17812500000+39062500000
779+49375000000+53125000000+54062500000+54062500000+54687500000+56562500000
747+57812500000+59062500000+60000000000+60625000000+60937500000+61250000000
716+61562500000+61875000000+62187500000+62187500000+62187500000+60312500000
684+58437500000+58437500000+61250000000+62187500000+63125000000+64375000000
653+65937500000+66875000000+67812500000+68750000000+69687500000+70625000000
621+71250000000+71562500000+71250000000+70312500000+67500000000+61562500000
589+51875000000+48750000000+48750000000+50000000000+53125000000+59062500000
558+67500000000+73437500000+76250000000+74687500000+73437500000+72500000000
526+71875000000+72187500000+72187500000+72500000000+73437500000+74062500000
495+75312500000+76562500000+77812500000+79375000000+80937500000+83125000000
463+85000000000+86875000000+88750000000+90625000000+92187500000+93125000000
432+94062500000+94375000000+93750000000+92812500000+91875000000+91250000000
400+90937500000
##END=
