##TITLE=cis-2-methylcyclohexanol
##JCAMP-DX=4.24
##DATA TYPE=INFRARED SPECTRUM
##DATE=10/06/2025
##SAMPLING PROCEDURE=ATR
##ORIGIN=SDBS
##XUNITS=1/CM
##YUNITS=TRANSMITTANCE
##RESOLUTION=5.2631578947368425
##FIRSTX=4000.0
##LASTX=400.0
##DELTAX=-5.2631578947368425
##MAXY=94.6875
##MINY=0.0
##XFACTOR=1
##YFACTOR=1
##NPOINTS=685
##FIRSTY=0.0
##XYDATA=(X++(Y..Y))
4000+0+94375000000+94375000000+94375000000+94375000000+94375000000
3968+94687500000+94687500000+94687500000+94687500000+94375000000+94375000000
3937+94375000000+94062500000+94062500000+94062500000+93750000000+93750000000
3905+93750000000+93750000000+93750000000+93437500000+93437500000+93437500000
3874+93437500000+93437500000+93750000000+93750000000+93750000000+93750000000
3842+93437500000+93437500000+93125000000+93125000000+93125000000+93125000000
3811+93437500000+93750000000+93437500000+93125000000+92812500000+92187500000
3779+91875000000+91875000000+91875000000+91562500000+90937500000+89062500000
3747+86875000000+84687500000+83437500000+83437500000+84062500000+83750000000
3716+82812500000+81250000000+78750000000+75937500000+73437500000+70000000000
3684+66250000000+62500000000+58437500000+55312500000+51875000000+48437500000
3653+44999999999+42812500000+40000000000+37187499999+35312500000+33437500000
3621+31250000000+29687500000+28125000000+27187500000+26250000000+25625000000
3589+25000000000+25000000000+24687500000+24687500000+24687500000+25000000000
3558+25312500000+25625000000+26250000000+27500000000+28750000000+30000000000
3526+31875000000+34062500000+35625000000+38437500000+40937500000+43437499999
3495+45937500000+48437500000+51562500000+54062500000+55937500000+58437500000
3463+61250000000+63437500000+65625000000+67500000000+69687500000+71875000000
3432+73125000000+74687500000+76250000000+77500000000+78750000000+80000000000
3400+81250000000+82500000000+83125000000+83750000000+84687500000+85312500000
3368+85625000000+86562500000+87187500000+87500000000+87812500000+88125000000
3337+87812500000+87812500000+87187500000+86250000000+85312500000+83437500000
3305+80000000000+72187500000+57812500000+43437499999+28750000000+24375000000
3274+19687500000+12187500000+6250000000+4687500000+5000000000+7500000000
3242+11562500000+16875000000+20625000000+22812500000+19687500000+17187500000
3211+16562500000+16562500000+17187500000+35312500000+55312500000+63437500000
3179+69687500000+73750000000+76562500000+78437500000+79687500000+80937500000
3147+82812500000+83750000000+84687500000+85625000000+85625000000+84687500000
3116+83750000000+83437500000+83750000000+83750000000+84375000000+84375000000
3084+83437500000+81250000000+79687500000+79687500000+81875000000+83437500000
3053+85625000000+86875000000+87500000000+87812500000+87812500000+87812500000
3021+88125000000+88750000000+90000000000+90625000000+90625000000+90937500000
2989+90937500000+90937500000+91250000000+91562500000+91875000000+92187500000
2958+92187500000+92187500000+91875000000+91875000000+92187500000+92187500000
2926+92500000000+92500000000+92500000000+92500000000+92500000000+92500000000
2895+92812500000+92812500000+92500000000+92500000000+92500000000+92500000000
2863+92500000000+92500000000+92812500000+92812500000+93125000000+93125000000
2832+93437500000+93437500000+93437500000+93437500000+93437500000+93437500000
2800+93750000000+93750000000+93750000000+93750000000+93437500000+93437500000
2768+93437500000+93437500000+93750000000+93750000000+93437500000+93437500000
2737+93437500000+93750000000+93750000000+93750000000+93750000000+94062500000
2705+94062500000+94062500000+94062500000+93750000000+93750000000+93750000000
2674+93750000000+93750000000+93750000000+93750000000+93750000000+94062500000
2642+94062500000+94062500000+94062500000+94062500000+94062500000+94062500000
2611+94062500000+94062500000+94062500000+94062500000+94062500000+94062500000
2579+94062500000+94062500000+94062500000+93750000000+93750000000+93750000000
2547+93750000000+93750000000+93750000000+93750000000+93750000000+93750000000
2516+93750000000+93750000000+93750000000+93750000000+94062500000+94062500000
2484+94062500000+94062500000+94062500000+94062500000+94062500000+94062500000
2453+94062500000+94062500000+94062500000+94062500000+94375000000+94375000000
2421+94375000000+94375000000+94062500000+94062500000+93750000000+93750000000
2389+93750000000+93750000000+93750000000+94062500000+94062500000+94062500000
2358+94062500000+94062500000+94062500000+94062500000+94062500000+94062500000
2326+94062500000+94062500000+94062500000+93750000000+93750000000+93750000000
2295+93750000000+93750000000+93750000000+93750000000+94062500000+94062500000
2263+94375000000+94375000000+94687500000+94375000000+94062500000+93437500000
2232+92812500000+91250000000+89375000000+87187500000+84687500000+84375000000
2200+84687500000+86875000000+89062500000+90625000000+91562500000+92187500000
2168+92500000000+92500000000+92500000000+92500000000+92500000000+92500000000
2137+92187500000+92187500000+91875000000+91875000000+91875000000+91875000000
2105+91875000000+92187500000+92187500000+92500000000+92812500000+92812500000
2074+93125000000+93125000000+93437500000+93437500000+93437500000+93750000000
2042+93750000000+93750000000+93750000000+93750000000+93750000000+93750000000
2011+93437500000+93437500000+93437500000+93437500000+93437500000+93437500000
1979+93125000000+93125000000+92812500000+92500000000+92500000000+92187500000
1947+92187500000+91875000000+91250000000+90937500000+90312500000+89687500000
1916+89375000000+89062500000+87500000000+86250000000+84375000000+80937500000
1884+73437500000+63437500000+56250000000+52812500000+51250000000+47187500000
1853+40312499999+35937500000+36250000000+44375000000+54687500000+64062500000
1821+69375000000+70000000000+70312500000+70312500000+70312500000+70937500000
1789+71250000000+71875000000+73125000000+73750000000+74062500000+72812500000
1758+69062500000+68437500000+65625000000+64062500000+63750000000+64062500000
1726+65312500000+68125000000+68125000000+70312500000+72500000000+72187500000
1695+70937500000+72812500000+75000000000+71562500000+69375000000+67500000000
1663+67187500000+67812500000+72812500000+71250000000+71250000000+71250000000
1632+69062500000+67500000000+66250000000+65625000000+65625000000+66250000000
1600+67500000000+70000000000+73125000000+76250000000+73750000000+68750000000
1568+68437500000+71875000000+73750000000+73437500000+73750000000+74687500000
1537+75625000000+74375000000+63750000000+53125000000+52500000000+57812500000
1505+68437500000+75000000000+77812500000+79375000000+80937500000+83125000000
1474+85625000000+86875000000+87812500000+88125000000+88437500000+86875000000
1442+82187500000+71562500000+63750000000+63750000000+70000000000+63437500000
1411+63437500000+66250000000+71250000000+76562500000+82500000000+85937500000
1379+87812500000+88437500000+88437500000+85937500000+80625000000+70625000000
1347+61875000000+59375000000+50625000000+48750000000+53437500000+51875000000
1316+50625000000+52187500000+64062500000+73437500000+78125000000+80625000000
1284+84062500000+86562500000+84062500000+80312500000+80625000000+76562500000
1253+59687500000+55937500000+59062500000+73125000000+78750000000+75312500000
1221+58437500000+40937500000+41250000000+36250000000+25000000000+22500000000
1189+22812500000+31875000000+50312500000+59062500000+72812500000+78750000000
1158+70937500000+51250000000+49062500000+52812500000+68750000000+75312500000
1126+75625000000+85937500000+91562500000+92500000000+92812500000+89375000000
1095+84062500000+85937500000+90000000000+79687500000+70000000000+73125000000
1063+87812500000+90937500000+92187500000+91562500000+89687500000+79375000000
1032+73437500000+75000000000+78125000000+82187500000+76875000000+82812500000
1000+89062500000+90000000000+92812500000+93437500000+93437500000+92187500000
968+89062500000+80937500000+79375000000+83750000000+91875000000+92812500000
937+93125000000+93125000000+92812500000+92500000000+91875000000+90937500000
905+90000000000+88750000000+84687500000+84062500000+84687500000+87187500000
874+89062500000+89687500000+89687500000+89375000000+89062500000+88437500000
842+87812500000+87500000000+87187500000+86562500000+86250000000+85937500000
811+85312500000+85000000000+84375000000+83750000000+83437500000+82812500000
779+82187500000+81875000000+81250000000+80312500000+79687500000+78750000000
747+78125000000+77812500000+77812500000+79062500000+80000000000+80937500000
716+81562500000+81562500000+81562500000+81250000000+81250000000+80937500000
684+80937500000+80937500000+80625000000+80625000000+80312500000+79687500000
653+79062500000+78437500000+78125000000+78125000000+78125000000+78437500000
621+79375000000+80000000000+80937500000+82187500000+83125000000+83750000000
589+84687500000+85312500000+85937500000+86562500000+86875000000+87187500000
558+87187500000+86562500000+86250000000+85937500000+85625000000+85000000000
526+84687500000+84687500000+84687500000+85312500000+85937500000+86875000000
495+87500000000+88437500000+89062500000+90000000000+90625000000+91250000000
463+91562500000+90937500000+90000000000+88125000000+86562500000+84062500000
432+81875000000+79375000000+77812500000+76250000000+75000000000+74375000000
400+74062500000
##END=
