##TITLE=cis-2-nonene
##JCAMP-DX=4.24
##DATA TYPE=INFRARED SPECTRUM
##DATE=10/06/2025
##SAMPLING PROCEDURE=ATR
##ORIGIN=SDBS
##XUNITS=1/CM
##YUNITS=TRANSMITTANCE
##RESOLUTION=5.2631578947368425
##FIRSTX=4000.0
##LASTX=400.0
##DELTAX=-5.2631578947368425
##MAXY=95.0
##MINY=0.0
##XFACTOR=1
##YFACTOR=1
##NPOINTS=685
##FIRSTY=0.0
##XYDATA=(X++(Y..Y))
4000+0+93437500000+93437500000+93437500000+93437500000+93125000000
3968+93125000000+93125000000+93125000000+92812500000+92812500000+92500000000
3937+92500000000+92500000000+92187500000+92187500000+91875000000+91875000000
3905+91875000000+91875000000+91875000000+91875000000+91875000000+91875000000
3874+91562500000+91562500000+91875000000+91875000000+91875000000+91875000000
3842+91875000000+91875000000+91562500000+91562500000+91562500000+91562500000
3811+91562500000+91562500000+91562500000+91562500000+91562500000+91250000000
3779+91250000000+90937500000+90937500000+90937500000+90937500000+90937500000
3747+91250000000+90937500000+90937500000+90937500000+90937500000+90937500000
3716+90937500000+90937500000+90937500000+90937500000+90937500000+90937500000
3684+90937500000+90625000000+90625000000+90312500000+90000000000+89687500000
3653+89375000000+89375000000+89062500000+88750000000+88750000000+88437500000
3621+88437500000+88125000000+88125000000+88125000000+88437500000+88437500000
3589+88437500000+88437500000+88437500000+88125000000+88125000000+87812500000
3558+87812500000+87500000000+87500000000+87187500000+87187500000+86875000000
3526+86562500000+86250000000+85937500000+85625000000+85312500000+85000000000
3495+84687500000+84375000000+84062500000+84062500000+84062500000+84062500000
3463+83750000000+83750000000+83750000000+83750000000+83750000000+84062500000
3432+84062500000+84375000000+84375000000+84687500000+85000000000+85312500000
3400+85625000000+85937500000+85937500000+86250000000+85937500000+85625000000
3368+85312500000+84062500000+81562500000+81562500000+81250000000+79375000000
3337+75312500000+68750000000+57500000000+37187499999+29375000000+33750000000
3305+51250000000+55000000000+45937500000+34687500000+16875000000+10625000000
3274+10625000000+15625000000+7812500000+4687500000+4687500000+5312500000
3242+10312500000+18125000000+25000000000+30937500000+24062500000+22500000000
3211+14062500000+12500000000+15312500000+34375000000+52812500000+63437500000
3179+71875000000+76562500000+79375000000+80937500000+83125000000+84687500000
3147+85625000000+85937500000+86562500000+86875000000+86562500000+85937500000
3116+85937500000+86250000000+86875000000+88125000000+88437500000+88437500000
3084+88125000000+88125000000+88125000000+88125000000+88437500000+88750000000
3053+89062500000+89062500000+89375000000+89687500000+89687500000+90000000000
3021+90312500000+90312500000+90312500000+90625000000+90937500000+90937500000
2989+91250000000+91250000000+91250000000+91250000000+91562500000+91562500000
2958+91875000000+91875000000+91875000000+91875000000+91875000000+91875000000
2926+91875000000+91875000000+91875000000+91875000000+91875000000+91875000000
2895+91875000000+91875000000+91875000000+91875000000+91875000000+91875000000
2863+91875000000+92187500000+92187500000+92187500000+92187500000+92187500000
2832+92187500000+92187500000+92187500000+92500000000+92500000000+92500000000
2800+92500000000+92812500000+92812500000+92812500000+92812500000+93125000000
2768+93125000000+93125000000+93125000000+93125000000+93125000000+93125000000
2737+93125000000+93125000000+93437500000+93437500000+93437500000+93437500000
2705+93750000000+93750000000+93750000000+94062500000+94062500000+94062500000
2674+94062500000+94062500000+94062500000+94062500000+94062500000+94062500000
2642+94062500000+94062500000+94062500000+93750000000+93437500000+93437500000
2611+93437500000+93437500000+93437500000+93750000000+93750000000+94062500000
2579+94062500000+94062500000+94375000000+94375000000+94375000000+94375000000
2547+94687500000+94687500000+94687500000+94687500000+94687500000+94687500000
2516+94687500000+94687500000+94687500000+94687500000+94687500000+94687500000
2484+94687500000+94687500000+94687500000+94687500000+94687500000+95000000000
2453+95000000000+95000000000+95000000000+94687500000+94687500000+94687500000
2421+94687500000+94687500000+94687500000+94687500000+94687500000+94687500000
2389+94375000000+94375000000+94375000000+94375000000+94375000000+94687500000
2358+94687500000+94687500000+94687500000+94687500000+94687500000+94687500000
2326+94687500000+94687500000+94687500000+94375000000+94375000000+94375000000
2295+94375000000+94375000000+94375000000+94062500000+94062500000+94062500000
2263+93750000000+93750000000+93750000000+93750000000+93437500000+93437500000
2232+93437500000+93437500000+93437500000+93437500000+93437500000+93125000000
2200+93125000000+93125000000+93125000000+92500000000+92187500000+91875000000
2168+91562500000+90625000000+89687500000+88437500000+85937500000+80000000000
2137+78125000000+80000000000+85625000000+88750000000+90625000000+91562500000
2105+91875000000+92187500000+92187500000+92187500000+92500000000+92812500000
2074+93125000000+93125000000+93125000000+93437500000+93437500000+93437500000
2042+93437500000+93437500000+93125000000+93125000000+92812500000+92812500000
2011+92187500000+92187500000+91875000000+91562500000+91562500000+91250000000
1979+90937500000+90937500000+90625000000+90625000000+90625000000+90625000000
1947+90625000000+90625000000+90312500000+89375000000+88750000000+88125000000
1916+87500000000+86875000000+85625000000+84062500000+81875000000+78125000000
1884+69062500000+52812500000+44999999999+45625000000+45312500000+45312500000
1853+46562499999+52500000000+55625000000+57187500000+59375000000+64062500000
1821+70625000000+75937500000+78750000000+80937500000+81250000000+78125000000
1789+68125000000+65312500000+71562500000+80000000000+82187500000+81562500000
1758+75937500000+65625000000+65000000000+73125000000+72812500000+75000000000
1726+80000000000+83437500000+84375000000+85000000000+84687500000+84687500000
1695+85312500000+88125000000+89062500000+89375000000+87812500000+86875000000
1663+86875000000+87500000000+88437500000+88437500000+88437500000+88750000000
1632+89375000000+90000000000+90937500000+91250000000+90937500000+90937500000
1600+90937500000+90937500000+90937500000+91250000000+91562500000+91875000000
1568+92187500000+92500000000+92812500000+93125000000+93437500000+93437500000
1537+93125000000+92812500000+92812500000+92812500000+92812500000+92812500000
1505+93125000000+93125000000+93125000000+93125000000+93125000000+93437500000
1474+93437500000+93437500000+93437500000+93437500000+93750000000+93750000000
1442+93750000000+93750000000+93750000000+93437500000+93125000000+92500000000
1411+92187500000+92187500000+91875000000+91562500000+90312500000+89062500000
1379+88750000000+89062500000+90625000000+91562500000+92187500000+92187500000
1347+91875000000+91875000000+91562500000+91250000000+90937500000+90625000000
1316+90312500000+90000000000+90000000000+89687500000+89687500000+89375000000
1284+88750000000+86875000000+85937500000+85937500000+86875000000+87812500000
1253+87500000000+86562500000+86250000000+85312500000+85000000000+85000000000
1221+85000000000+85312500000+85625000000+85937500000+86250000000+85625000000
1189+84687500000+81875000000+78437500000+78437500000+82812500000+85625000000
1158+87187500000+87500000000+86875000000+85937500000+85937500000+86875000000
1126+88437500000+89687500000+90312500000+90312500000+90312500000+89687500000
1095+89375000000+88750000000+88437500000+88125000000+88125000000+88125000000
1063+88125000000+88437500000+88750000000+89687500000+90312500000+90937500000
1032+90937500000+90937500000+90937500000+91250000000+91875000000+92812500000
1000+93437500000+93750000000+93750000000+93437500000+93437500000+93125000000
968+92812500000+92812500000+92812500000+92500000000+92500000000+92500000000
937+92187500000+92187500000+91562500000+91250000000+90625000000+89687500000
905+88750000000+87812500000+87187500000+87187500000+87187500000+87500000000
874+86250000000+84375000000+81875000000+78125000000+74375000000+69687500000
842+69375000000+71562500000+69375000000+62812500000+55937500000+51250000000
811+50312500000+50312500000+52500000000+56875000000+60937500000+64687500000
779+68125000000+69687500000+70937500000+72500000000+73750000000+74375000000
747+76562500000+80000000000+82812500000+85312500000+87187500000+89062500000
716+90312500000+90937500000+91562500000+92187500000+92500000000+92812500000
684+92500000000+92187500000+91562500000+90000000000+88750000000+87812500000
653+86562500000+86562500000+86562500000+86875000000+88437500000+89687500000
621+91250000000+92500000000+93437500000+94062500000+94375000000+94375000000
589+94687500000+94687500000+94687500000+94687500000+94687500000+94687500000
558+94375000000+94062500000+94062500000+94062500000+94062500000+94062500000
526+94062500000+94062500000+94062500000+94062500000+94062500000+94062500000
495+94062500000+93750000000+94062500000+94062500000+94062500000+94062500000
463+94375000000+94375000000+93437500000+92187500000+90625000000+88437500000
432+86562500000+84687500000+83437500000+82500000000+81875000000+81250000000
400+80937500000
##END=
