##TITLE=cis-4-methyl-2-pentene
##JCAMP-DX=4.24
##DATA TYPE=INFRARED SPECTRUM
##DATE=10/06/2025
##SAMPLING PROCEDURE=ATR
##ORIGIN=SDBS
##XUNITS=1/CM
##YUNITS=TRANSMITTANCE
##RESOLUTION=5.2631578947368425
##FIRSTX=4000.0
##LASTX=400.0
##DELTAX=-5.2631578947368425
##MAXY=94.6875
##MINY=0.0
##XFACTOR=1
##YFACTOR=1
##NPOINTS=685
##FIRSTY=0.0
##XYDATA=(X++(Y..Y))
4000+0+71875000000+71562500000+71250000000+70625000000+70000000000
3968+69687500000+69687500000+70000000000+70000000000+70625000000+70312500000
3937+70312500000+70000000000+69687500000+69687500000+69375000000+69062500000
3905+68750000000+68750000000+69062500000+69375000000+69687500000+69375000000
3874+69062500000+69062500000+69375000000+69687500000+69687500000+70000000000
3842+69687500000+69687500000+69687500000+69375000000+69375000000+69375000000
3811+69375000000+69375000000+69687500000+69687500000+70000000000+69375000000
3779+69375000000+69375000000+69375000000+69687500000+70000000000+69687500000
3747+69062500000+68125000000+67500000000+66562500000+65937500000+65000000000
3716+64062500000+63125000000+61875000000+60625000000+59687500000+58750000000
3684+57500000000+56250000000+55312500000+54375000000+53437500000+52187500000
3653+51562500000+50937500000+50312500000+49687499999+49375000000+49062500000
3621+49062500000+48750000000+48750000000+48750000000+48750000000+48750000000
3589+48750000000+48750000000+49062500000+49375000000+49687499999+50000000000
3558+50312500000+50937500000+51562500000+52187500000+52500000000+52812500000
3526+53125000000+53437500000+53750000000+54375000000+55312500000+56250000000
3495+56875000000+57500000000+58125000000+58750000000+59062500000+59062500000
3463+59375000000+59375000000+59687500000+59687500000+59687500000+60312500000
3432+60625000000+61250000000+61875000000+62500000000+63437500000+64375000000
3400+65312500000+65937500000+66250000000+66562500000+65937500000+65312500000
3368+64062500000+60000000000+58750000000+58750000000+57812500000+55312500000
3337+50000000000+43750000000+37187499999+25625000000+12500000000+11875000000
3305+15312500000+18750000000+11562500000+7187500000+5000000000+4687500000
3274+4687500000+6250000000+8437500000+8125000000+8125000000+8750000000
3242+10937500000+13125000000+16250000000+17812500000+12500000000+10000000000
3211+11875000000+20000000000+32500000000+43437499999+51875000000+57187500000
3179+61250000000+62500000000+63437500000+66875000000+70625000000+72500000000
3147+73437500000+73750000000+74062500000+74062500000+73750000000+73125000000
3116+72500000000+72500000000+72812500000+75000000000+78125000000+79687500000
3084+80312500000+80312500000+80625000000+80937500000+81562500000+81875000000
3053+81875000000+81250000000+80937500000+80625000000+80937500000+81250000000
3021+81562500000+81875000000+82500000000+83125000000+84062500000+85000000000
2989+85625000000+86250000000+86875000000+86875000000+86875000000+86875000000
2958+86875000000+86875000000+87187500000+87187500000+87187500000+87187500000
2926+87500000000+88125000000+88437500000+88437500000+88437500000+88437500000
2895+88750000000+89375000000+89687500000+89375000000+89375000000+89687500000
2863+89687500000+90000000000+90312500000+90625000000+90937500000+91562500000
2832+91875000000+91875000000+91562500000+91562500000+91562500000+91875000000
2800+92187500000+92187500000+92187500000+92500000000+92500000000+92812500000
2768+92812500000+93125000000+93437500000+93437500000+93437500000+93437500000
2737+93437500000+94062500000+94375000000+94687500000+94687500000+94687500000
2705+94375000000+94062500000+94062500000+94375000000+94375000000+94375000000
2674+94375000000+94062500000+93750000000+93437500000+93437500000+94062500000
2642+94375000000+94375000000+93437500000+92812500000+92187500000+91875000000
2611+91875000000+91875000000+92187500000+92187500000+92500000000+92812500000
2579+93125000000+93125000000+93437500000+93750000000+93750000000+94062500000
2547+94062500000+94062500000+94375000000+94375000000+94687500000+94687500000
2516+94687500000+94687500000+94687500000+94375000000+94375000000+94375000000
2484+94062500000+94062500000+94062500000+94375000000+94375000000+94375000000
2453+94687500000+94687500000+94687500000+94375000000+94375000000+94062500000
2421+94062500000+94062500000+94062500000+94062500000+94062500000+94062500000
2389+94062500000+94062500000+94062500000+94062500000+94062500000+94062500000
2358+93750000000+93437500000+92812500000+91875000000+90937500000+89375000000
2326+87812500000+86250000000+85312500000+84375000000+83750000000+83125000000
2295+82187500000+80625000000+76875000000+74062500000+72187500000+69375000000
2263+65937500000+62187500000+59687500000+56250000000+55312500000+55312500000
2232+55312500000+55312500000+55625000000+56562500000+58437500000+60312500000
2200+62500000000+65000000000+67500000000+69375000000+70937500000+72187500000
2168+73437500000+74375000000+75937500000+76562500000+72500000000+65625000000
2137+65625000000+71562500000+78125000000+80937500000+82500000000+83750000000
2105+85000000000+85937500000+86875000000+87812500000+88437500000+89062500000
2074+89375000000+90000000000+90625000000+90937500000+91250000000+91562500000
2042+91875000000+91562500000+91562500000+91250000000+90937500000+90625000000
2011+90312500000+89687500000+89375000000+89062500000+88750000000+88125000000
1979+87812500000+87187500000+86875000000+86250000000+85625000000+85000000000
1947+83750000000+82500000000+81562500000+80625000000+79375000000+78437500000
1916+77187500000+75625000000+73437500000+69062500000+64062500000+54375000000
1884+41250000000+30312500000+26250000000+25312500000+24687500000+25625000000
1853+30000000000+31562500000+33125000000+38749999999+43125000000+48124999999
1821+52812500000+55937500000+57812500000+55312500000+52812500000+52812500000
1789+49687499999+45312500000+45625000000+52812500000+52812500000+49062500000
1758+44375000000+40000000000+40000000000+42500000000+43125000000+37812500000
1726+35625000000+41250000000+58750000000+65937500000+69375000000+71562500000
1695+73437500000+74687500000+75000000000+75625000000+75000000000+74062500000
1663+71875000000+67187500000+61250000000+57500000000+52187500000+51875000000
1632+60625000000+68750000000+70625000000+70937500000+71250000000+71250000000
1600+71250000000+70937500000+70625000000+70625000000+70312500000+70312500000
1568+70625000000+70937500000+71250000000+71875000000+72500000000+73125000000
1537+73437500000+73750000000+74062500000+74062500000+73437500000+72500000000
1505+71250000000+70625000000+69687500000+68437500000+66875000000+65937500000
1474+65000000000+63437500000+58750000000+55937500000+55000000000+55625000000
1442+57812500000+59687500000+61875000000+64375000000+66250000000+66562500000
1411+66875000000+66562500000+65937500000+65312500000+64687500000+62812500000
1379+57812500000+50937500000+50625000000+54687500000+62812500000+67187500000
1347+69687500000+70625000000+71250000000+70937500000+70937500000+70625000000
1316+70000000000+69375000000+68750000000+67500000000+66875000000+66250000000
1284+65937500000+65937500000+65937500000+66562500000+67500000000+67812500000
1253+68125000000+67812500000+67812500000+67500000000+67500000000+67812500000
1221+68125000000+68750000000+69062500000+69375000000+68437500000+64375000000
1189+59687500000+57500000000+57500000000+55000000000+42812500000+40000000000
1158+41562500000+55937500000+67187500000+71250000000+75625000000+78125000000
1126+78125000000+78437500000+79062500000+79687500000+80000000000+80625000000
1095+81250000000+82500000000+83750000000+85000000000+86250000000+86875000000
1063+85937500000+84375000000+83125000000+81562500000+80937500000+80937500000
1032+82187500000+85937500000+90000000000+92812500000+94375000000+94687500000
1000+94375000000+93750000000+91875000000+85625000000+76250000000+75000000000
968+79062500000+85625000000+87500000000+89062500000+89062500000+89062500000
937+89687500000+89687500000+90000000000+90000000000+90312500000+90000000000
905+89687500000+88437500000+86875000000+84375000000+81562500000+79062500000
874+75625000000+71250000000+63750000000+57187500000+44062500000+28750000000
842+19687500000+18750000000+20000000000+29687500000+44999999999+60000000000
811+68437500000+75312500000+80312500000+83437500000+85625000000+87187500000
779+88125000000+88750000000+89375000000+89375000000+89375000000+89375000000
747+89375000000+89375000000+89375000000+89375000000+89062500000+88437500000
716+87812500000+87187500000+86875000000+86875000000+87187500000+87187500000
684+86875000000+86250000000+82812500000+81562500000+80937500000+80625000000
653+80625000000+80937500000+81250000000+82812500000+84375000000+85937500000
621+87187500000+88437500000+89687500000+90937500000+91875000000+92812500000
589+93437500000+93437500000+92500000000+91250000000+89375000000+87812500000
558+85312500000+82187500000+79687500000+77500000000+75937500000+74687500000
526+74375000000+74375000000+74687500000+75625000000+76875000000+78125000000
495+79687500000+81250000000+82812500000+84375000000+85625000000+85000000000
463+82812500000+78750000000+73750000000+68125000000+63750000000+59687500000
432+56875000000+55625000000+55312500000+55312500000+56250000000+57187500000
400+57812500000
##END=
