##TITLE=cis-4-nonene
##JCAMP-DX=4.24
##DATA TYPE=INFRARED SPECTRUM
##DATE=10/06/2025
##SAMPLING PROCEDURE=ATR
##ORIGIN=SDBS
##XUNITS=1/CM
##YUNITS=TRANSMITTANCE
##RESOLUTION=5.2631578947368425
##FIRSTX=4000.0
##LASTX=400.0
##DELTAX=-5.2631578947368425
##MAXY=95.0
##MINY=0.0
##XFACTOR=1
##YFACTOR=1
##NPOINTS=685
##FIRSTY=0.0
##XYDATA=(X++(Y..Y))
4000+0+89375000000+89687500000+89375000000+89062500000+89062500000
3968+89062500000+89062500000+89375000000+89375000000+89687500000+89687500000
3937+90000000000+89687500000+89687500000+89687500000+89687500000+89687500000
3905+89687500000+90000000000+90000000000+90312500000+90000000000+90000000000
3874+90000000000+90000000000+90000000000+90312500000+90312500000+90312500000
3842+90312500000+90000000000+90000000000+90000000000+90000000000+90000000000
3811+90312500000+90312500000+90000000000+90000000000+90000000000+90000000000
3779+90000000000+89687500000+89687500000+89687500000+89687500000+89687500000
3747+89375000000+89062500000+89062500000+88750000000+88750000000+88750000000
3716+88750000000+88437500000+88125000000+88125000000+87812500000+87812500000
3684+87500000000+87187500000+86875000000+86875000000+86562500000+86250000000
3653+86250000000+85937500000+85937500000+85937500000+85937500000+85937500000
3621+85937500000+85937500000+85937500000+85937500000+85937500000+86250000000
3589+86250000000+86250000000+86562500000+86562500000+86250000000+86250000000
3558+86250000000+86562500000+86562500000+86875000000+86875000000+87187500000
3526+87187500000+87187500000+87187500000+87500000000+87500000000+87500000000
3495+87812500000+88437500000+88437500000+88437500000+88437500000+88437500000
3463+88437500000+88125000000+88125000000+87812500000+87812500000+87812500000
3432+87812500000+88125000000+88125000000+88125000000+88125000000+88437500000
3400+88437500000+88437500000+88437500000+88125000000+87812500000+87500000000
3368+86875000000+86250000000+84687500000+84062500000+83750000000+83125000000
3337+81250000000+79062500000+73437500000+61562500000+41874999999+35937500000
3305+36875000000+49687499999+42500000000+27187500000+9062500000+4687500000
3274+4687500000+10625000000+8750000000+6562500000+6562500000+8750000000
3242+15625000000+22187500000+27812500000+31875000000+18125000000+16250000000
3211+18125000000+18750000000+27812500000+40312499999+52812500000+62812500000
3179+71875000000+76562500000+79687500000+81562500000+83750000000+85000000000
3147+86250000000+87187500000+87500000000+88125000000+86875000000+85625000000
3116+85625000000+87812500000+88437500000+88750000000+89062500000+89062500000
3084+88750000000+88750000000+88750000000+89062500000+89062500000+89375000000
3053+90000000000+90625000000+90937500000+90625000000+90625000000+90625000000
3021+90625000000+90937500000+91250000000+91562500000+91562500000+91562500000
2989+91562500000+91875000000+91875000000+91875000000+92187500000+92187500000
2958+92812500000+92812500000+92812500000+93125000000+93125000000+93125000000
2926+93125000000+92812500000+92812500000+92812500000+92812500000+92812500000
2895+92812500000+92812500000+92812500000+92812500000+92812500000+92812500000
2863+92812500000+92812500000+93125000000+93125000000+93125000000+93125000000
2832+93125000000+93125000000+93125000000+93125000000+93437500000+93437500000
2800+93750000000+93750000000+93437500000+93437500000+93437500000+93437500000
2768+93437500000+93437500000+93437500000+93437500000+93750000000+93750000000
2737+93750000000+93750000000+93750000000+93750000000+94062500000+94062500000
2705+94062500000+94375000000+94375000000+94375000000+94375000000+94375000000
2674+94375000000+94375000000+94062500000+94062500000+94062500000+94062500000
2642+94062500000+94062500000+94062500000+94062500000+94062500000+94375000000
2611+94375000000+94375000000+94375000000+94375000000+94375000000+94375000000
2579+94375000000+94375000000+94375000000+94375000000+94375000000+94687500000
2547+94687500000+94687500000+94687500000+94687500000+94687500000+94687500000
2516+94687500000+95000000000+95000000000+94687500000+94687500000+94687500000
2484+94687500000+94687500000+94687500000+94687500000+94687500000+94687500000
2453+94687500000+94687500000+94687500000+94687500000+94687500000+94687500000
2421+94375000000+94375000000+94375000000+94375000000+94375000000+94375000000
2389+94375000000+94375000000+94375000000+94375000000+94375000000+94375000000
2358+94687500000+94687500000+94687500000+94687500000+94687500000+94687500000
2326+94687500000+94375000000+94375000000+94375000000+94375000000+94375000000
2295+94062500000+94062500000+93750000000+93437500000+93125000000+92812500000
2263+92500000000+91875000000+91875000000+91562500000+90937500000+90625000000
2232+90625000000+90312500000+90312500000+90312500000+90000000000+90000000000
2200+90000000000+90000000000+90000000000+90000000000+90000000000+90000000000
2168+90000000000+90000000000+90000000000+90000000000+89687500000+88437500000
2137+85625000000+85312500000+86875000000+89062500000+90625000000+91562500000
2105+91562500000+91562500000+91562500000+92187500000+92812500000+93437500000
2074+93750000000+93750000000+94062500000+94062500000+94062500000+94062500000
2042+94062500000+94062500000+94062500000+94062500000+94062500000+93750000000
2011+93750000000+93750000000+93750000000+93437500000+93437500000+93437500000
1979+93125000000+92812500000+92812500000+92500000000+92187500000+92187500000
1947+91875000000+91875000000+91562500000+90937500000+90312500000+89062500000
1916+88125000000+87812500000+86875000000+84687500000+81875000000+77500000000
1884+69687500000+55937500000+41250000000+40937500000+43437499999+43437499999
1853+45312500000+53750000000+60312500000+65625000000+67500000000+69687500000
1821+75000000000+79687500000+82187500000+83437500000+84062500000+83125000000
1789+79375000000+77812500000+80312500000+83437500000+82500000000+79687500000
1758+72500000000+58750000000+57187500000+69375000000+81562500000+84062500000
1726+84687500000+85625000000+86875000000+86875000000+85937500000+84062500000
1695+82187500000+82500000000+86250000000+87812500000+87500000000+87187500000
1663+86562500000+86562500000+86562500000+86562500000+86562500000+86562500000
1632+87812500000+88437500000+88750000000+88437500000+87812500000+86250000000
1600+85000000000+85625000000+86562500000+87187500000+87187500000+86875000000
1568+86875000000+86875000000+87187500000+88125000000+89062500000+89375000000
1537+89375000000+90000000000+90312500000+90312500000+90000000000+90000000000
1505+90000000000+90000000000+90312500000+90937500000+91875000000+92187500000
1474+92500000000+92500000000+92812500000+92812500000+92500000000+91875000000
1442+90937500000+90312500000+89375000000+88750000000+88750000000+88437500000
1411+88750000000+88750000000+88437500000+88125000000+87500000000+87187500000
1379+86562500000+84687500000+84062500000+84062500000+84375000000+84687500000
1347+85000000000+85312500000+85000000000+84375000000+82500000000+82500000000
1316+83750000000+84687500000+85937500000+85937500000+86250000000+86562500000
1284+87187500000+87187500000+86875000000+86562500000+86250000000+86250000000
1253+86250000000+86250000000+86250000000+86875000000+87500000000+88125000000
1221+88750000000+89687500000+90000000000+89375000000+88125000000+85937500000
1189+83437500000+80937500000+80937500000+83750000000+87500000000+89375000000
1158+90000000000+90312500000+90625000000+90625000000+90000000000+89687500000
1126+89375000000+89375000000+89062500000+89687500000+90000000000+90312500000
1095+89687500000+89062500000+86875000000+82187500000+81562500000+83125000000
1063+85625000000+84375000000+81562500000+80937500000+81875000000+84062500000
1032+85000000000+85000000000+85000000000+86562500000+89375000000+90625000000
1000+91562500000+91875000000+91250000000+90937500000+90625000000+90625000000
968+90625000000+90312500000+90312500000+90000000000+90000000000+90000000000
937+90000000000+90312500000+90312500000+90000000000+88437500000+86875000000
905+86875000000+86875000000+86562500000+84375000000+81875000000+78750000000
874+77187500000+77187500000+78437500000+78437500000+75625000000+73125000000
842+70312500000+69062500000+68437500000+68437500000+68750000000+69687500000
811+70937500000+72187500000+73750000000+75000000000+76250000000+78437500000
779+80625000000+82187500000+83750000000+85000000000+86250000000+87500000000
747+88750000000+90312500000+90937500000+91562500000+91875000000+92187500000
716+92187500000+92500000000+92500000000+92500000000+92812500000+92500000000
684+92187500000+91875000000+90937500000+90625000000+90000000000+89687500000
653+89375000000+89375000000+89687500000+90000000000+90625000000+91250000000
621+91875000000+92812500000+93437500000+94062500000+94375000000+94687500000
589+94687500000+94687500000+94062500000+93750000000+93125000000+92812500000
558+92187500000+91875000000+91562500000+91250000000+90937500000+90625000000
526+90312500000+90312500000+90000000000+90000000000+90000000000+90000000000
495+90000000000+90312500000+90625000000+90937500000+90937500000+90312500000
463+89375000000+88125000000+86250000000+84375000000+83125000000+81562500000
432+80312500000+79375000000+78750000000+78437500000+78125000000+77812500000
400+77812500000
##END=
