##TITLE=cis-1,3-pentadiene
##JCAMP-DX=4.24
##DATA TYPE=INFRARED SPECTRUM
##DATE=10/06/2025
##SAMPLING PROCEDURE=ATR
##ORIGIN=SDBS
##XUNITS=1/CM
##YUNITS=TRANSMITTANCE
##RESOLUTION=5.2631578947368425
##FIRSTX=4000.0
##LASTX=400.0
##DELTAX=-5.2631578947368425
##MAXY=94.6875
##MINY=0.0
##XFACTOR=1
##YFACTOR=1
##NPOINTS=685
##FIRSTY=0.0
##XYDATA=(X++(Y..Y))
4000+0+88125000000+87500000000+86875000000+86562500000+86562500000
3968+86562500000+86875000000+87187500000+87187500000+87187500000+87187500000
3937+86875000000+86875000000+86875000000+86875000000+86875000000+87187500000
3905+87812500000+87812500000+87812500000+87812500000+87812500000+87812500000
3874+87812500000+87812500000+88125000000+88125000000+88437500000+88437500000
3842+88125000000+87812500000+87812500000+87812500000+87812500000+88125000000
3811+88125000000+87812500000+87812500000+87812500000+87812500000+87812500000
3779+87812500000+87812500000+88125000000+88125000000+87812500000+87500000000
3747+87187500000+86562500000+86562500000+86562500000+86875000000+87187500000
3716+87187500000+87187500000+86875000000+86875000000+87187500000+87500000000
3684+87500000000+87500000000+87500000000+87500000000+87812500000+87812500000
3653+87500000000+87500000000+87187500000+87187500000+87187500000+87187500000
3621+87187500000+87187500000+87187500000+87187500000+87187500000+86875000000
3589+86875000000+86875000000+86875000000+86875000000+86875000000+86875000000
3558+87187500000+87187500000+87500000000+87500000000+87187500000+86562500000
3526+85625000000+85312500000+85312500000+85312500000+85625000000+86250000000
3495+86562500000+87187500000+86875000000+86250000000+85625000000+85312500000
3463+85312500000+85312500000+85312500000+85312500000+85000000000+85000000000
3432+85312500000+85312500000+85000000000+84687500000+83750000000+83125000000
3400+82187500000+80625000000+79062500000+74687500000+66875000000+52187500000
3368+27187500000+26562500000+38437500000+52500000000+47812500000+39687500000
3337+37500000000+24687500000+14375000000+11250000000+12812500000+23125000000
3305+33125000000+28750000000+32812500000+32500000000+28437500000+29375000000
3274+34375000000+31875000000+27187500000+24687500000+19687500000+19375000000
3242+27187500000+40312499999+46250000000+47500000000+47812500000+40625000000
3211+38749999999+40000000000+52812500000+64062500000+70937500000+75937500000
3179+80000000000+81562500000+83125000000+84062500000+84375000000+85312500000
3147+86875000000+86875000000+86875000000+87187500000+87187500000+84687500000
3116+84687500000+86562500000+88125000000+89062500000+89687500000+90312500000
3084+90625000000+90937500000+91250000000+91250000000+91250000000+91250000000
3053+91250000000+90937500000+90937500000+90625000000+90000000000+90000000000
3021+90312500000+90625000000+90937500000+91562500000+91562500000+91250000000
2989+90625000000+90312500000+90312500000+90625000000+90937500000+90937500000
2958+90937500000+91250000000+91250000000+91250000000+90937500000+91250000000
2926+91250000000+91875000000+92187500000+92187500000+91875000000+91562500000
2895+91562500000+91562500000+91562500000+91562500000+91875000000+92187500000
2863+92187500000+92187500000+92187500000+92187500000+92187500000+92187500000
2832+92500000000+92812500000+93125000000+93125000000+93125000000+93125000000
2800+93125000000+93125000000+93125000000+93437500000+93437500000+93750000000
2768+93750000000+93750000000+93750000000+94062500000+94375000000+94375000000
2737+94375000000+94375000000+94375000000+94375000000+94375000000+94375000000
2705+94375000000+94375000000+94375000000+94375000000+94687500000+94687500000
2674+94687500000+94687500000+94687500000+94687500000+94375000000+94375000000
2642+94062500000+93750000000+93437500000+93437500000+93125000000+91875000000
2611+90937500000+89687500000+87187500000+86250000000+86250000000+87812500000
2579+89687500000+90937500000+91562500000+91562500000+90937500000+90625000000
2547+90000000000+90000000000+90312500000+90937500000+91875000000+92500000000
2516+93125000000+93437500000+93125000000+93125000000+92812500000+92500000000
2484+92500000000+92500000000+92812500000+93125000000+93437500000+93750000000
2453+94062500000+94062500000+94062500000+93750000000+93125000000+92187500000
2421+91562500000+91250000000+90937500000+90625000000+89375000000+88125000000
2389+86562500000+85312500000+83125000000+80000000000+75937500000+70937500000
2358+65937500000+63437500000+62812500000+63125000000+66250000000+70312500000
2326+76250000000+80625000000+83437500000+84062500000+81562500000+77500000000
2295+75625000000+75625000000+78125000000+83125000000+87187500000+89375000000
2263+90625000000+91250000000+90625000000+89375000000+87187500000+85312500000
2232+85312500000+86875000000+89062500000+90937500000+91562500000+91875000000
2200+91875000000+91562500000+91250000000+90625000000+90000000000+89062500000
2168+88437500000+87812500000+86875000000+85312500000+81875000000+77187500000
2137+71562500000+63125000000+52187500000+49062500000+50312500000+62812500000
2105+73437500000+79062500000+82500000000+83750000000+84375000000+84062500000
2074+82500000000+78750000000+71875000000+54375000000+26250000000+26562500000
2042+55000000000+68750000000+72812500000+72812500000+75312500000+79687500000
2011+82812500000+84375000000+86250000000+86250000000+85625000000+85312500000
1979+85000000000+84375000000+83750000000+82187500000+81562500000+81250000000
1947+81562500000+81562500000+81562500000+81562500000+81562500000+81562500000
1916+81562500000+81250000000+80937500000+80312500000+79062500000+77187500000
1884+75312500000+72500000000+67500000000+61562500000+54062500000+48437500000
1853+44062500000+42500000000+40000000000+34687500000+18125000000+13437500000
1821+16875000000+32812500000+46562499999+55937500000+62500000000+66562500000
1789+68125000000+67812500000+66250000000+64062500000+59687500000+53750000000
1758+50312500000+50937500000+57812500000+65312500000+70000000000+72812500000
1726+67812500000+66250000000+68750000000+76875000000+80625000000+82812500000
1695+84687500000+86250000000+87187500000+88125000000+88437500000+89062500000
1663+89375000000+88437500000+87187500000+85625000000+81875000000+75625000000
1632+75312500000+80937500000+85625000000+87812500000+88750000000+89375000000
1600+89062500000+87812500000+85937500000+83125000000+75937500000+68125000000
1568+68125000000+77812500000+85000000000+88750000000+91250000000+92187500000
1537+92812500000+93125000000+93437500000+93750000000+94062500000+94062500000
1505+94375000000+94687500000+94687500000+94687500000+94375000000+93750000000
1474+92812500000+91562500000+89375000000+86562500000+85000000000+85937500000
1442+88437500000+89687500000+90312500000+90625000000+90312500000+89687500000
1411+88750000000+88750000000+88750000000+89062500000+90000000000+90937500000
1379+91562500000+92187500000+92187500000+92187500000+92187500000+91562500000
1347+90937500000+90312500000+89687500000+89062500000+88125000000+87187500000
1316+86562500000+85625000000+84062500000+82500000000+81250000000+80625000000
1284+79687500000+76562500000+73437500000+72500000000+72500000000+73125000000
1253+71562500000+66875000000+59375000000+45937500000+30625000000+16250000000
1221+13750000000+15625000000+28437500000+43125000000+55000000000+61250000000
1189+58125000000+54062500000+53437500000+45937500000+31250000000+28125000000
1158+32500000000+50000000000+60625000000+64687500000+66250000000+63437500000
1126+59375000000+51875000000+41562500000+27187500000+15625000000+7812500000
1095+4687500000+4687500000+5937500000+11875000000+24062500000+36562500000
1063+43125000000+54687500000+65625000000+71562500000+76250000000+79375000000
1032+82187500000+83750000000+84687500000+85312500000+85937500000+87500000000
1000+89375000000+90625000000+90937500000+91250000000+91250000000+91250000000
968+90937500000+90625000000+90312500000+89375000000+88125000000+85937500000
937+81562500000+74062500000+61875000000+44375000000+27812500000+26875000000
905+33125000000+50312500000+64062500000+72812500000+77812500000+80937500000
874+82812500000+85000000000+86562500000+87187500000+87812500000+88437500000
842+89375000000+90312500000+90625000000+91250000000+91562500000+91562500000
811+91562500000+91562500000+91562500000+91250000000+90937500000+90312500000
779+89687500000+89062500000+88125000000+85625000000+83125000000+81875000000
747+80312500000+78125000000+71875000000+64687500000+54375000000+41874999999
716+25312500000+14062500000+9062500000+8750000000+10937500000+17187500000
684+24687500000+41562500000+53437500000+64375000000+72187500000+79375000000
653+82500000000+84375000000+85312500000+86250000000+87500000000+88437500000
621+89375000000+90625000000+91562500000+92812500000+93437500000+94375000000
589+94687500000+94687500000+94375000000+94062500000+93750000000+93750000000
558+93437500000+93437500000+93437500000+93437500000+92812500000+91875000000
526+91250000000+90937500000+90937500000+90625000000+90937500000+90937500000
495+90937500000+91250000000+91875000000+92500000000+92812500000+91250000000
463+89062500000+85625000000+81875000000+78750000000+76562500000+74687500000
432+72812500000+70937500000+69375000000+67187500000+65625000000+64375000000
400+64062500000
##END=
