##TITLE=cis-4-methylcyclohexanol
##JCAMP-DX=4.24
##DATA TYPE=INFRARED SPECTRUM
##DATE=10/06/2025
##SAMPLING PROCEDURE=ATR
##ORIGIN=SDBS
##XUNITS=1/CM
##YUNITS=TRANSMITTANCE
##RESOLUTION=5.2631578947368425
##FIRSTX=4000.0
##LASTX=400.0
##DELTAX=-5.2631578947368425
##MAXY=95.0
##MINY=0.0
##XFACTOR=1
##YFACTOR=1
##NPOINTS=685
##FIRSTY=0.0
##XYDATA=(X++(Y..Y))
4000+0+92812500000+92812500000+92812500000+93125000000+93125000000
3968+93125000000+93437500000+93437500000+93437500000+93750000000+93437500000
3937+93437500000+93125000000+92812500000+92812500000+92812500000+92812500000
3905+92500000000+92500000000+92500000000+92500000000+92812500000+92812500000
3874+93125000000+93125000000+93125000000+93437500000+93437500000+93437500000
3842+93437500000+93750000000+93750000000+94062500000+93750000000+93750000000
3811+93437500000+93125000000+93125000000+92812500000+92812500000+92500000000
3779+92500000000+92500000000+92812500000+92500000000+91875000000+90625000000
3747+88125000000+84375000000+81875000000+82187500000+83437500000+85000000000
3716+84062500000+82500000000+80000000000+77500000000+74375000000+71250000000
3684+67500000000+63437500000+59062500000+55312500000+50937500000+46875000000
3653+42812500000+40000000000+36250000000+33125000000+30312500000+28125000000
3621+25625000000+23750000000+21875000000+20625000000+19375000000+18125000000
3589+17187500000+16562500000+15937500000+15312500000+14687500000+14375000000
3558+14062500000+14062500000+14062500000+14062500000+14062500000+14375000000
3526+14687500000+15312500000+15625000000+16562500000+17187500000+18125000000
3495+19062500000+20625000000+21875000000+23437500000+25000000000+26562500000
3463+28750000000+30937500000+32812500000+35625000000+37812500000+40625000000
3432+42812500000+45625000000+48437500000+50937500000+52812500000+55625000000
3400+58125000000+60625000000+62500000000+65000000000+66875000000+69062500000
3368+70312500000+71875000000+73125000000+74375000000+75312500000+75937500000
3337+76562500000+76875000000+76875000000+75937500000+74687500000+72500000000
3305+68750000000+63125000000+52812500000+39062500000+21562500000+13125000000
3274+8125000000+7812500000+6875000000+5000000000+4687500000+5000000000
3242+7500000000+10625000000+13750000000+14375000000+14062500000+12187500000
3211+12500000000+10937500000+11250000000+19687500000+34062500000+44062500000
3179+50937500000+56562500000+59687500000+61875000000+66562500000+68750000000
3147+70937500000+72187500000+72812500000+73125000000+73125000000+73125000000
3116+69687500000+68750000000+69687500000+69375000000+68437500000+68437500000
3084+68437500000+68437500000+68437500000+68437500000+70312500000+72187500000
3053+73437500000+75625000000+77812500000+79375000000+79687500000+79687500000
3021+80000000000+81250000000+82187500000+82500000000+82500000000+82500000000
2989+83125000000+84375000000+85312500000+86250000000+86250000000+86250000000
2958+86875000000+87500000000+88437500000+88750000000+89062500000+89062500000
2926+89062500000+88750000000+88750000000+88437500000+88437500000+88437500000
2895+88750000000+89062500000+89375000000+90000000000+90312500000+90625000000
2863+90937500000+90937500000+90937500000+91250000000+91250000000+91562500000
2832+91562500000+91875000000+91875000000+91875000000+91562500000+91562500000
2800+91562500000+91875000000+92187500000+92187500000+92187500000+92187500000
2768+92500000000+92500000000+92812500000+93125000000+93125000000+93125000000
2737+93125000000+93125000000+93125000000+93125000000+93125000000+93125000000
2705+93125000000+93125000000+93125000000+93437500000+93437500000+93750000000
2674+93750000000+93750000000+93437500000+93437500000+93750000000+94062500000
2642+94375000000+94375000000+94375000000+94375000000+94375000000+94687500000
2611+94687500000+94687500000+94687500000+94375000000+94375000000+94062500000
2579+94062500000+93750000000+93750000000+93750000000+93750000000+94062500000
2547+94062500000+94062500000+94375000000+94375000000+94375000000+94062500000
2516+94062500000+93750000000+93437500000+93125000000+92812500000+92812500000
2484+93125000000+93437500000+93750000000+94062500000+94375000000+94375000000
2453+94375000000+94687500000+94687500000+95000000000+94687500000+94375000000
2421+93750000000+93437500000+93437500000+93437500000+93437500000+93750000000
2389+94062500000+94062500000+94375000000+94375000000+94375000000+94375000000
2358+94375000000+94375000000+94375000000+94375000000+94375000000+94375000000
2326+94375000000+94375000000+94375000000+94375000000+94375000000+94375000000
2295+94375000000+94375000000+94375000000+94687500000+94687500000+94687500000
2263+94687500000+94687500000+94687500000+94687500000+94687500000+94687500000
2232+94687500000+94687500000+94687500000+94687500000+94375000000+94375000000
2200+94375000000+94375000000+94062500000+94062500000+94062500000+93750000000
2168+93750000000+93437500000+93437500000+93437500000+93437500000+93437500000
2137+93437500000+93437500000+93437500000+93437500000+93437500000+93437500000
2105+93437500000+93125000000+93125000000+93125000000+92812500000+92812500000
2074+92812500000+92812500000+92812500000+92812500000+92812500000+92812500000
2042+92812500000+92812500000+92812500000+92812500000+92812500000+92812500000
2011+92812500000+92500000000+92500000000+92187500000+91875000000+91875000000
1979+91562500000+91250000000+90937500000+90312500000+90000000000+89375000000
1947+88125000000+87187500000+86562500000+85937500000+85000000000+84375000000
1916+83437500000+81562500000+79687500000+76562500000+73437500000+67187500000
1884+59062500000+50625000000+43750000000+35625000000+29375000000+25312500000
1853+25312500000+30937500000+30000000000+28125000000+28437500000+35625000000
1821+40312499999+44375000000+46875000000+48750000000+50312500000+52187500000
1789+54687500000+58437500000+61562500000+63125000000+64062500000+63750000000
1758+55312500000+41250000000+32812500000+33125000000+32500000000+33125000000
1726+43750000000+55312500000+61250000000+63437500000+59375000000+56250000000
1695+46562499999+40312499999+40312499999+46875000000+56562500000+60625000000
1663+55937500000+49062500000+46562499999+47187500000+53750000000+50000000000
1632+48124999999+47812500000+48124999999+49375000000+51562500000+55000000000
1600+58437500000+55000000000+38437500000+35312500000+35625000000+42500000000
1568+50937500000+55000000000+49062500000+49062500000+55000000000+58437500000
1537+60000000000+63750000000+68125000000+72187500000+74687500000+75000000000
1505+77187500000+80625000000+82187500000+83125000000+82812500000+81562500000
1474+79375000000+78125000000+78125000000+76562500000+75625000000+76562500000
1442+71875000000+60000000000+38437500000+27812500000+27812500000+32187500000
1411+42812500000+56875000000+68750000000+74687500000+79375000000+82187500000
1379+83437500000+78750000000+72812500000+74375000000+73750000000+64062500000
1347+56875000000+46562499999+37187499999+34375000000+34375000000+37500000000
1316+49062500000+60937500000+70937500000+70312500000+55312500000+36250000000
1284+37187499999+38437500000+22500000000+22500000000+42812500000+68437500000
1253+79375000000+83125000000+82500000000+79375000000+74062500000+60000000000
1221+35312500000+18125000000+12500000000+12187500000+16250000000+32812500000
1189+39687500000+39062500000+49687499999+50937500000+51562500000+68437500000
1158+69375000000+76250000000+83437500000+77500000000+60625000000+34062500000
1126+26875000000+26875000000+41250000000+66250000000+81562500000+87812500000
1095+91250000000+93125000000+93750000000+94062500000+93437500000+91875000000
1063+87812500000+75312500000+63125000000+62812500000+84375000000+92187500000
1032+94062500000+94687500000+94375000000+93750000000+93125000000+92500000000
1000+91250000000+89375000000+85937500000+76250000000+71875000000+71875000000
968+73437500000+77187500000+82187500000+85625000000+85937500000+84375000000
937+78437500000+69375000000+70000000000+82500000000+83437500000+82812500000
905+81250000000+75937500000+75937500000+80312500000+80937500000+80000000000
874+79062500000+78125000000+77187500000+76562500000+75625000000+75000000000
842+74062500000+73125000000+72187500000+70937500000+70000000000+69062500000
811+68437500000+67500000000+66250000000+64375000000+63125000000+64062500000
779+68750000000+69687500000+69062500000+68125000000+67812500000+67187500000
747+65937500000+63750000000+56562500000+53750000000+58125000000+66562500000
716+67500000000+68125000000+68125000000+68437500000+68750000000+69062500000
684+69375000000+69687500000+70312500000+70937500000+71562500000+72500000000
653+73125000000+74062500000+74687500000+75625000000+76562500000+77500000000
621+78437500000+79375000000+80312500000+80937500000+81875000000+82500000000
589+83125000000+84062500000+84687500000+85312500000+85937500000+86875000000
558+87187500000+87187500000+86250000000+84375000000+80937500000+79062500000
526+77187500000+76875000000+76875000000+78437500000+81562500000+83437500000
495+85937500000+88437500000+90625000000+92187500000+93437500000+94375000000
463+94687500000+94375000000+93750000000+93125000000+92500000000+91875000000
432+90937500000+89687500000+88750000000+87500000000+86250000000+85625000000
400+85625000000
##END=
