##TITLE=cis-2-heptene
##JCAMP-DX=4.24
##DATA TYPE=INFRARED SPECTRUM
##DATE=10/06/2025
##SAMPLING PROCEDURE=ATR
##ORIGIN=SDBS
##XUNITS=1/CM
##YUNITS=TRANSMITTANCE
##RESOLUTION=5.2631578947368425
##FIRSTX=4000.0
##LASTX=400.0
##DELTAX=-5.2631578947368425
##MAXY=95.0
##MINY=0.0
##XFACTOR=1
##YFACTOR=1
##NPOINTS=685
##FIRSTY=0.0
##XYDATA=(X++(Y..Y))
4000+0+90625000000+90625000000+90312500000+90312500000+90312500000
3968+90312500000+90312500000+90312500000+90625000000+90625000000+90937500000
3937+91250000000+90937500000+90625000000+90312500000+90312500000+90000000000
3905+90312500000+90625000000+90625000000+90625000000+90312500000+90000000000
3874+90000000000+90000000000+90000000000+90312500000+90625000000+90312500000
3842+90312500000+90000000000+90000000000+90000000000+90312500000+90312500000
3811+90625000000+90312500000+90000000000+89687500000+89375000000+89375000000
3779+89687500000+89687500000+89687500000+89687500000+89375000000+89375000000
3747+89062500000+89062500000+89062500000+89062500000+89062500000+89062500000
3716+89062500000+89062500000+89062500000+88750000000+88437500000+88437500000
3684+88125000000+87812500000+87187500000+86875000000+86562500000+86250000000
3653+86250000000+86250000000+86250000000+86250000000+85937500000+85937500000
3621+85937500000+85937500000+85937500000+85937500000+86250000000+86250000000
3589+86562500000+86562500000+86562500000+86562500000+86250000000+85937500000
3558+85937500000+85937500000+86250000000+86250000000+86562500000+86562500000
3526+86562500000+86562500000+86562500000+86562500000+86562500000+86562500000
3495+86875000000+86875000000+86875000000+86875000000+86875000000+86875000000
3463+86562500000+86562500000+86562500000+86562500000+86562500000+86562500000
3432+86562500000+86562500000+86562500000+86562500000+86562500000+86875000000
3400+86562500000+86250000000+85937500000+85625000000+85000000000+84687500000
3368+83437500000+81875000000+79375000000+79062500000+78437500000+75937500000
3337+70937500000+63750000000+51250000000+30312500000+23125000000+27812500000
3305+45312500000+47500000000+36250000000+25000000000+9062500000+5312500000
3274+5312500000+10625000000+6562500000+4687500000+4687500000+5937500000
3242+11250000000+19375000000+25625000000+30312500000+18125000000+17500000000
3211+15625000000+15625000000+24062500000+41562500000+55937500000+65625000000
3179+72812500000+76875000000+79687500000+81250000000+83750000000+84687500000
3147+85625000000+86250000000+86875000000+86562500000+86250000000+86250000000
3116+86250000000+86875000000+87500000000+88437500000+88750000000+88750000000
3084+88750000000+88750000000+88750000000+88750000000+89062500000+89375000000
3053+89687500000+90312500000+90625000000+90625000000+90625000000+90625000000
3021+90625000000+90937500000+90937500000+91250000000+91562500000+91562500000
2989+91875000000+91875000000+91875000000+91875000000+91875000000+91875000000
2958+91875000000+92187500000+92187500000+92500000000+92500000000+92187500000
2926+92187500000+92187500000+92187500000+92187500000+92187500000+92187500000
2895+92187500000+92187500000+92187500000+92187500000+92187500000+92187500000
2863+92187500000+92187500000+92187500000+92187500000+92187500000+92187500000
2832+92187500000+92500000000+92500000000+92812500000+93125000000+93125000000
2800+93125000000+93437500000+93437500000+93437500000+93437500000+93437500000
2768+93437500000+93437500000+93750000000+93750000000+93750000000+94062500000
2737+93750000000+93750000000+93750000000+93750000000+93750000000+93750000000
2705+94062500000+94062500000+94062500000+94062500000+94062500000+93750000000
2674+93750000000+93437500000+93437500000+93437500000+93750000000+93750000000
2642+93750000000+93750000000+93437500000+93125000000+92812500000+92500000000
2611+92500000000+92500000000+92812500000+92812500000+93125000000+93125000000
2579+93437500000+93437500000+93437500000+93750000000+93750000000+93750000000
2547+93750000000+93750000000+93750000000+94062500000+94062500000+94062500000
2516+94062500000+94062500000+94062500000+94062500000+94062500000+94062500000
2484+94375000000+94375000000+94375000000+94375000000+94375000000+94375000000
2453+94375000000+94375000000+94375000000+94375000000+94375000000+94375000000
2421+94375000000+94375000000+94375000000+94375000000+94375000000+94375000000
2389+94375000000+94687500000+94687500000+94687500000+94687500000+94687500000
2358+95000000000+95000000000+94687500000+94687500000+94687500000+94687500000
2326+94687500000+94375000000+94375000000+94375000000+94375000000+94375000000
2295+94375000000+94375000000+94375000000+94062500000+94062500000+94062500000
2263+94062500000+93750000000+93750000000+93437500000+93437500000+93125000000
2232+92812500000+92812500000+92500000000+92500000000+92500000000+92187500000
2200+92187500000+92187500000+91875000000+91562500000+90937500000+90312500000
2168+89687500000+88750000000+87812500000+86250000000+83750000000+77187500000
2137+74687500000+76562500000+83125000000+86250000000+88437500000+89375000000
2105+90000000000+90312500000+90937500000+91250000000+91562500000+91875000000
2074+92187500000+92187500000+92500000000+92500000000+92812500000+92812500000
2042+92812500000+92812500000+92812500000+92500000000+92187500000+91875000000
2011+91562500000+91250000000+90937500000+90937500000+90625000000+90625000000
1979+90312500000+90000000000+89687500000+89687500000+89687500000+89687500000
1947+89375000000+89062500000+88750000000+88125000000+87187500000+86562500000
1916+86250000000+85000000000+83750000000+80937500000+78437500000+73750000000
1884+66250000000+53437500000+42500000000+42812500000+43125000000+42812500000
1853+43750000000+48437500000+52187500000+54687500000+55937500000+60625000000
1821+67187500000+72187500000+75000000000+77187500000+77187500000+73750000000
1789+64062500000+60625000000+65937500000+75937500000+77500000000+77500000000
1758+71875000000+61250000000+60312500000+68125000000+68437500000+70000000000
1726+75000000000+78750000000+81562500000+83437500000+83750000000+83750000000
1695+84375000000+86562500000+87812500000+88437500000+87187500000+85625000000
1663+85625000000+85937500000+86562500000+87812500000+86250000000+86250000000
1632+88125000000+89375000000+89687500000+90312500000+90625000000+91250000000
1600+91562500000+91250000000+91250000000+90625000000+90312500000+89687500000
1568+89375000000+89375000000+89687500000+90000000000+90625000000+91250000000
1537+91562500000+92187500000+91875000000+91562500000+91562500000+91250000000
1505+91250000000+91562500000+91875000000+92812500000+92187500000+85937500000
1474+85000000000+89687500000+90937500000+90937500000+90937500000+90625000000
1442+90000000000+87500000000+86875000000+87187500000+87500000000+87500000000
1411+87500000000+88125000000+88437500000+88750000000+88750000000+88437500000
1379+86562500000+84062500000+83437500000+83437500000+84687500000+85000000000
1347+86250000000+85937500000+86250000000+86250000000+86250000000+86250000000
1316+86250000000+86562500000+86875000000+86875000000+86875000000+86562500000
1284+85312500000+83125000000+81875000000+81250000000+80937500000+80937500000
1253+80937500000+80937500000+80937500000+81250000000+81562500000+82812500000
1221+84062500000+85312500000+85937500000+84375000000+82500000000+81250000000
1189+80625000000+80000000000+79687500000+79687500000+79687500000+80625000000
1158+82812500000+83437500000+81250000000+79687500000+79687500000+81562500000
1126+85000000000+86562500000+88125000000+88750000000+88750000000+88750000000
1095+89062500000+88750000000+88750000000+88750000000+89062500000+89062500000
1063+89375000000+89687500000+90625000000+91562500000+92187500000+92812500000
1032+93125000000+93437500000+93750000000+93750000000+94375000000+94375000000
1000+94687500000+94687500000+94062500000+92500000000+89687500000+86250000000
968+86250000000+87187500000+88437500000+89687500000+88750000000+89062500000
937+89687500000+89687500000+89687500000+89687500000+89687500000+89687500000
905+89375000000+89062500000+88125000000+85937500000+82187500000+79687500000
874+77187500000+76875000000+77187500000+77500000000+78125000000+78125000000
842+76562500000+73125000000+67187500000+59062500000+51250000000+45625000000
811+42500000000+42187500000+42812500000+46250000000+50625000000+55000000000
779+60312500000+62812500000+64375000000+66562500000+69687500000+70625000000
747+72500000000+77812500000+80312500000+82812500000+85000000000+86562500000
716+87500000000+88437500000+89062500000+89687500000+90312500000+90625000000
684+90937500000+90937500000+89375000000+88125000000+86250000000+85000000000
653+84062500000+83437500000+83437500000+84062500000+85625000000+87187500000
621+88437500000+89687500000+91250000000+92187500000+92812500000+93437500000
589+93750000000+93750000000+93437500000+92812500000+92187500000+91562500000
558+90625000000+90000000000+89062500000+88750000000+88125000000+87500000000
526+86562500000+85937500000+85000000000+84687500000+84375000000+84375000000
495+84375000000+84687500000+85312500000+85937500000+86562500000+87187500000
463+86875000000+85937500000+84062500000+81562500000+79062500000+75312500000
432+71875000000+68437500000+65937500000+63437500000+61250000000+60000000000
400+59062500000
##END=
