##TITLE=cyclohexane
##JCAMP-DX=4.24
##DATA TYPE=INFRARED SPECTRUM
##DATE=10/06/2025
##SAMPLING PROCEDURE=ATR
##ORIGIN=SDBS
##XUNITS=1/CM
##YUNITS=TRANSMITTANCE
##RESOLUTION=5.2631578947368425
##FIRSTX=4000.0
##LASTX=400.0
##DELTAX=-5.2631578947368425
##MAXY=95.0
##MINY=0.0
##XFACTOR=1
##YFACTOR=1
##NPOINTS=685
##FIRSTY=0.0
##XYDATA=(X++(Y..Y))
4000+0+94062500000+93750000000+93125000000+92812500000+92500000000
3968+92500000000+92500000000+92500000000+92812500000+93437500000+93437500000
3937+93750000000+93750000000+93750000000+93750000000+93750000000+93750000000
3905+93750000000+94062500000+94062500000+94062500000+94062500000+94062500000
3874+94062500000+93750000000+93750000000+93750000000+93750000000+93750000000
3842+93750000000+93750000000+93750000000+93750000000+93750000000+93750000000
3811+93437500000+93437500000+93437500000+93750000000+94062500000+94062500000
3779+94062500000+94375000000+94375000000+94375000000+94062500000+94062500000
3747+94062500000+94062500000+94375000000+94375000000+94687500000+94687500000
3716+94687500000+94687500000+94687500000+94687500000+94687500000+94687500000
3684+94687500000+94687500000+95000000000+95000000000+94687500000+94687500000
3653+94687500000+94687500000+94687500000+94687500000+94375000000+94062500000
3621+93750000000+93437500000+93437500000+93750000000+94062500000+94375000000
3589+94375000000+94687500000+94687500000+94375000000+94375000000+94375000000
3558+94375000000+94375000000+94062500000+94062500000+94062500000+94062500000
3526+94062500000+94062500000+94062500000+94062500000+94062500000+94062500000
3495+94062500000+94375000000+94375000000+94375000000+94375000000+94375000000
3463+94375000000+94375000000+94375000000+94375000000+94375000000+94375000000
3432+93750000000+93125000000+92187500000+92187500000+91875000000+92500000000
3400+93125000000+93750000000+93750000000+93750000000+93750000000+93437500000
3368+93437500000+93750000000+93750000000+93750000000+93750000000+93750000000
3337+93437500000+93125000000+92500000000+91562500000+90312500000+89687500000
3305+87812500000+85000000000+81562500000+77500000000+70625000000+59687500000
3274+40937500000+20625000000+7500000000+4687500000+4687500000+5937500000
3242+10625000000+15000000000+27812500000+42812500000+52187500000+46250000000
3211+27500000000+8750000000+8750000000+27812500000+57812500000+71250000000
3179+80000000000+82500000000+83125000000+76250000000+76562500000+85312500000
3147+87812500000+90625000000+92187500000+92812500000+93125000000+93437500000
3116+93125000000+92187500000+91875000000+89062500000+86875000000+85625000000
3084+88125000000+89687500000+77187500000+71875000000+80000000000+89687500000
3053+92500000000+93125000000+90625000000+87812500000+88125000000+88125000000
3021+90000000000+92187500000+93437500000+93750000000+93750000000+93750000000
2989+94062500000+94062500000+94062500000+94062500000+94062500000+94375000000
2958+94375000000+94375000000+93125000000+92812500000+93750000000+94375000000
2926+94687500000+94375000000+94375000000+94375000000+93750000000+93437500000
2895+93437500000+93437500000+93437500000+93437500000+93437500000+93437500000
2863+93437500000+93437500000+93437500000+93437500000+93437500000+93437500000
2832+93125000000+93125000000+93437500000+94062500000+94375000000+94375000000
2800+94375000000+94375000000+93437500000+93125000000+93125000000+93437500000
2768+93750000000+94062500000+94062500000+94062500000+94375000000+94062500000
2737+93125000000+93125000000+93437500000+94062500000+94062500000+93437500000
2705+93125000000+94062500000+94375000000+94687500000+94687500000+94687500000
2674+95000000000+95000000000+94687500000+94375000000+93750000000+94375000000
2642+94375000000+94687500000+94687500000+94687500000+94687500000+94687500000
2611+94375000000+94062500000+93437500000+93437500000+93750000000+94375000000
2579+94687500000+94687500000+94687500000+94687500000+95000000000+94687500000
2547+94687500000+94687500000+94687500000+94687500000+94687500000+94687500000
2516+94687500000+94687500000+94687500000+94687500000+94687500000+94687500000
2484+94687500000+94687500000+94687500000+94687500000+94687500000+94375000000
2453+94375000000+94375000000+94375000000+94375000000+94375000000+94375000000
2421+94375000000+94375000000+94375000000+94375000000+94375000000+94375000000
2389+94375000000+94375000000+94375000000+94375000000+94375000000+94687500000
2358+94687500000+94687500000+94687500000+94687500000+94687500000+94687500000
2326+94687500000+94375000000+94375000000+94375000000+94375000000+94375000000
2295+94375000000+94375000000+94687500000+94687500000+94687500000+94687500000
2263+94687500000+94687500000+94687500000+94687500000+94687500000+94687500000
2232+94687500000+94687500000+94687500000+94687500000+94687500000+94687500000
2200+94687500000+94375000000+94375000000+94375000000+94375000000+94375000000
2168+94375000000+94375000000+94375000000+94375000000+94375000000+94375000000
2137+94375000000+94375000000+94375000000+94375000000+94375000000+94375000000
2105+94375000000+94687500000+94687500000+94687500000+94687500000+94687500000
2074+94687500000+94687500000+94687500000+94687500000+94687500000+94687500000
2042+94687500000+94687500000+94687500000+94687500000+94687500000+94687500000
2011+94687500000+94375000000+94375000000+94375000000+94375000000+94062500000
1979+94062500000+94062500000+94062500000+94062500000+94062500000+93750000000
1947+93750000000+93437500000+93125000000+93125000000+92812500000+92500000000
1916+92187500000+91875000000+91250000000+90625000000+90000000000+89062500000
1884+87812500000+85937500000+82812500000+78125000000+68125000000+53125000000
1853+27812500000+26875000000+34687500000+57500000000+70625000000+78750000000
1821+83750000000+86250000000+87812500000+89062500000+90312500000+90937500000
1789+91562500000+91875000000+92187500000+92500000000+92500000000+92500000000
1758+92812500000+92812500000+92812500000+92812500000+92812500000+92812500000
1726+92500000000+92187500000+91562500000+91250000000+91250000000+91562500000
1695+91875000000+92187500000+92500000000+92500000000+92812500000+92812500000
1663+92812500000+93125000000+93125000000+93125000000+92812500000+92812500000
1632+92812500000+92500000000+92187500000+91875000000+91562500000+90937500000
1600+90000000000+88437500000+85625000000+80625000000+80312500000+85000000000
1568+89375000000+91250000000+92187500000+92812500000+93125000000+93437500000
1537+93750000000+93750000000+94062500000+94062500000+94062500000+94062500000
1505+94062500000+94062500000+94062500000+94062500000+94062500000+94062500000
1474+94062500000+94062500000+93750000000+93750000000+93750000000+93750000000
1442+93750000000+93750000000+93750000000+93750000000+93750000000+93750000000
1411+93750000000+93437500000+93437500000+93125000000+93125000000+93125000000
1379+93125000000+93125000000+93125000000+93125000000+93125000000+93125000000
1347+93437500000+93437500000+93437500000+93437500000+93437500000+93437500000
1316+93437500000+93125000000+93125000000+92812500000+92187500000+90000000000
1284+85937500000+85312500000+87187500000+89375000000+90625000000+90312500000
1253+89062500000+88437500000+88437500000+90000000000+91875000000+92812500000
1221+93125000000+93437500000+93750000000+94062500000+94062500000+94062500000
1189+94062500000+94062500000+94062500000+94062500000+94062500000+94062500000
1158+93750000000+93750000000+93750000000+93750000000+93750000000+93750000000
1126+93437500000+93437500000+92812500000+92187500000+90937500000+85625000000
1095+67187500000+66875000000+83125000000+90000000000+91875000000+92500000000
1063+92500000000+91875000000+90625000000+88125000000+82187500000+71875000000
1032+71562500000+78437500000+86875000000+90312500000+92187500000+93125000000
1000+93437500000+93750000000+94062500000+94375000000+94375000000+94375000000
968+94375000000+94687500000+94687500000+94375000000+94375000000+94375000000
937+94375000000+94375000000+94375000000+94375000000+94375000000+94687500000
905+94687500000+94687500000+94687500000+94687500000+94687500000+94687500000
874+94687500000+94687500000+94687500000+94687500000+94687500000+94687500000
842+94687500000+94687500000+94687500000+94687500000+94687500000+94687500000
811+94687500000+94687500000+94687500000+94687500000+94687500000+94687500000
779+94687500000+94687500000+94687500000+94687500000+94687500000+94687500000
747+94687500000+94687500000+94687500000+94687500000+94687500000+94687500000
716+94687500000+94687500000+94687500000+94687500000+94687500000+94687500000
684+94687500000+94687500000+94687500000+94687500000+94687500000+94687500000
653+94687500000+94687500000+94687500000+94687500000+94687500000+94687500000
621+94687500000+94687500000+94687500000+94687500000+95000000000+94687500000
589+94687500000+94062500000+93125000000+92187500000+89375000000+89375000000
558+92187500000+92500000000+93750000000+94062500000+94375000000+94687500000
526+94375000000+94375000000+94375000000+94375000000+94375000000+94375000000
495+94062500000+94062500000+94062500000+94062500000+94062500000+94062500000
463+94375000000+94375000000+94375000000+94375000000+94375000000+94375000000
432+94375000000+94375000000+94062500000+93437500000+93125000000+92812500000
400+92812500000
##END=
