##TITLE=D-(+)-raffinose
##JCAMP-DX=4.24
##DATA TYPE=INFRARED SPECTRUM
##DATE=10/06/2025
##SAMPLING PROCEDURE=ATR
##ORIGIN=SDBS
##XUNITS=1/CM
##YUNITS=TRANSMITTANCE
##RESOLUTION=5.2631578947368425
##FIRSTX=4000.0
##LASTX=400.0
##DELTAX=-5.2631578947368425
##MAXY=94.6875
##MINY=0.0
##XFACTOR=1
##YFACTOR=1
##NPOINTS=685
##FIRSTY=0.0
##XYDATA=(X++(Y..Y))
4000+0+90625000000+90625000000+90625000000+90625000000+90937500000
3968+90937500000+90937500000+90937500000+90937500000+90937500000+90937500000
3937+90937500000+90937500000+90937500000+90937500000+90937500000+90625000000
3905+90625000000+90625000000+90625000000+90625000000+90625000000+90625000000
3874+90312500000+90312500000+90312500000+90312500000+90312500000+90312500000
3842+90312500000+90312500000+90000000000+90000000000+89687500000+89687500000
3811+89375000000+89062500000+89062500000+88750000000+88437500000+88125000000
3779+87500000000+86875000000+85937500000+84687500000+83437500000+82187500000
3747+80625000000+78750000000+76875000000+74687500000+73125000000+70625000000
3716+67812500000+65000000000+62187500000+58750000000+54687500000+50937500000
3684+46875000000+43437499999+42187500000+41874999999+41250000000+39687500000
3653+37500000000+37187499999+37812500000+39687500000+39687500000+38749999999
3621+37812500000+37187499999+36562500000+36250000000+35937500000+35625000000
3589+35312500000+35000000000+34375000000+34062500000+33437500000+33125000000
3558+32812500000+32500000000+32187500000+31562500000+30937500000+30312500000
3526+29687500000+29062500000+28750000000+28750000000+29062500000+29375000000
3495+29375000000+29687500000+29687500000+29375000000+29062500000+28750000000
3463+28750000000+28437500000+28750000000+29062500000+29375000000+30312500000
3432+30937500000+32187500000+33437500000+34687500000+35625000000+37187499999
3400+39062500000+40312499999+41562500000+43125000000+44375000000+45937500000
3368+47187500000+48437500000+49687499999+50937500000+51875000000+53125000000
3337+54062500000+55000000000+55625000000+56250000000+55937500000+55000000000
3305+51250000000+46875000000+38749999999+31250000000+19062500000+11562500000
3274+11250000000+11875000000+5625000000+4687500000+4687500000+5312500000
3242+8125000000+12187500000+17500000000+20312500000+25312500000+23125000000
3211+20000000000+15625000000+16250000000+29375000000+48750000000+59375000000
3179+64687500000+67500000000+69375000000+70312500000+71250000000+72500000000
3147+73437500000+74062500000+74375000000+74375000000+74687500000+74687500000
3116+75000000000+75312500000+75937500000+76250000000+75937500000+75937500000
3084+76250000000+76250000000+76562500000+76875000000+77500000000+78125000000
3053+78437500000+78750000000+79062500000+79375000000+80000000000+80625000000
3021+80937500000+81562500000+81875000000+82187500000+82500000000+82812500000
2989+83125000000+83437500000+83750000000+83750000000+83750000000+84062500000
2958+84375000000+84687500000+85000000000+85312500000+85312500000+85625000000
2926+85625000000+85937500000+85937500000+86250000000+86562500000+86562500000
2895+86562500000+86875000000+86875000000+87187500000+87187500000+87187500000
2863+87187500000+87500000000+87500000000+87500000000+87500000000+87812500000
2832+87812500000+87812500000+88125000000+88125000000+88437500000+88437500000
2800+88437500000+88437500000+88437500000+88437500000+88437500000+88437500000
2768+88437500000+88750000000+88437500000+88437500000+88437500000+88437500000
2737+88437500000+88437500000+88125000000+88125000000+88125000000+88125000000
2705+88125000000+88125000000+88125000000+88125000000+88125000000+88437500000
2674+88437500000+89062500000+89375000000+90000000000+90312500000+90312500000
2642+90625000000+90937500000+90937500000+91250000000+91562500000+91562500000
2611+91875000000+91875000000+91875000000+92187500000+92187500000+92187500000
2579+92187500000+92187500000+92500000000+92500000000+92500000000+92500000000
2547+92812500000+92812500000+92812500000+92812500000+92812500000+92812500000
2516+92812500000+92812500000+92812500000+93125000000+93125000000+93125000000
2484+93125000000+93125000000+93437500000+93437500000+93437500000+93437500000
2453+93437500000+93437500000+93437500000+93437500000+93437500000+93437500000
2421+93437500000+93437500000+93437500000+93437500000+93437500000+93437500000
2389+93437500000+93750000000+93750000000+93750000000+93750000000+93750000000
2358+93750000000+93750000000+93750000000+93750000000+93750000000+93750000000
2326+93750000000+93750000000+93750000000+93750000000+93750000000+93750000000
2295+93750000000+93750000000+93750000000+93750000000+93437500000+93437500000
2263+93437500000+93437500000+93437500000+93125000000+93125000000+93125000000
2232+93125000000+92812500000+92812500000+92500000000+92187500000+91875000000
2200+91250000000+90625000000+90000000000+89062500000+87812500000+85937500000
2168+84062500000+81875000000+80312500000+79062500000+77187500000+73437500000
2137+70312500000+69062500000+68750000000+69062500000+71875000000+75312500000
2105+77812500000+79062500000+80312500000+81562500000+83437500000+84687500000
2074+86250000000+87500000000+88437500000+89062500000+89375000000+89687500000
2042+90312500000+90312500000+90625000000+90625000000+90937500000+90937500000
2011+90937500000+90937500000+90937500000+90625000000+90625000000+90312500000
1979+90312500000+90000000000+89687500000+89375000000+89062500000+89062500000
1947+88437500000+88125000000+87500000000+86875000000+86250000000+85625000000
1916+84375000000+83437500000+81875000000+79687500000+76875000000+72500000000
1884+65312500000+53750000000+39375000000+36875000000+38749999999+39687500000
1853+40625000000+45312500000+47187500000+48124999999+47812500000+47812500000
1821+50625000000+54687500000+57500000000+57812500000+57812500000+57812500000
1789+58437500000+62500000000+67500000000+70312500000+67812500000+61875000000
1758+57812500000+53437500000+52500000000+55000000000+59062500000+55312500000
1726+55000000000+58750000000+67187500000+70000000000+68437500000+68437500000
1695+68750000000+68750000000+68750000000+64687500000+64687500000+67187500000
1663+67187500000+66875000000+66562500000+66875000000+67812500000+70937500000
1632+73750000000+75312500000+75000000000+74375000000+74375000000+73750000000
1600+69375000000+69062500000+68750000000+70937500000+70937500000+71875000000
1568+74687500000+75625000000+78437500000+80625000000+77812500000+77187500000
1537+77500000000+76250000000+78125000000+76250000000+75937500000+75937500000
1505+77187500000+79375000000+74375000000+74062500000+79375000000+82500000000
1474+81250000000+78437500000+73750000000+67187500000+56250000000+45625000000
1442+39687500000+38749999999+41562500000+50312500000+50937500000+55000000000
1411+59687500000+59062500000+58437500000+60000000000+50937500000+47500000000
1379+49375000000+49687499999+49687499999+56562500000+65312500000+55312500000
1347+44375000000+41562500000+35937500000+36250000000+45625000000+49062500000
1316+47500000000+40312499999+37500000000+32500000000+32187500000+32187500000
1284+33125000000+37500000000+35312500000+33750000000+36875000000+48750000000
1253+54062500000+46250000000+46250000000+49062500000+39062500000+33750000000
1221+33750000000+39375000000+43750000000+48437500000+58125000000+65625000000
1189+65625000000+60937500000+55625000000+57500000000+71562500000+79375000000
1158+82500000000+80000000000+70312500000+66250000000+65937500000+69062500000
1126+78125000000+82500000000+84687500000+87500000000+90000000000+91875000000
1095+93437500000+94687500000+94687500000+93437500000+90937500000+90937500000
1063+90625000000+83125000000+75625000000+77187500000+83750000000+74687500000
1032+73750000000+80937500000+87812500000+89687500000+88125000000+83750000000
1000+76875000000+76875000000+80000000000+84375000000+87500000000+88125000000
968+87500000000+86875000000+85000000000+82812500000+80937500000+79375000000
937+78125000000+75625000000+72187500000+69375000000+63437500000+61250000000
905+63125000000+68750000000+69375000000+69062500000+68750000000+68437500000
874+67812500000+66562500000+65000000000+64062500000+62812500000+60625000000
842+59375000000+59062500000+59062500000+59062500000+59062500000+59062500000
811+59375000000+59375000000+59375000000+59062500000+58125000000+56562500000
779+54062500000+52187500000+52187500000+54062500000+57500000000+60937500000
747+63437500000+65625000000+66250000000+66250000000+65937500000+65625000000
716+65625000000+63437500000+57812500000+57812500000+60312500000+65000000000
684+67187500000+68125000000+69375000000+71562500000+72187500000+72500000000
653+72500000000+72187500000+71875000000+72187500000+74062500000+77187500000
621+80000000000+81250000000+81562500000+81250000000+79687500000+75000000000
589+72187500000+72812500000+76250000000+80937500000+82500000000+84062500000
558+86875000000+89375000000+89687500000+89687500000+89687500000+90312500000
526+90625000000+90625000000+90625000000+90625000000+90625000000+90625000000
495+90937500000+91250000000+91562500000+92187500000+92812500000+93125000000
463+93125000000+92812500000+92500000000+91875000000+90937500000+90312500000
432+88750000000+87187500000+85625000000+83750000000+81875000000+80937500000
400+80312500000
##END=
