##TITLE=D-fructose
##JCAMP-DX=4.24
##DATA TYPE=INFRARED SPECTRUM
##DATE=10/06/2025
##SAMPLING PROCEDURE=ATR
##ORIGIN=SDBS
##XUNITS=1/CM
##YUNITS=TRANSMITTANCE
##RESOLUTION=5.2631578947368425
##FIRSTX=4000.0
##LASTX=400.0
##DELTAX=-5.2631578947368425
##MAXY=95.0
##MINY=0.0
##XFACTOR=1
##YFACTOR=1
##NPOINTS=685
##FIRSTY=0.0
##XYDATA=(X++(Y..Y))
4000+0+89375000000+89375000000+89375000000+89375000000+89687500000
3968+90000000000+90000000000+89687500000+89375000000+89375000000+89375000000
3937+89375000000+89687500000+89687500000+89687500000+89687500000+89687500000
3905+89687500000+89687500000+89375000000+89375000000+89062500000+89062500000
3874+88750000000+88750000000+88750000000+89062500000+89062500000+89062500000
3842+89062500000+88437500000+88125000000+88125000000+88125000000+87812500000
3811+87500000000+87187500000+87187500000+86562500000+86250000000+85937500000
3779+85000000000+84375000000+83750000000+82500000000+80937500000+79062500000
3747+77500000000+75312500000+72500000000+69375000000+67500000000+64687500000
3716+61875000000+58125000000+54375000000+48750000000+44999999999+40625000000
3684+34375000000+27187500000+20312500000+19062500000+20000000000+26875000000
3653+32187500000+31562500000+29375000000+27812500000+26250000000+24687500000
3621+22812500000+20937500000+19062500000+17812500000+16875000000+16562500000
3589+16562500000+16562500000+16875000000+17812500000+18750000000+19375000000
3558+19687500000+20000000000+20312500000+20625000000+21250000000+21875000000
3526+22500000000+23125000000+23750000000+24062500000+24687500000+25312500000
3495+25625000000+26250000000+26562500000+27500000000+28125000000+28750000000
3463+29375000000+30000000000+30312500000+30937500000+31562500000+32187500000
3432+32812500000+33750000000+34375000000+35625000000+36562500000+38437500000
3400+39687500000+41250000000+42500000000+44062500000+45937500000+46875000000
3368+48750000000+50000000000+51250000000+52500000000+53437500000+54687500000
3337+55625000000+56250000000+57187500000+56562500000+48750000000+51562500000
3305+49375000000+38749999999+34375000000+25000000000+14062500000+8125000000
3274+8125000000+9687500000+5937500000+4687500000+5625000000+6250000000
3242+8125000000+6250000000+8437500000+14375000000+18750000000+17500000000
3211+15625000000+14062500000+14375000000+21875000000+39687500000+52187500000
3179+59375000000+63750000000+66875000000+68437500000+71250000000+73125000000
3147+74687500000+75312500000+75937500000+75937500000+75937500000+74687500000
3116+74687500000+75000000000+75937500000+76562500000+76250000000+75625000000
3084+75625000000+75625000000+75625000000+76250000000+76562500000+76875000000
3053+77187500000+77812500000+78437500000+78750000000+79375000000+80000000000
3021+80937500000+81250000000+81562500000+81875000000+82187500000+82187500000
2989+83125000000+83437500000+83750000000+83750000000+84375000000+84687500000
2958+85000000000+85000000000+85312500000+85312500000+85625000000+85937500000
2926+86250000000+86250000000+86875000000+87187500000+87500000000+87812500000
2895+88125000000+88125000000+88437500000+88125000000+88125000000+88125000000
2863+88125000000+88437500000+88437500000+88437500000+88750000000+88750000000
2832+89062500000+89062500000+89375000000+89687500000+89687500000+90000000000
2800+90000000000+90312500000+90312500000+90625000000+90625000000+90625000000
2768+90625000000+90625000000+90625000000+90937500000+91250000000+91562500000
2737+91250000000+90937500000+90937500000+90937500000+90937500000+91250000000
2705+91250000000+91250000000+90937500000+90937500000+90937500000+91250000000
2674+91562500000+91562500000+91875000000+91875000000+91875000000+91875000000
2642+91875000000+91875000000+92187500000+92187500000+92500000000+92500000000
2611+92812500000+93125000000+93125000000+93125000000+93437500000+93437500000
2579+93125000000+93125000000+93125000000+93125000000+93125000000+93125000000
2547+93125000000+93125000000+93125000000+93437500000+93437500000+93437500000
2516+93750000000+93750000000+93750000000+93750000000+93750000000+93437500000
2484+93437500000+93437500000+93437500000+93750000000+93750000000+93750000000
2453+93750000000+93750000000+93750000000+93750000000+93750000000+93750000000
2421+93750000000+94062500000+94062500000+94062500000+94062500000+94375000000
2389+94375000000+94375000000+94687500000+94687500000+94687500000+95000000000
2358+95000000000+94687500000+94687500000+94687500000+94687500000+94687500000
2326+94687500000+94687500000+94687500000+94687500000+94687500000+94687500000
2295+94687500000+94687500000+94375000000+94375000000+94062500000+94062500000
2263+93750000000+93750000000+93437500000+93437500000+93437500000+93437500000
2232+93125000000+93125000000+92812500000+92500000000+92187500000+91875000000
2200+91562500000+91562500000+91250000000+90937500000+90312500000+90000000000
2168+89687500000+89062500000+88437500000+87812500000+86562500000+85937500000
2137+85312500000+85000000000+84687500000+84687500000+84375000000+84687500000
2105+84687500000+85000000000+85000000000+85625000000+86250000000+86875000000
2074+87500000000+87812500000+88125000000+88750000000+89375000000+89687500000
2042+90000000000+90000000000+90000000000+90312500000+90312500000+90312500000
2011+90312500000+90000000000+90000000000+89687500000+89375000000+89062500000
1979+89062500000+89062500000+88437500000+87812500000+87187500000+86875000000
1947+85937500000+85000000000+84375000000+83437500000+82812500000+81875000000
1916+80625000000+80000000000+78125000000+75312500000+71250000000+65000000000
1884+53125000000+36250000000+30000000000+31875000000+30625000000+28750000000
1853+28750000000+33125000000+39062500000+42187500000+43750000000+44062500000
1821+44062500000+45937500000+50000000000+54062500000+55625000000+55000000000
1789+51875000000+49062500000+47500000000+47812500000+49375000000+49062500000
1758+46562499999+40937500000+39375000000+40625000000+47187500000+53750000000
1726+55312500000+52187500000+46562499999+42500000000+39062500000+35937500000
1695+35312500000+35312500000+36250000000+46875000000+56875000000+62500000000
1663+65312500000+66875000000+67500000000+66875000000+66250000000+66250000000
1632+66875000000+68750000000+69687500000+67500000000+63437500000+62500000000
1600+58750000000+49062500000+50000000000+62187500000+60937500000+59375000000
1568+60312500000+63437500000+65625000000+65312500000+65000000000+65937500000
1537+68750000000+70937500000+72500000000+73750000000+74375000000+74687500000
1505+73750000000+72187500000+69062500000+64375000000+59375000000+53437500000
1474+47812500000+46875000000+49375000000+54375000000+50312500000+43750000000
1442+35312500000+30937500000+30312500000+32187500000+40625000000+44062500000
1411+44062500000+47187500000+51250000000+53750000000+54687500000+51562500000
1379+48124999999+41874999999+35625000000+25937500000+22812500000+23750000000
1347+28125000000+20625000000+18125000000+18750000000+21875000000+25312500000
1316+21875000000+20625000000+19062500000+18750000000+19062500000+21875000000
1284+29062500000+36562500000+41562500000+42500000000+43437499999+48750000000
1253+54687500000+59375000000+63437500000+67187500000+70312500000+74375000000
1221+78437500000+78750000000+74062500000+57187500000+31562500000+29062500000
1189+36875000000+49687499999+60000000000+65937500000+71562500000+77812500000
1158+82187500000+85625000000+87812500000+88750000000+88125000000+86250000000
1126+76562500000+68437500000+69687500000+81562500000+86250000000+88437500000
1095+90625000000+90000000000+89375000000+88437500000+87187500000+85312500000
1063+80000000000+69687500000+63750000000+65000000000+69375000000+69687500000
1032+76875000000+82500000000+86562500000+88437500000+88125000000+86875000000
1000+84375000000+80000000000+74062500000+67500000000+58437500000+56562500000
968+59062500000+67187500000+72500000000+75312500000+72187500000+67500000000
937+58437500000+45937500000+40625000000+41874999999+50625000000+62187500000
905+71562500000+78437500000+81250000000+82500000000+82812500000+82500000000
874+81562500000+80625000000+79687500000+78750000000+77500000000+74375000000
842+71250000000+71250000000+72812500000+73437500000+73750000000+72812500000
811+72812500000+72187500000+71875000000+71562500000+71562500000+71562500000
779+71875000000+72187500000+73125000000+74062500000+75000000000+75625000000
747+76250000000+76562500000+75937500000+74687500000+70937500000+64375000000
716+53750000000+48750000000+50000000000+60000000000+67187500000+69375000000
684+70312500000+68437500000+64062500000+62812500000+62187500000+61250000000
653+60625000000+60312500000+60000000000+60000000000+60000000000+60000000000
621+60000000000+60312500000+60937500000+61562500000+62187500000+62500000000
589+62812500000+63125000000+63125000000+63125000000+63437500000+64062500000
558+64687500000+66250000000+68437500000+70625000000+72187500000+74375000000
526+76562500000+78437500000+79687500000+81250000000+82187500000+82812500000
495+83750000000+84375000000+85312500000+86562500000+88125000000+90312500000
463+92187500000+93437500000+94375000000+94375000000+93125000000+91250000000
432+88750000000+85937500000+83437500000+80937500000+79062500000+77812500000
400+77187500000
##END=
