##TITLE=D-gentiobiose
##JCAMP-DX=4.24
##DATA TYPE=INFRARED SPECTRUM
##DATE=10/06/2025
##SAMPLING PROCEDURE=ATR
##ORIGIN=SDBS
##XUNITS=1/CM
##YUNITS=TRANSMITTANCE
##RESOLUTION=5.2631578947368425
##FIRSTX=4000.0
##LASTX=400.0
##DELTAX=-5.2631578947368425
##MAXY=95.0
##MINY=0.0
##XFACTOR=1
##YFACTOR=1
##NPOINTS=685
##FIRSTY=0.0
##XYDATA=(X++(Y..Y))
4000+0+92812500000+92812500000+92812500000+92812500000+92500000000
3968+92500000000+92500000000+92500000000+92812500000+92812500000+92812500000
3937+92812500000+92812500000+92812500000+92812500000+92812500000+92812500000
3905+92812500000+92812500000+92812500000+93125000000+93125000000+93125000000
3874+93125000000+93125000000+93125000000+93125000000+93125000000+93125000000
3842+93125000000+93125000000+93125000000+93437500000+93125000000+93125000000
3811+93125000000+93437500000+93437500000+93437500000+93125000000+93125000000
3779+93125000000+93125000000+93125000000+92812500000+92812500000+92500000000
3747+92187500000+91562500000+90937500000+89687500000+88437500000+86875000000
3716+85312500000+83437500000+80625000000+78125000000+75937500000+75625000000
3684+75625000000+74687500000+73125000000+70937500000+68437500000+65312500000
3653+62812500000+60625000000+58750000000+57187500000+54687500000+51562500000
3621+47500000000+44687500000+44687500000+47187500000+49375000000+50625000000
3589+50000000000+49375000000+48750000000+47812500000+46562499999+45625000000
3558+44062500000+42500000000+40625000000+39062500000+37187499999+34687500000
3526+31875000000+30312500000+29687500000+30000000000+31250000000+32500000000
3495+33750000000+35312500000+36562500000+38125000000+39062500000+40312499999
3463+41250000000+41874999999+42500000000+42812500000+43125000000+43437499999
3432+44062500000+44375000000+44999999999+45625000000+46250000000+47187500000
3400+47812500000+48437500000+48750000000+49062500000+49062500000+49375000000
3368+49375000000+49375000000+49375000000+49687499999+49687499999+50312500000
3337+50937500000+51562500000+52187500000+52812500000+52812500000+51875000000
3305+49375000000+44687500000+38749999999+30000000000+19687500000+14375000000
3274+13125000000+13125000000+8437500000+5312500000+4687500000+5312500000
3242+7500000000+13437500000+15625000000+18750000000+22812500000+20000000000
3211+16562500000+13437500000+14062500000+25937500000+42500000000+51562500000
3179+56875000000+60000000000+62500000000+64687500000+66250000000+67500000000
3147+68437500000+68750000000+69375000000+69687500000+70000000000+70312500000
3116+70625000000+70937500000+71562500000+72187500000+72500000000+72812500000
3084+73125000000+73125000000+73437500000+74062500000+75000000000+75937500000
3053+76562500000+77187500000+77812500000+78125000000+78750000000+79062500000
3021+79687500000+80000000000+80625000000+80937500000+80937500000+81250000000
2989+81250000000+81562500000+81875000000+81875000000+82187500000+82500000000
2958+82812500000+82812500000+83125000000+83437500000+83750000000+84375000000
2926+84687500000+85000000000+85312500000+85625000000+85937500000+86250000000
2895+86562500000+86562500000+86875000000+86875000000+87187500000+87187500000
2863+87187500000+87500000000+87500000000+87500000000+87812500000+87812500000
2832+88125000000+88125000000+88437500000+88437500000+88750000000+89062500000
2800+89062500000+89375000000+89375000000+89375000000+89375000000+89687500000
2768+89687500000+89687500000+90000000000+90000000000+90000000000+90000000000
2737+90000000000+90312500000+90312500000+90312500000+90625000000+90625000000
2705+90625000000+90625000000+90937500000+90937500000+90937500000+90937500000
2674+90937500000+90937500000+90937500000+90937500000+91250000000+91250000000
2642+91562500000+91562500000+91875000000+91875000000+91875000000+92187500000
2611+92187500000+92187500000+92187500000+92500000000+92500000000+92500000000
2579+92500000000+92812500000+92812500000+92812500000+92812500000+93125000000
2547+93125000000+93125000000+93125000000+93125000000+93437500000+93437500000
2516+93437500000+93437500000+93437500000+93437500000+93750000000+93750000000
2484+93750000000+93750000000+93750000000+93750000000+93750000000+94062500000
2453+94062500000+94062500000+94062500000+94062500000+94062500000+94062500000
2421+94062500000+94375000000+94375000000+94375000000+94375000000+94375000000
2389+94375000000+94375000000+94375000000+94375000000+94375000000+94375000000
2358+94375000000+94375000000+94375000000+94375000000+94375000000+94375000000
2326+94375000000+94687500000+94687500000+94687500000+94687500000+94687500000
2295+94687500000+94687500000+94687500000+94687500000+94687500000+94687500000
2263+94687500000+94687500000+94687500000+94687500000+95000000000+95000000000
2232+95000000000+94687500000+94375000000+94375000000+94062500000+94062500000
2200+94062500000+94062500000+94062500000+94062500000+94062500000+94062500000
2168+94062500000+94062500000+94062500000+93750000000+93750000000+93750000000
2137+93750000000+93437500000+93437500000+93437500000+93437500000+93125000000
2105+93125000000+93125000000+93125000000+93125000000+93125000000+93125000000
2074+93125000000+93125000000+93125000000+93437500000+93437500000+93437500000
2042+93437500000+93437500000+93437500000+93437500000+93437500000+93437500000
2011+93437500000+93437500000+93437500000+93437500000+93125000000+93125000000
1979+93125000000+92812500000+92812500000+92500000000+92500000000+92500000000
1947+92187500000+91875000000+91562500000+90625000000+89687500000+88750000000
1916+87500000000+86250000000+84375000000+81875000000+78750000000+74062500000
1884+65000000000+51562500000+44999999999+45312500000+47187500000+47812500000
1853+48437500000+51875000000+56250000000+60000000000+62187500000+64062500000
1821+65625000000+66562500000+69375000000+73437500000+76250000000+78437500000
1789+78750000000+75937500000+70000000000+67500000000+67812500000+65625000000
1758+62500000000+55625000000+52187500000+52187500000+56562500000+58437500000
1726+60000000000+63125000000+67187500000+68437500000+68125000000+68750000000
1695+71875000000+75000000000+76562500000+70312500000+67187500000+67187500000
1663+72187500000+80312500000+79687500000+77187500000+72812500000+73437500000
1632+78125000000+74062500000+72187500000+71875000000+70000000000+70000000000
1600+75000000000+80937500000+81250000000+79062500000+77187500000+77187500000
1568+79687500000+80937500000+80625000000+80625000000+81562500000+82500000000
1537+84375000000+87187500000+87500000000+86250000000+82812500000+82812500000
1505+81250000000+80625000000+81562500000+85000000000+83750000000+81250000000
1474+75937500000+65312500000+54062500000+53750000000+57500000000+67500000000
1442+64687500000+64062500000+65937500000+65000000000+62187500000+58750000000
1411+58750000000+55312500000+54687500000+55625000000+53125000000+53125000000
1379+50937500000+44062500000+36562500000+33125000000+33125000000+35937500000
1347+35312500000+29062500000+28750000000+30000000000+31562500000+31875000000
1316+37500000000+43437499999+40312499999+40312499999+43750000000+40000000000
1284+34062500000+31875000000+31250000000+30312500000+30312500000+34062500000
1253+37187499999+39062500000+40312499999+37812500000+37812500000+41562500000
1221+48437500000+55000000000+61562500000+65937500000+70000000000+73437500000
1189+76250000000+77812500000+80000000000+81562500000+82812500000+84062500000
1158+85000000000+86250000000+87187500000+87500000000+87187500000+81875000000
1126+80625000000+81875000000+80625000000+73437500000+70937500000+73750000000
1095+75625000000+78437500000+85000000000+87812500000+89687500000+90937500000
1063+92187500000+92812500000+93125000000+93437500000+93750000000+93750000000
1032+94062500000+94062500000+94062500000+93750000000+93437500000+92812500000
1000+92187500000+91875000000+91562500000+91250000000+91250000000+91562500000
968+91562500000+91875000000+92187500000+92500000000+92812500000+92812500000
937+92812500000+92500000000+92187500000+91875000000+91562500000+90937500000
905+90625000000+90000000000+89062500000+87812500000+86250000000+85312500000
874+82812500000+81250000000+81250000000+80625000000+76875000000+72812500000
842+69062500000+69062500000+69687500000+71875000000+73125000000+75312500000
811+76562500000+77187500000+78125000000+77500000000+76875000000+75625000000
779+74375000000+73125000000+72500000000+72500000000+72500000000+73125000000
747+74062500000+76562500000+77812500000+76875000000+76875000000+79375000000
716+83750000000+86250000000+81562500000+76875000000+76875000000+80000000000
684+82500000000+80625000000+79687500000+80625000000+78437500000+72500000000
653+70937500000+72187500000+75625000000+76250000000+72187500000+72500000000
621+78437500000+84375000000+86562500000+87812500000+84687500000+77500000000
589+75312500000+76250000000+80625000000+85625000000+88125000000+89687500000
558+91250000000+92187500000+92500000000+92812500000+93125000000+93125000000
526+92812500000+92812500000+92812500000+92812500000+92812500000+92812500000
495+92812500000+93125000000+93437500000+93750000000+94375000000+94062500000
463+93125000000+91562500000+89375000000+87187500000+85625000000+84062500000
432+83125000000+82500000000+82500000000+82500000000+83125000000+83437500000
400+83750000000
##END=
