##TITLE=decylcyclohexane
##JCAMP-DX=4.24
##DATA TYPE=INFRARED SPECTRUM
##DATE=10/06/2025
##SAMPLING PROCEDURE=ATR
##ORIGIN=SDBS
##XUNITS=1/CM
##YUNITS=TRANSMITTANCE
##RESOLUTION=5.2631578947368425
##FIRSTX=4000.0
##LASTX=400.0
##DELTAX=-5.2631578947368425
##MAXY=95.0
##MINY=0.0
##XFACTOR=1
##YFACTOR=1
##NPOINTS=685
##FIRSTY=0.0
##XYDATA=(X++(Y..Y))
4000+0+92500000000+92500000000+92500000000+92500000000+92500000000
3968+92500000000+92500000000+92500000000+92812500000+92812500000+92812500000
3937+92812500000+92812500000+92812500000+92812500000+92812500000+92812500000
3905+92812500000+92812500000+92812500000+92812500000+92812500000+92812500000
3874+92812500000+92812500000+92812500000+92812500000+92812500000+92812500000
3842+92812500000+92812500000+92812500000+92812500000+92812500000+92812500000
3811+92812500000+92812500000+92812500000+92812500000+93125000000+93125000000
3779+93125000000+93125000000+93125000000+93125000000+93125000000+93125000000
3747+93125000000+93125000000+93125000000+93125000000+93125000000+93125000000
3716+93437500000+93437500000+93437500000+93437500000+93437500000+93750000000
3684+93750000000+93750000000+93750000000+93750000000+93750000000+93437500000
3653+93437500000+93437500000+93437500000+93437500000+93437500000+93437500000
3621+93437500000+93437500000+93437500000+93437500000+93437500000+93437500000
3589+93437500000+93437500000+93437500000+93437500000+93437500000+93437500000
3558+93437500000+93437500000+93437500000+93437500000+93437500000+93437500000
3526+93437500000+93437500000+93437500000+93437500000+93437500000+93437500000
3495+93437500000+93437500000+93437500000+93125000000+93125000000+93125000000
3463+93125000000+93125000000+93125000000+93125000000+93125000000+93125000000
3432+93125000000+93125000000+92812500000+92812500000+92812500000+92812500000
3400+92812500000+92812500000+92812500000+92812500000+92812500000+92812500000
3368+92500000000+92500000000+92187500000+92187500000+91875000000+91250000000
3337+90625000000+90312500000+90000000000+89062500000+88125000000+86562500000
3305+85000000000+82187500000+76875000000+67812500000+48437500000+34375000000
3274+31875000000+25625000000+11562500000+5000000000+4687500000+5312500000
3242+7500000000+15000000000+21562500000+28750000000+40625000000+38125000000
3211+21250000000+10000000000+10000000000+21875000000+50625000000+68125000000
3179+76562500000+80625000000+82812500000+84062500000+84375000000+86875000000
3147+88750000000+89687500000+90625000000+90937500000+90937500000+90625000000
3116+90625000000+90625000000+90625000000+90625000000+90312500000+90000000000
3084+89687500000+87812500000+87812500000+87812500000+89375000000+90000000000
3053+90937500000+91250000000+91562500000+91562500000+91562500000+91562500000
3021+91875000000+92187500000+92812500000+93125000000+93437500000+93437500000
2989+93437500000+93437500000+93750000000+93750000000+93750000000+93750000000
2958+93750000000+94062500000+94062500000+94062500000+94062500000+94062500000
2926+94062500000+94062500000+94062500000+94062500000+94062500000+94062500000
2895+94062500000+94062500000+94062500000+94062500000+94062500000+94062500000
2863+94062500000+94062500000+94062500000+94062500000+94062500000+94062500000
2832+94062500000+94062500000+94062500000+94062500000+94375000000+94375000000
2800+94375000000+94375000000+94375000000+94062500000+94062500000+94062500000
2768+94062500000+94062500000+94375000000+94375000000+94375000000+94375000000
2737+94375000000+94375000000+94375000000+94375000000+94375000000+94375000000
2705+94375000000+94375000000+94687500000+94687500000+94687500000+94687500000
2674+94687500000+94687500000+94687500000+94687500000+94375000000+94375000000
2642+94375000000+94375000000+94375000000+94375000000+94375000000+94687500000
2611+94687500000+94687500000+94687500000+94687500000+94687500000+94687500000
2579+94687500000+94687500000+94687500000+94687500000+94687500000+94687500000
2547+94687500000+94687500000+94687500000+94687500000+94687500000+94687500000
2516+94687500000+94687500000+94687500000+94687500000+94687500000+94687500000
2484+94687500000+94687500000+94687500000+94687500000+94687500000+94687500000
2453+94687500000+94687500000+94687500000+94687500000+94687500000+94687500000
2421+94687500000+94687500000+94687500000+94687500000+94687500000+94687500000
2389+94687500000+94687500000+95000000000+95000000000+95000000000+94687500000
2358+94687500000+94687500000+94687500000+94687500000+94687500000+94687500000
2326+94687500000+94687500000+94687500000+94687500000+94687500000+94687500000
2295+94687500000+94687500000+94687500000+94687500000+94375000000+94375000000
2263+94375000000+94375000000+94062500000+94062500000+94062500000+94062500000
2232+94062500000+94062500000+94062500000+94062500000+94062500000+94062500000
2200+94062500000+94375000000+94375000000+94375000000+94375000000+94375000000
2168+94375000000+94375000000+94375000000+94375000000+94375000000+94375000000
2137+94375000000+94375000000+94375000000+94375000000+94375000000+94375000000
2105+94375000000+94375000000+94375000000+94375000000+94375000000+94375000000
2074+94375000000+94375000000+94375000000+94375000000+94375000000+94375000000
2042+94375000000+94375000000+94062500000+94062500000+94062500000+94062500000
2011+93750000000+93750000000+93750000000+93750000000+93750000000+93750000000
1979+93750000000+93750000000+93750000000+93437500000+93437500000+93125000000
1947+93125000000+92812500000+92812500000+92500000000+92187500000+92187500000
1916+91875000000+91875000000+91562500000+90937500000+89375000000+86875000000
1884+81562500000+68125000000+56875000000+57187500000+58437500000+58437500000
1853+55312500000+49062500000+51250000000+65000000000+74062500000+80000000000
1821+84687500000+87500000000+89062500000+90312500000+90937500000+90937500000
1789+91250000000+91250000000+91562500000+91250000000+90937500000+90000000000
1758+87812500000+81875000000+80625000000+85312500000+87187500000+87187500000
1726+88125000000+88750000000+87812500000+87500000000+87500000000+88125000000
1695+89062500000+90312500000+90937500000+91875000000+91875000000+91562500000
1663+91250000000+90937500000+90625000000+90312500000+90312500000+90312500000
1632+90937500000+90937500000+91250000000+91250000000+91250000000+90625000000
1600+90000000000+89375000000+88125000000+88125000000+89687500000+91250000000
1568+91875000000+92187500000+92500000000+92812500000+93125000000+93125000000
1537+93125000000+93437500000+93437500000+93437500000+93437500000+93437500000
1505+93437500000+93437500000+93125000000+93125000000+93125000000+93125000000
1474+93125000000+93125000000+93125000000+93125000000+93125000000+93125000000
1442+93125000000+93125000000+93437500000+93437500000+93437500000+93437500000
1411+93125000000+93125000000+92812500000+92812500000+92812500000+92812500000
1379+92500000000+92500000000+92500000000+92187500000+92187500000+92187500000
1347+92187500000+92187500000+92187500000+92187500000+92187500000+92500000000
1316+92500000000+92812500000+92812500000+93125000000+93125000000+92812500000
1284+92812500000+92812500000+92812500000+92500000000+92500000000+92500000000
1253+92812500000+92812500000+92812500000+93125000000+93437500000+93437500000
1221+93750000000+93750000000+93750000000+93437500000+93125000000+92812500000
1189+92812500000+92500000000+92500000000+92500000000+92812500000+93125000000
1158+93125000000+93437500000+93437500000+93437500000+93437500000+93437500000
1126+93437500000+93125000000+93125000000+93125000000+93125000000+92812500000
1095+92500000000+91875000000+90937500000+89375000000+85625000000+85625000000
1063+89062500000+91250000000+91875000000+92187500000+92812500000+92812500000
1032+93125000000+93437500000+93437500000+92500000000+88750000000+88750000000
1000+92500000000+93437500000+93750000000+94062500000+94062500000+94062500000
968+93750000000+93750000000+93437500000+93437500000+93437500000+93437500000
937+93437500000+93437500000+93437500000+93437500000+93437500000+93437500000
905+93437500000+93125000000+93125000000+93125000000+92812500000+92187500000
874+91562500000+90937500000+90312500000+89687500000+87500000000+84687500000
842+81562500000+81562500000+85000000000+88750000000+90625000000+92187500000
811+92812500000+93125000000+93437500000+93750000000+93750000000+93750000000
779+93750000000+93750000000+93750000000+93750000000+94062500000+94062500000
747+94062500000+94062500000+94062500000+94062500000+94062500000+94062500000
716+94062500000+93750000000+93750000000+93750000000+93750000000+93750000000
684+93750000000+93750000000+93437500000+93437500000+93437500000+93125000000
653+93125000000+93125000000+93125000000+93125000000+93125000000+93125000000
621+93437500000+93437500000+93750000000+94062500000+94062500000+94062500000
589+94062500000+94062500000+94062500000+93750000000+93437500000+93125000000
558+92812500000+92812500000+92187500000+91875000000+91562500000+90937500000
526+90625000000+90312500000+90312500000+90312500000+90312500000+90312500000
495+90312500000+90625000000+90937500000+91250000000+91562500000+91562500000
463+91250000000+90625000000+89062500000+87500000000+85937500000+84062500000
432+82187500000+80000000000+78437500000+76562500000+75312500000+74062500000
400+73750000000
##END=
