##TITLE=diethyl benzylidenemalonate
##JCAMP-DX=4.24
##DATA TYPE=INFRARED SPECTRUM
##DATE=10/06/2025
##SAMPLING PROCEDURE=ATR
##ORIGIN=SDBS
##XUNITS=1/CM
##YUNITS=TRANSMITTANCE
##RESOLUTION=5.2631578947368425
##FIRSTX=4000.0
##LASTX=400.0
##DELTAX=-5.2631578947368425
##MAXY=94.6875
##MINY=0.0
##XFACTOR=1
##YFACTOR=1
##NPOINTS=685
##FIRSTY=0.0
##XYDATA=(X++(Y..Y))
4000+0+80937500000+80937500000+80937500000+81250000000+81250000000
3968+81250000000+81250000000+81250000000+81250000000+81250000000+81250000000
3937+81250000000+81250000000+80937500000+80625000000+80625000000+80625000000
3905+80937500000+80625000000+80312500000+80000000000+79687500000+79687500000
3874+79687500000+79687500000+80000000000+80000000000+79687500000+79687500000
3842+79375000000+79375000000+79062500000+79062500000+79062500000+79375000000
3811+79687500000+79687500000+79687500000+79375000000+79062500000+78750000000
3779+78750000000+78437500000+78437500000+78125000000+77812500000+77500000000
3747+77500000000+77500000000+77812500000+77812500000+78125000000+78437500000
3716+78437500000+78125000000+77500000000+77187500000+76875000000+76875000000
3684+77187500000+77187500000+77187500000+77187500000+76875000000+76562500000
3653+76562500000+76250000000+75937500000+75000000000+74375000000+73437500000
3621+72812500000+72187500000+71875000000+71875000000+72187500000+72812500000
3589+73437500000+73750000000+74062500000+74375000000+74687500000+75000000000
3558+75312500000+75625000000+75625000000+75625000000+75937500000+75937500000
3526+76250000000+76250000000+76250000000+76250000000+76250000000+76250000000
3495+76250000000+76562500000+76562500000+76250000000+76250000000+76250000000
3463+76250000000+76250000000+76562500000+76875000000+77187500000+77187500000
3432+77500000000+77812500000+77812500000+77812500000+78125000000+78125000000
3400+78437500000+78125000000+77812500000+77187500000+76562500000+74687500000
3368+71875000000+71875000000+69687500000+66250000000+65625000000+66250000000
3337+70000000000+67812500000+65000000000+65625000000+60625000000+51875000000
3305+43750000000+34687500000+31875000000+32187500000+39687500000+46562499999
3274+50000000000+51562500000+49375000000+50312500000+57187500000+61250000000
3242+56250000000+56250000000+61562500000+66250000000+67500000000+67187500000
3211+70625000000+73437500000+75937500000+77812500000+79062500000+79375000000
3179+80312500000+80937500000+81875000000+82500000000+83125000000+84062500000
3147+84687500000+85312500000+85625000000+85937500000+85937500000+86250000000
3116+86562500000+86875000000+87187500000+87500000000+87500000000+87812500000
3084+87812500000+87812500000+87812500000+87500000000+87812500000+87812500000
3053+88125000000+88125000000+88125000000+88125000000+88125000000+88125000000
3021+88437500000+88750000000+89062500000+89375000000+89375000000+89687500000
2989+89687500000+90000000000+90000000000+89687500000+89687500000+89375000000
2958+89375000000+89687500000+90000000000+90312500000+90312500000+90625000000
2926+90625000000+90312500000+90312500000+90312500000+90312500000+90312500000
2895+90625000000+90625000000+90937500000+90937500000+90937500000+90937500000
2863+90937500000+90937500000+90937500000+91250000000+91250000000+91250000000
2832+91562500000+91562500000+91875000000+91875000000+91875000000+91562500000
2800+91562500000+91562500000+91562500000+91562500000+91875000000+92187500000
2768+92187500000+92812500000+93125000000+93125000000+93437500000+93750000000
2737+93750000000+93750000000+93750000000+93750000000+93437500000+93125000000
2705+93125000000+92812500000+92812500000+92812500000+92500000000+92187500000
2674+91875000000+91875000000+91562500000+91562500000+91875000000+92500000000
2642+93125000000+94062500000+94375000000+94687500000+94687500000+94062500000
2611+93437500000+93125000000+92812500000+92187500000+91875000000+91250000000
2579+90937500000+90625000000+90312500000+90312500000+90625000000+90625000000
2547+90937500000+90937500000+91250000000+91562500000+91562500000+91562500000
2516+91562500000+91562500000+91250000000+91250000000+91250000000+90937500000
2484+90625000000+90625000000+90312500000+90000000000+89687500000+89687500000
2453+89687500000+90000000000+90312500000+90625000000+90937500000+91562500000
2421+91875000000+91875000000+91875000000+91875000000+91562500000+91250000000
2389+90625000000+89687500000+89062500000+88125000000+87187500000+86250000000
2358+85312500000+85000000000+84375000000+84062500000+83750000000+83125000000
2326+81875000000+80625000000+79375000000+77812500000+75937500000+73125000000
2295+70937500000+66250000000+60000000000+51875000000+43750000000+32812500000
2263+21250000000+12500000000+8125000000+5937500000+5000000000+4687500000
2232+4687500000+5312500000+6875000000+10000000000+12500000000+13437500000
2200+15000000000+18437500000+25625000000+33437500000+42812500000+50625000000
2168+57500000000+62500000000+66875000000+69062500000+70000000000+70312500000
2137+69062500000+65937500000+61250000000+53437500000+43750000000+32812500000
2105+26562500000+25000000000+25625000000+31250000000+41250000000+52812500000
2074+62812500000+68125000000+68750000000+68750000000+71875000000+78125000000
2042+82187500000+83437500000+77187500000+65625000000+68750000000+81875000000
2011+86875000000+88750000000+89687500000+90000000000+90312500000+90000000000
1979+90000000000+89687500000+89375000000+89062500000+88750000000+88125000000
1947+86875000000+84687500000+83125000000+81250000000+78125000000+60937500000
1916+53125000000+55312500000+69687500000+71250000000+64375000000+54687500000
1884+53125000000+53125000000+47500000000+46875000000+50000000000+49375000000
1853+34062500000+31875000000+36250000000+44687500000+56250000000+66250000000
1821+71250000000+73437500000+74062500000+72187500000+68750000000+64687500000
1789+56875000000+46875000000+40312499999+38437500000+38437500000+40312499999
1758+33437500000+28125000000+28125000000+33125000000+36250000000+36250000000
1726+46562499999+57500000000+57812500000+60312500000+64375000000+66875000000
1695+64375000000+60000000000+51875000000+46250000000+45312500000+45625000000
1663+46875000000+49687499999+48437500000+41250000000+34062500000+29375000000
1632+29375000000+31562500000+34687500000+31250000000+24375000000+17812500000
1600+11562500000+7187500000+5625000000+5625000000+5625000000+7812500000
1568+12187500000+16875000000+20937500000+22812500000+19062500000+14687500000
1537+10625000000+8437500000+7500000000+7187500000+7500000000+8750000000
1505+6562500000+6562500000+9062500000+13437500000+16875000000+24062500000
1474+29062500000+34687500000+38437500000+40625000000+44062500000+46875000000
1442+48437500000+55000000000+60312500000+64062500000+66250000000+69062500000
1411+72187500000+72812500000+71875000000+67812500000+61562500000+57500000000
1379+53750000000+49375000000+46562499999+38437500000+36562500000+36875000000
1347+31250000000+25937500000+26250000000+33437500000+34375000000+21875000000
1316+15937500000+15000000000+16250000000+25000000000+38125000000+47812500000
1284+54687500000+52500000000+48437500000+40937500000+33125000000+31875000000
1253+32500000000+36875000000+42812500000+46875000000+49062500000+49062500000
1221+60000000000+67812500000+74062500000+78750000000+82812500000+84375000000
1189+85312500000+86250000000+87500000000+87812500000+86875000000+84687500000
1158+81250000000+77812500000+77187500000+77187500000+79375000000+83437500000
1126+88125000000+90625000000+91562500000+90625000000+89062500000+87812500000
1095+85312500000+85000000000+85312500000+87187500000+88437500000+89375000000
1063+86250000000+78750000000+68750000000+64375000000+64062500000+64375000000
1032+65625000000+69375000000+77812500000+71562500000+70312500000+73750000000
1000+82812500000+87812500000+89375000000+88750000000+87812500000+85937500000
968+83750000000+81562500000+79062500000+77187500000+74687500000+72812500000
937+72500000000+72500000000+71875000000+65937500000+49687499999+37187499999
905+35000000000+36875000000+49375000000+61875000000+62500000000+62500000000
874+67500000000+80937500000+88750000000+91875000000+90937500000+87187500000
842+83437500000+80625000000+78750000000+78125000000+74687500000+62812500000
811+47812500000+37812500000+35937500000+36562500000+44999999999+63750000000
779+74062500000+80312500000+86562500000+91250000000+90625000000+91875000000
747+91250000000+90937500000+89375000000+89062500000+88750000000+88437500000
716+87500000000+86875000000+84062500000+84062500000+86875000000+84375000000
684+81562500000+80000000000+79375000000+77812500000+76875000000+76562500000
653+76250000000+75937500000+75625000000+75625000000+75937500000+76562500000
621+77500000000+79375000000+82812500000+86875000000+90625000000+93125000000
589+94375000000+94687500000+94062500000+93437500000+92500000000+91875000000
558+90937500000+90000000000+88750000000+87187500000+77500000000+73437500000
526+67812500000+67187500000+67500000000+69687500000+71562500000+73437500000
495+75937500000+78437500000+80312500000+81562500000+82187500000+82500000000
463+81875000000+80312500000+78437500000+76250000000+74062500000+70937500000
432+67812500000+64375000000+62187500000+59375000000+57187500000+55937500000
400+55000000000
##END=
