##TITLE=diethyl sulfate
##JCAMP-DX=4.24
##DATA TYPE=INFRARED SPECTRUM
##DATE=10/06/2025
##SAMPLING PROCEDURE=ATR
##ORIGIN=SDBS
##XUNITS=1/CM
##YUNITS=TRANSMITTANCE
##RESOLUTION=5.2631578947368425
##FIRSTX=4000.0
##LASTX=400.0
##DELTAX=-5.2631578947368425
##MAXY=95.0
##MINY=0.0
##XFACTOR=1
##YFACTOR=1
##NPOINTS=685
##FIRSTY=0.0
##XYDATA=(X++(Y..Y))
4000+0+87812500000+87812500000+87812500000+87812500000+87812500000
3968+87812500000+87812500000+87812500000+87812500000+87812500000+87812500000
3937+88125000000+88125000000+88125000000+88437500000+88437500000+88437500000
3905+88437500000+88437500000+88437500000+88750000000+88750000000+88750000000
3874+88750000000+88750000000+88750000000+89062500000+89062500000+89062500000
3842+89062500000+89062500000+89062500000+89062500000+89375000000+89375000000
3811+89375000000+89375000000+89375000000+89062500000+88750000000+88437500000
3779+88125000000+88125000000+88125000000+88125000000+88125000000+88437500000
3747+88750000000+89062500000+89062500000+89062500000+89062500000+88750000000
3716+88437500000+88437500000+88437500000+88750000000+89062500000+89062500000
3684+89375000000+89375000000+89375000000+89375000000+89375000000+89375000000
3653+89375000000+89375000000+89375000000+89375000000+89375000000+89375000000
3621+89375000000+89375000000+89375000000+89375000000+89375000000+89375000000
3589+89375000000+89375000000+89375000000+89375000000+89375000000+89375000000
3558+89375000000+89375000000+89375000000+89375000000+89375000000+89375000000
3526+89375000000+89375000000+89375000000+89375000000+89687500000+89687500000
3495+89687500000+89687500000+89687500000+89687500000+89687500000+89687500000
3463+90000000000+90000000000+90000000000+90000000000+90000000000+90312500000
3432+90312500000+90312500000+90625000000+90625000000+90625000000+90625000000
3400+90625000000+90625000000+90625000000+90625000000+90625000000+90625000000
3368+90625000000+90312500000+90312500000+90000000000+89687500000+89062500000
3337+88125000000+86875000000+83750000000+77500000000+69375000000+64687500000
3305+57812500000+54062500000+55000000000+64687500000+72187500000+78437500000
3274+77187500000+73437500000+73750000000+77187500000+78437500000+76562500000
3242+77500000000+82187500000+85312500000+86250000000+85625000000+85625000000
3211+88125000000+89375000000+90312500000+90625000000+90625000000+90937500000
3179+90937500000+91562500000+91875000000+91875000000+91875000000+91875000000
3147+91875000000+91875000000+91875000000+92187500000+92187500000+92187500000
3116+92500000000+92500000000+92812500000+92812500000+93125000000+93125000000
3084+93125000000+93125000000+93125000000+93125000000+93125000000+93125000000
3053+93125000000+93125000000+93125000000+92812500000+92500000000+92187500000
3021+92187500000+91875000000+91875000000+91875000000+92187500000+92187500000
2989+92500000000+92812500000+93125000000+93437500000+93437500000+93437500000
2958+93437500000+93437500000+93437500000+93437500000+93437500000+93437500000
2926+93437500000+93750000000+93750000000+93750000000+93750000000+93437500000
2895+93437500000+93125000000+92812500000+92812500000+92812500000+93125000000
2863+93125000000+93437500000+93437500000+93750000000+93750000000+93750000000
2832+94062500000+94062500000+94062500000+94062500000+94062500000+94062500000
2800+94062500000+94375000000+94375000000+94375000000+94687500000+94687500000
2768+94687500000+94375000000+94375000000+94375000000+94375000000+94375000000
2737+94687500000+94687500000+94687500000+94687500000+94687500000+94375000000
2705+94375000000+94375000000+94375000000+94375000000+94375000000+94375000000
2674+94375000000+94687500000+94687500000+94687500000+94687500000+95000000000
2642+94687500000+94687500000+94687500000+94687500000+94687500000+95000000000
2611+95000000000+95000000000+94687500000+94687500000+94687500000+94687500000
2579+94687500000+94687500000+94687500000+94687500000+94687500000+94687500000
2547+94687500000+94687500000+94687500000+94375000000+94375000000+94687500000
2516+94687500000+94687500000+94687500000+94687500000+94687500000+94687500000
2484+94687500000+94687500000+94687500000+95000000000+94687500000+94687500000
2453+94687500000+94687500000+94687500000+94687500000+94687500000+94375000000
2421+94375000000+94062500000+93750000000+93750000000+93437500000+93437500000
2389+93437500000+93437500000+93437500000+93437500000+93437500000+93437500000
2358+93750000000+93750000000+94062500000+94062500000+94062500000+94375000000
2326+94062500000+94062500000+93750000000+93437500000+93125000000+92500000000
2295+92187500000+91562500000+90937500000+90937500000+90625000000+90625000000
2263+90937500000+90937500000+91250000000+91250000000+91562500000+91875000000
2232+92187500000+92187500000+92187500000+92187500000+92187500000+92187500000
2200+91875000000+91562500000+91562500000+91562500000+91250000000+91250000000
2168+91250000000+91250000000+91562500000+91562500000+91562500000+91562500000
2137+91875000000+91875000000+92187500000+92187500000+92500000000+92500000000
2105+92812500000+92812500000+92812500000+93125000000+93125000000+93125000000
2074+93437500000+93437500000+93437500000+93750000000+93750000000+93750000000
2042+93750000000+93750000000+93750000000+93750000000+93750000000+93750000000
2011+93750000000+93750000000+93750000000+93750000000+93437500000+93437500000
1979+93437500000+93125000000+93125000000+92812500000+92500000000+92187500000
1947+92187500000+91875000000+91562500000+91250000000+90937500000+90625000000
1916+90000000000+88750000000+87187500000+83437500000+78125000000+71562500000
1884+71562500000+75625000000+78437500000+78125000000+76250000000+75625000000
1853+71875000000+65312500000+64687500000+68437500000+74375000000+78125000000
1821+78125000000+76250000000+71875000000+64375000000+50937500000+34687500000
1789+18750000000+13125000000+13125000000+14062500000+11875000000+10312500000
1758+10625000000+14062500000+18437500000+23437500000+23125000000+23125000000
1726+28125000000+40312499999+53750000000+64062500000+70312500000+75937500000
1695+80312500000+82812500000+84375000000+85625000000+86562500000+87500000000
1663+88125000000+88125000000+87500000000+86250000000+84375000000+82187500000
1632+81562500000+81562500000+81562500000+81875000000+82187500000+84062500000
1600+85625000000+87187500000+87500000000+87812500000+88125000000+88125000000
1568+87812500000+87500000000+86562500000+85625000000+84375000000+82812500000
1537+80312500000+76562500000+70312500000+60625000000+40625000000+16250000000
1505+7187500000+5000000000+4687500000+5937500000+15937500000+34687500000
1474+54062500000+65625000000+69375000000+68125000000+66250000000+66250000000
1442+67812500000+71875000000+76562500000+80312500000+82812500000+83437500000
1411+83437500000+82812500000+82187500000+80625000000+78125000000+73125000000
1379+68437500000+66875000000+66875000000+67812500000+69687500000+73125000000
1347+78437500000+81875000000+83437500000+84062500000+83750000000+83125000000
1316+82187500000+81250000000+80312500000+78750000000+76875000000+74375000000
1284+70312500000+65000000000+58437500000+48124999999+35312500000+24687500000
1253+18750000000+15312500000+12812500000+11250000000+10312500000+10312500000
1221+12812500000+21562500000+36875000000+48750000000+60937500000+67500000000
1189+70312500000+69375000000+65625000000+59687500000+51250000000+40312499999
1158+27812500000+18437500000+13750000000+10000000000+8125000000+6562500000
1126+5625000000+5312500000+5000000000+5312500000+6875000000+9062500000
1095+15000000000+24687500000+37187499999+50000000000+61250000000+70000000000
1063+75937500000+79687500000+82500000000+84375000000+85625000000+86250000000
1032+86562500000+85625000000+84375000000+80937500000+75312500000+62812500000
1000+42187500000+27500000000+25312500000+26875000000+33750000000+40312499999
968+46562499999+50312500000+50625000000+50625000000+52500000000+55937500000
937+58437500000+62187500000+67187500000+71562500000+74062500000+75937500000
905+76250000000+75312500000+74062500000+72187500000+70937500000+70937500000
874+71250000000+73125000000+76875000000+81250000000+84687500000+87812500000
842+90000000000+91562500000+92187500000+93125000000+93437500000+93750000000
811+94062500000+94062500000+94375000000+94375000000+94375000000+94375000000
779+94375000000+94375000000+94375000000+94375000000+94375000000+94062500000
747+94062500000+93750000000+93437500000+93125000000+92812500000+92187500000
716+91562500000+90625000000+89062500000+87187500000+83437500000+79062500000
684+70625000000+56875000000+46250000000+45937500000+47812500000+50000000000
653+53125000000+55312500000+58437500000+64375000000+70937500000+75625000000
621+78437500000+81250000000+83750000000+85937500000+87187500000+88437500000
589+88750000000+87812500000+86250000000+83750000000+80937500000+78125000000
558+72500000000+58437500000+46875000000+46875000000+57812500000+78125000000
526+86562500000+90312500000+92187500000+93437500000+94062500000+94062500000
495+93437500000+93125000000+92500000000+92187500000+91875000000+91875000000
463+91875000000+91875000000+91875000000+90937500000+89687500000+87187500000
432+84687500000+82187500000+80000000000+78125000000+76562500000+75625000000
400+75000000000
##END=
