##TITLE=diethyl oxalate
##JCAMP-DX=4.24
##DATA TYPE=INFRARED SPECTRUM
##DATE=10/06/2025
##SAMPLING PROCEDURE=ATR
##ORIGIN=SDBS
##XUNITS=1/CM
##YUNITS=TRANSMITTANCE
##RESOLUTION=5.2631578947368425
##FIRSTX=4000.0
##LASTX=400.0
##DELTAX=-5.2631578947368425
##MAXY=95.0
##MINY=0.0
##XFACTOR=1
##YFACTOR=1
##NPOINTS=685
##FIRSTY=0.0
##XYDATA=(X++(Y..Y))
4000+0+93437500000+93750000000+93750000000+94062500000+94062500000
3968+94062500000+94062500000+94062500000+94062500000+93750000000+93750000000
3937+93750000000+94062500000+93750000000+93750000000+93750000000+93750000000
3905+93750000000+93750000000+93750000000+93750000000+93437500000+93437500000
3874+93125000000+93125000000+93437500000+93437500000+93750000000+93750000000
3842+93437500000+93437500000+93437500000+93437500000+93437500000+93437500000
3811+93750000000+93437500000+93437500000+93125000000+93125000000+92812500000
3779+92812500000+92500000000+92187500000+92187500000+92187500000+92500000000
3747+92500000000+92187500000+91875000000+91562500000+91250000000+90937500000
3716+90625000000+90312500000+90312500000+90312500000+90625000000+90625000000
3684+90312500000+90000000000+89687500000+89687500000+89062500000+88125000000
3653+87187500000+86562500000+86250000000+86250000000+86875000000+87500000000
3621+88125000000+88750000000+89375000000+89687500000+89687500000+89375000000
3589+89375000000+89062500000+89062500000+89062500000+89062500000+88750000000
3558+88750000000+88437500000+88437500000+88437500000+88437500000+88437500000
3526+88125000000+87812500000+87500000000+87187500000+87187500000+87187500000
3495+86875000000+86875000000+86562500000+86562500000+86562500000+86562500000
3463+86250000000+86250000000+86250000000+86562500000+86875000000+87187500000
3432+87187500000+87500000000+87812500000+88125000000+88125000000+88125000000
3400+88437500000+88750000000+89062500000+89375000000+89687500000+89687500000
3368+90000000000+90312500000+90312500000+90000000000+89687500000+89375000000
3337+88437500000+87187500000+84375000000+78437500000+70000000000+61250000000
3305+51562500000+44062500000+44062500000+49375000000+58125000000+65000000000
3274+69687500000+65000000000+64687500000+70625000000+75937500000+74687500000
3242+73437500000+75000000000+80000000000+82500000000+81875000000+82500000000
3211+86250000000+88437500000+90000000000+90625000000+90937500000+91250000000
3179+91875000000+92187500000+92500000000+92500000000+92500000000+92812500000
3147+93125000000+93125000000+93437500000+93437500000+93750000000+93750000000
3116+93750000000+93750000000+93750000000+93750000000+93437500000+93437500000
3084+93437500000+93437500000+93750000000+93750000000+94062500000+93750000000
3053+93750000000+93437500000+93437500000+93437500000+93437500000+93750000000
3021+93750000000+93437500000+93437500000+93437500000+93437500000+93437500000
2989+93437500000+93437500000+93437500000+93125000000+92812500000+92500000000
2958+92500000000+92500000000+92500000000+92812500000+93125000000+93437500000
2926+94062500000+94375000000+94687500000+94687500000+94687500000+94375000000
2895+94375000000+94375000000+94375000000+94375000000+94375000000+94375000000
2863+94375000000+94375000000+94375000000+94375000000+94375000000+94375000000
2832+94375000000+94375000000+94375000000+94375000000+94687500000+94687500000
2800+94687500000+95000000000+94687500000+94687500000+94375000000+94375000000
2768+94375000000+94687500000+94687500000+94687500000+94375000000+94375000000
2737+94062500000+94062500000+94062500000+94375000000+94375000000+94375000000
2705+94375000000+94375000000+94375000000+94062500000+94062500000+94062500000
2674+94062500000+93750000000+93750000000+93750000000+93750000000+93750000000
2642+94062500000+94062500000+94375000000+94375000000+94687500000+94687500000
2611+94687500000+94687500000+94687500000+94687500000+94687500000+94687500000
2579+94687500000+94687500000+94375000000+94375000000+94375000000+94375000000
2547+94375000000+94062500000+94062500000+94062500000+94062500000+94062500000
2516+93750000000+93750000000+93750000000+93437500000+93437500000+93437500000
2484+93125000000+93125000000+92812500000+92500000000+92187500000+91875000000
2453+91562500000+91250000000+90937500000+90937500000+90625000000+90625000000
2421+90312500000+90000000000+89375000000+88750000000+88125000000+87500000000
2389+86562500000+85625000000+84375000000+83437500000+82187500000+80625000000
2358+79062500000+77187500000+74687500000+71562500000+68125000000+63437500000
2326+57187500000+48750000000+38437500000+26562500000+14375000000+8125000000
2295+6250000000+6250000000+6562500000+8750000000+10000000000+6562500000
2263+5000000000+4687500000+5312500000+7187500000+12500000000+19687500000
2232+29062500000+37812500000+45937500000+52500000000+57500000000+60937500000
2200+65625000000+71562500000+75937500000+78750000000+81250000000+82812500000
2168+84375000000+85312500000+85937500000+86562500000+86875000000+87187500000
2137+87187500000+87187500000+87500000000+87500000000+87812500000+88125000000
2105+88437500000+88750000000+89375000000+89687500000+90312500000+90625000000
2074+90937500000+91562500000+91875000000+92187500000+92500000000+92812500000
2042+93125000000+93125000000+93125000000+93125000000+93437500000+93437500000
2011+93125000000+93125000000+93125000000+93125000000+93125000000+93125000000
1979+93125000000+92812500000+92812500000+92500000000+92187500000+91562500000
1947+91250000000+90625000000+90625000000+90312500000+89687500000+89375000000
1916+88750000000+87500000000+85312500000+80937500000+74062500000+64062500000
1884+60937500000+60000000000+59687500000+60312500000+65000000000+63437500000
1853+59375000000+56250000000+56875000000+64687500000+71562500000+76875000000
1821+80625000000+82187500000+82187500000+80625000000+77812500000+74687500000
1789+70000000000+65312500000+61875000000+57500000000+55625000000+56875000000
1758+62187500000+54062500000+42187500000+41874999999+54375000000+60625000000
1726+65937500000+75000000000+77500000000+76250000000+72500000000+65937500000
1695+57187500000+47500000000+36250000000+26562500000+20000000000+17500000000
1663+16562500000+16875000000+20312500000+25937500000+30312500000+34687500000
1632+40312499999+47187500000+53750000000+60312500000+64687500000+68125000000
1600+70312500000+72187500000+73750000000+74375000000+73750000000+73125000000
1568+72187500000+70625000000+69062500000+66250000000+62500000000+58437500000
1537+51875000000+42812500000+33125000000+24687500000+16562500000+11250000000
1505+8125000000+6562500000+5312500000+4687500000+4687500000+5312500000
1474+7812500000+11562500000+15625000000+14375000000+12812500000+12500000000
1442+12500000000+14062500000+18125000000+25937500000+36875000000+46875000000
1411+57187500000+62187500000+65312500000+61250000000+52812500000+45625000000
1379+45312500000+49062500000+55937500000+54062500000+54062500000+59375000000
1347+70937500000+77812500000+81562500000+84375000000+85937500000+86875000000
1316+87500000000+87812500000+87500000000+86562500000+85625000000+83750000000
1284+81250000000+77500000000+72500000000+64062500000+54062500000+44062500000
1253+35625000000+29062500000+26875000000+26875000000+32187500000+41562500000
1221+56562500000+69375000000+77812500000+82812500000+85937500000+87500000000
1189+88437500000+89062500000+90625000000+92187500000+93437500000+94062500000
1158+94375000000+94687500000+94687500000+94687500000+94062500000+92500000000
1126+90625000000+88437500000+87500000000+87187500000+87187500000+87812500000
1095+89375000000+90625000000+91250000000+90937500000+89375000000+86875000000
1063+82500000000+74062500000+62187500000+59062500000+60000000000+64375000000
1032+67500000000+67500000000+68437500000+73437500000+81562500000+86875000000
1000+89687500000+90312500000+88750000000+86875000000+85625000000+84375000000
968+83750000000+83750000000+83750000000+83750000000+83750000000+84062500000
937+84375000000+84687500000+85312500000+85625000000+85937500000+84375000000
905+80937500000+77500000000+77187500000+77812500000+80625000000+85312500000
874+89687500000+92187500000+93437500000+94062500000+94375000000+94687500000
842+94687500000+94687500000+94375000000+94375000000+94062500000+94062500000
811+94062500000+94062500000+94062500000+94375000000+94375000000+94375000000
779+94687500000+94687500000+94687500000+94375000000+94062500000+93750000000
747+93437500000+93125000000+93125000000+92812500000+92500000000+92500000000
716+92187500000+92187500000+91875000000+91875000000+91875000000+91562500000
684+91250000000+90625000000+90000000000+89375000000+88750000000+88125000000
653+87187500000+86875000000+86562500000+86562500000+86875000000+87187500000
621+87812500000+88750000000+89687500000+90937500000+91562500000+92500000000
589+93125000000+93750000000+94062500000+94375000000+94375000000+94375000000
558+94375000000+94062500000+93437500000+93125000000+92500000000+91562500000
526+90625000000+90000000000+89375000000+88750000000+88437500000+88437500000
495+88437500000+88750000000+89375000000+90000000000+90937500000+91562500000
463+91875000000+90937500000+89687500000+88125000000+86562500000+84687500000
432+81875000000+78437500000+75312500000+71562500000+68125000000+65937500000
400+64687500000
##END=
