##TITLE=dihexadecyl sulfide
##JCAMP-DX=4.24
##DATA TYPE=INFRARED SPECTRUM
##DATE=10/06/2025
##SAMPLING PROCEDURE=ATR
##ORIGIN=SDBS
##XUNITS=1/CM
##YUNITS=TRANSMITTANCE
##RESOLUTION=5.2631578947368425
##FIRSTX=4000.0
##LASTX=400.0
##DELTAX=-5.2631578947368425
##MAXY=95.0
##MINY=0.0
##XFACTOR=1
##YFACTOR=1
##NPOINTS=685
##FIRSTY=0.0
##XYDATA=(X++(Y..Y))
4000+0+82187500000+82500000000+82500000000+82500000000+82812500000
3968+83125000000+83125000000+83125000000+83125000000+83125000000+83125000000
3937+83125000000+83125000000+83125000000+83125000000+83125000000+83125000000
3905+83125000000+83125000000+83437500000+83437500000+83437500000+83437500000
3874+83750000000+83750000000+83750000000+84062500000+84375000000+84375000000
3842+84375000000+84375000000+84375000000+84375000000+84375000000+84375000000
3811+84375000000+84687500000+84687500000+85000000000+85000000000+85000000000
3779+85000000000+85000000000+85000000000+85000000000+85000000000+85000000000
3747+85000000000+85000000000+84687500000+84687500000+84687500000+85000000000
3716+85312500000+85625000000+85937500000+86250000000+86562500000+86562500000
3684+86562500000+86562500000+86562500000+86562500000+86875000000+86875000000
3653+86875000000+86875000000+86875000000+86875000000+87187500000+87187500000
3621+87187500000+87187500000+87187500000+86875000000+86875000000+86875000000
3589+87187500000+87187500000+87187500000+87187500000+87187500000+87187500000
3558+87187500000+87500000000+87500000000+87500000000+87500000000+87812500000
3526+87812500000+87812500000+87812500000+87812500000+87812500000+88125000000
3495+87812500000+87812500000+87812500000+87812500000+87812500000+87812500000
3463+87812500000+87812500000+87812500000+87500000000+87500000000+87500000000
3432+87500000000+87500000000+87812500000+88125000000+88125000000+88125000000
3400+88125000000+88437500000+88437500000+88437500000+88125000000+87812500000
3368+87500000000+87187500000+86562500000+86250000000+85937500000+85312500000
3337+84375000000+83750000000+82500000000+81562500000+80000000000+78125000000
3305+74687500000+69062500000+59375000000+45625000000+27500000000+14062500000
3274+10937500000+13125000000+9062500000+5312500000+5000000000+4687500000
3242+5000000000+8125000000+10937500000+14687500000+21562500000+19062500000
3211+13437500000+6875000000+6250000000+10312500000+32812500000+49687499999
3179+60625000000+66562500000+70937500000+73437500000+76875000000+79687500000
3147+81562500000+82500000000+83437500000+84062500000+84375000000+84375000000
3116+84375000000+84687500000+85312500000+85937500000+86875000000+86875000000
3084+86875000000+86562500000+86562500000+86562500000+86562500000+86562500000
3053+86562500000+86875000000+87187500000+87500000000+88437500000+88750000000
3021+89375000000+89687500000+90312500000+90625000000+90937500000+91562500000
2989+91875000000+91875000000+92187500000+92500000000+92812500000+92812500000
2958+92812500000+92812500000+92812500000+93125000000+93125000000+93437500000
2926+93437500000+93437500000+93437500000+93437500000+93437500000+93437500000
2895+93437500000+93437500000+93437500000+93437500000+93437500000+93437500000
2863+93437500000+93437500000+93437500000+93437500000+93437500000+93437500000
2832+93437500000+93437500000+93750000000+93750000000+93750000000+93750000000
2800+93750000000+94062500000+94062500000+94062500000+94062500000+94375000000
2768+94375000000+94687500000+94375000000+94375000000+94375000000+94375000000
2737+94687500000+94687500000+94687500000+94687500000+94687500000+94687500000
2705+94687500000+94687500000+94687500000+94687500000+94687500000+94687500000
2674+95000000000+94687500000+94687500000+94687500000+94687500000+94375000000
2642+94375000000+94375000000+94062500000+94062500000+94375000000+94375000000
2611+94375000000+94375000000+94375000000+94375000000+94375000000+94375000000
2579+94375000000+94375000000+94375000000+94375000000+94375000000+94375000000
2547+94375000000+94687500000+94687500000+94687500000+94687500000+94687500000
2516+94687500000+94375000000+94375000000+94375000000+94062500000+94062500000
2484+94062500000+94062500000+94062500000+94062500000+94062500000+94062500000
2453+94062500000+94062500000+94062500000+94062500000+94062500000+94062500000
2421+94062500000+94062500000+94062500000+94062500000+94062500000+94062500000
2389+94062500000+94062500000+94062500000+94062500000+94062500000+94062500000
2358+94062500000+94062500000+94062500000+94062500000+94062500000+94062500000
2326+94062500000+93750000000+93750000000+93750000000+93750000000+93750000000
2295+93750000000+93437500000+93437500000+93437500000+93437500000+93437500000
2263+93750000000+93750000000+93750000000+93750000000+93750000000+93437500000
2232+93437500000+93437500000+93125000000+93125000000+93125000000+92812500000
2200+92812500000+92812500000+92812500000+92812500000+92500000000+92500000000
2168+92500000000+92187500000+92187500000+92187500000+92187500000+91875000000
2137+91875000000+91875000000+91562500000+91562500000+91562500000+91250000000
2105+91250000000+91250000000+91250000000+91250000000+91250000000+91250000000
2074+91250000000+91250000000+91250000000+91250000000+91250000000+90937500000
2042+90937500000+90937500000+90625000000+90625000000+90312500000+90312500000
2011+90000000000+90000000000+89687500000+89687500000+89687500000+89375000000
1979+89375000000+89062500000+88750000000+88750000000+88750000000+88437500000
1947+88437500000+88125000000+88125000000+87812500000+87187500000+86250000000
1916+85312500000+84062500000+82812500000+80312500000+77500000000+69062500000
1884+38749999999+34062500000+32812500000+26562500000+25625000000+41250000000
1853+47187500000+55312500000+60625000000+65937500000+70312500000+74687500000
1821+78750000000+80312500000+82187500000+83437500000+84687500000+85625000000
1789+85937500000+85625000000+85000000000+84375000000+82187500000+76250000000
1758+70937500000+63125000000+60312500000+62812500000+74062500000+75000000000
1726+77187500000+80312500000+81562500000+82187500000+82187500000+82500000000
1695+83125000000+84062500000+84375000000+84687500000+85000000000+85000000000
1663+84687500000+82812500000+82500000000+82812500000+83750000000+84375000000
1632+83750000000+82187500000+83125000000+84687500000+85000000000+84375000000
1600+82500000000+82500000000+83437500000+85312500000+85000000000+83125000000
1568+82187500000+83750000000+84687500000+85625000000+84062500000+81250000000
1537+81250000000+83437500000+84687500000+85312500000+83750000000+83750000000
1505+85000000000+85312500000+85937500000+85625000000+85312500000+85625000000
1474+85312500000+85312500000+85000000000+85000000000+85000000000+85000000000
1442+85000000000+85000000000+85312500000+85000000000+85000000000+85000000000
1411+85000000000+85000000000+85000000000+85312500000+85000000000+85000000000
1379+85000000000+85000000000+85000000000+85000000000+85000000000+85000000000
1347+85000000000+85000000000+84687500000+84687500000+84687500000+84687500000
1316+85000000000+85000000000+85000000000+85000000000+85000000000+84687500000
1284+84687500000+84687500000+85000000000+85000000000+85000000000+85000000000
1253+85000000000+85000000000+85000000000+85000000000+85312500000+85312500000
1221+85312500000+85312500000+85312500000+85312500000+85312500000+85312500000
1189+85625000000+85625000000+85625000000+85625000000+85937500000+85937500000
1158+85937500000+85937500000+85937500000+85937500000+86250000000+86250000000
1126+86250000000+86250000000+86250000000+86250000000+85937500000+85937500000
1095+85625000000+85625000000+85625000000+85625000000+85625000000+85625000000
1063+85937500000+86250000000+86250000000+86562500000+86875000000+87187500000
1032+87500000000+87500000000+87812500000+87812500000+87812500000+87500000000
1000+87500000000+87187500000+87187500000+87187500000+87187500000+87500000000
968+87500000000+87812500000+88125000000+88125000000+88437500000+88750000000
937+88750000000+88750000000+88437500000+88125000000+87812500000+87500000000
905+86875000000+80937500000+82187500000+88125000000+88437500000+87187500000
874+85625000000+83437500000+73750000000+67812500000+49687499999+52500000000
842+59062500000+46250000000+62187500000+80312500000+83750000000+85937500000
811+87812500000+89062500000+89687500000+90312500000+90312500000+90625000000
779+90625000000+90625000000+90625000000+90625000000+90625000000+90625000000
747+90625000000+90625000000+90937500000+90937500000+90937500000+90937500000
716+90937500000+90937500000+91250000000+91250000000+91562500000+91875000000
684+91875000000+92187500000+92187500000+92187500000+92187500000+91875000000
653+91875000000+91562500000+91562500000+91562500000+91562500000+91562500000
621+91562500000+91562500000+91875000000+92187500000+92500000000+93125000000
589+93125000000+93437500000+93437500000+93437500000+93437500000+93437500000
558+93437500000+93437500000+93437500000+93125000000+93125000000+92812500000
526+92812500000+92812500000+93125000000+93437500000+94062500000+94375000000
495+94687500000+94687500000+94687500000+94375000000+93750000000+93437500000
463+93125000000+92500000000+92187500000+91875000000+91562500000+91250000000
432+90000000000+88125000000+85937500000+83437500000+80937500000+79375000000
400+78750000000
##END=
