##TITLE=diisobutylamine
##JCAMP-DX=4.24
##DATA TYPE=INFRARED SPECTRUM
##DATE=10/06/2025
##SAMPLING PROCEDURE=ATR
##ORIGIN=SDBS
##XUNITS=1/CM
##YUNITS=TRANSMITTANCE
##RESOLUTION=5.2631578947368425
##FIRSTX=4000.0
##LASTX=400.0
##DELTAX=-5.2631578947368425
##MAXY=95.0
##MINY=0.0
##XFACTOR=1
##YFACTOR=1
##NPOINTS=685
##FIRSTY=0.0
##XYDATA=(X++(Y..Y))
4000+0+94375000000+94375000000+94375000000+94375000000+94375000000
3968+94375000000+94375000000+94375000000+94375000000+94062500000+94062500000
3937+94062500000+94062500000+94062500000+94062500000+94375000000+94375000000
3905+94375000000+94375000000+94375000000+94062500000+94062500000+94062500000
3874+94062500000+94062500000+94062500000+94062500000+94062500000+94062500000
3842+94062500000+94375000000+94375000000+94687500000+94687500000+94687500000
3811+94687500000+94687500000+94687500000+94375000000+94062500000+94062500000
3779+94062500000+94062500000+94375000000+94375000000+94687500000+94687500000
3747+94687500000+94375000000+94375000000+94375000000+94375000000+94375000000
3716+94062500000+94062500000+94062500000+93750000000+93750000000+93750000000
3684+93750000000+93437500000+93437500000+93437500000+93437500000+93125000000
3653+93125000000+93125000000+93125000000+93125000000+92812500000+92812500000
3621+92812500000+92812500000+92500000000+92500000000+92187500000+91875000000
3589+91562500000+91250000000+90937500000+90937500000+90625000000+90312500000
3558+90000000000+89687500000+89375000000+88750000000+88437500000+88437500000
3526+88437500000+88437500000+88437500000+88437500000+89062500000+89375000000
3495+89687500000+90312500000+90625000000+90937500000+91250000000+91250000000
3463+90937500000+90625000000+90000000000+89687500000+89062500000+88750000000
3432+88437500000+88437500000+88437500000+88750000000+89062500000+89375000000
3400+90000000000+90312500000+90625000000+90625000000+90937500000+90937500000
3368+90937500000+90937500000+90937500000+90625000000+90312500000+90000000000
3337+89375000000+88750000000+87500000000+85625000000+83125000000+80312500000
3305+75000000000+64687500000+43125000000+25625000000+12187500000+5000000000
3274+4687500000+6562500000+13750000000+16562500000+16875000000+19062500000
3242+19375000000+19375000000+20312500000+19062500000+14687500000+12812500000
3211+17500000000+35312500000+45625000000+48124999999+43750000000+36875000000
3179+30000000000+26562500000+26562500000+29375000000+35937500000+40937500000
3147+45937500000+55312500000+56875000000+59062500000+62187500000+62500000000
3116+64375000000+66562500000+69375000000+72812500000+75937500000+78125000000
3084+80000000000+82187500000+83437500000+83125000000+83125000000+84062500000
3053+84062500000+84062500000+85000000000+85625000000+86875000000+87187500000
3021+87812500000+88437500000+88750000000+89062500000+89687500000+90937500000
2989+91875000000+92500000000+92812500000+92812500000+92812500000+92812500000
2958+92812500000+92812500000+93125000000+93125000000+93125000000+93437500000
2926+93437500000+93437500000+93437500000+93437500000+93437500000+93437500000
2895+93437500000+93437500000+93437500000+93437500000+93437500000+93437500000
2863+93437500000+93437500000+93437500000+93750000000+93750000000+93750000000
2832+93750000000+93750000000+93750000000+93750000000+93750000000+93750000000
2800+93750000000+93750000000+94062500000+94062500000+94062500000+94062500000
2768+94375000000+94375000000+94062500000+94062500000+94062500000+94062500000
2737+94062500000+94062500000+93750000000+93750000000+93750000000+93750000000
2705+94062500000+94062500000+94375000000+94375000000+94375000000+94375000000
2674+94375000000+94375000000+94375000000+94375000000+94375000000+94375000000
2642+94375000000+94375000000+94687500000+94687500000+94687500000+94687500000
2611+94687500000+94687500000+94687500000+94687500000+94687500000+94687500000
2579+94687500000+94687500000+94687500000+94687500000+94687500000+95000000000
2547+95000000000+95000000000+95000000000+95000000000+95000000000+94687500000
2516+94687500000+94687500000+94687500000+94687500000+94687500000+94687500000
2484+94687500000+94687500000+94375000000+94375000000+94375000000+94375000000
2453+94375000000+94375000000+94062500000+94062500000+94062500000+94062500000
2421+94062500000+94062500000+94062500000+94062500000+94062500000+94062500000
2389+94062500000+94062500000+94062500000+94375000000+94375000000+94375000000
2358+94375000000+94375000000+94375000000+94375000000+94687500000+94687500000
2326+94687500000+94687500000+94687500000+94687500000+94687500000+94687500000
2295+94687500000+94687500000+94687500000+94687500000+94687500000+94687500000
2263+94687500000+94687500000+94687500000+94375000000+94375000000+94375000000
2232+94062500000+94062500000+94062500000+93750000000+93437500000+93125000000
2200+92500000000+92187500000+91875000000+91562500000+91562500000+91562500000
2168+91562500000+91562500000+91562500000+92187500000+92812500000+93125000000
2137+93125000000+93437500000+93437500000+93437500000+93437500000+93437500000
2105+93437500000+93750000000+93750000000+93750000000+93750000000+93750000000
2074+93750000000+93750000000+93750000000+93750000000+93750000000+93750000000
2042+93750000000+93750000000+93750000000+93750000000+93437500000+93437500000
2011+93125000000+93125000000+92812500000+92812500000+92812500000+92500000000
1979+92500000000+92187500000+92187500000+91875000000+91875000000+91562500000
1947+91250000000+90625000000+90000000000+89062500000+87500000000+85937500000
1916+84062500000+81250000000+77500000000+71562500000+63437500000+47187500000
1884+32187500000+25937500000+21562500000+21562500000+25625000000+33437500000
1853+40000000000+41250000000+44687500000+50937500000+58750000000+69062500000
1821+76250000000+80000000000+82187500000+83750000000+84687500000+85000000000
1789+83750000000+81875000000+75625000000+68437500000+60937500000+42812500000
1758+36250000000+39375000000+57812500000+58750000000+44687500000+42812500000
1726+47500000000+62500000000+71875000000+75937500000+77187500000+80312500000
1695+78750000000+77500000000+77812500000+84062500000+87500000000+89375000000
1663+90312500000+90625000000+89375000000+87812500000+87500000000+85937500000
1632+83750000000+80312500000+78125000000+79062500000+83437500000+84062500000
1600+82812500000+82500000000+84687500000+88125000000+89375000000+87812500000
1568+85937500000+85625000000+85937500000+84375000000+82187500000+82187500000
1537+84062500000+88437500000+90625000000+91562500000+91875000000+91562500000
1505+90937500000+90312500000+89062500000+86250000000+83750000000+83437500000
1474+84062500000+82187500000+81562500000+82187500000+83750000000+82187500000
1442+77187500000+70937500000+65937500000+63437500000+58125000000+49062500000
1411+39687500000+34687500000+34687500000+37500000000+45312500000+51250000000
1379+49687499999+47500000000+47812500000+54062500000+62187500000+68750000000
1347+76250000000+82187500000+85625000000+87500000000+89062500000+90312500000
1316+91562500000+92187500000+92500000000+93125000000+93437500000+93125000000
1284+91562500000+88437500000+87187500000+87187500000+90000000000+91875000000
1253+90937500000+89375000000+87187500000+87187500000+87500000000+88437500000
1221+89687500000+90625000000+90937500000+90937500000+90625000000+90312500000
1189+89062500000+86250000000+84062500000+82812500000+82812500000+85312500000
1158+86562500000+84375000000+82812500000+81250000000+81250000000+82812500000
1126+84687500000+80000000000+78750000000+80312500000+85000000000+86875000000
1095+87812500000+87500000000+86250000000+85937500000+85937500000+88437500000
1063+90312500000+90625000000+90625000000+90625000000+91250000000+91562500000
1032+91875000000+91562500000+90937500000+90000000000+88750000000+87500000000
1000+86250000000+84687500000+83125000000+81250000000+78437500000+74687500000
968+74687500000+77500000000+83125000000+86250000000+86875000000+86250000000
937+85937500000+85000000000+83750000000+82187500000+80000000000+78125000000
905+75000000000+71562500000+67812500000+62500000000+58125000000+55312500000
874+54375000000+54375000000+55937500000+58437500000+60312500000+62187500000
842+62500000000+62187500000+62187500000+62187500000+63125000000+64687500000
811+65937500000+66875000000+67500000000+68437500000+69687500000+71562500000
779+73750000000+76250000000+78125000000+80000000000+81875000000+83437500000
747+84687500000+85937500000+87187500000+88750000000+89687500000+90625000000
716+91250000000+91875000000+92187500000+92500000000+93125000000+93125000000
684+93437500000+93437500000+93437500000+93750000000+93750000000+93750000000
653+94062500000+94375000000+94375000000+94687500000+94687500000+94687500000
621+94375000000+92812500000+91562500000+90625000000+90000000000+90000000000
589+90312500000+90937500000+91250000000+92187500000+92812500000+93437500000
558+94062500000+94375000000+94687500000+94687500000+94375000000+94062500000
526+93750000000+93437500000+93437500000+93125000000+93125000000+93125000000
495+93125000000+92812500000+92812500000+92500000000+92500000000+92500000000
463+92500000000+92187500000+92187500000+91875000000+91875000000+91875000000
432+91875000000+91875000000+91875000000+91875000000+91875000000+91875000000
400+91875000000
##END=
