##TITLE=dimethyl (2,2,2-trichloro-1-hydroxyethyl)phosphonate
##JCAMP-DX=4.24
##DATA TYPE=INFRARED SPECTRUM
##DATE=10/06/2025
##SAMPLING PROCEDURE=ATR
##ORIGIN=SDBS
##XUNITS=1/CM
##YUNITS=TRANSMITTANCE
##RESOLUTION=5.2631578947368425
##FIRSTX=4000.0
##LASTX=400.0
##DELTAX=-5.2631578947368425
##MAXY=95.0
##MINY=0.0
##XFACTOR=1
##YFACTOR=1
##NPOINTS=685
##FIRSTY=0.0
##XYDATA=(X++(Y..Y))
4000+0+93437500000+93437500000+93750000000+93750000000+93750000000
3968+93750000000+94062500000+93750000000+93750000000+93437500000+93437500000
3937+93125000000+93125000000+93125000000+93125000000+93125000000+93437500000
3905+93437500000+93750000000+93437500000+93437500000+93437500000+93437500000
3874+93437500000+93437500000+93437500000+93437500000+93750000000+93750000000
3842+93437500000+93437500000+93125000000+93125000000+93125000000+93437500000
3811+93125000000+93125000000+93125000000+93125000000+93125000000+93125000000
3779+93125000000+93125000000+93125000000+93125000000+93125000000+93125000000
3747+92812500000+92812500000+92500000000+92500000000+92500000000+92500000000
3716+92500000000+92500000000+92812500000+92812500000+92500000000+92187500000
3684+92187500000+91875000000+91875000000+91562500000+91250000000+90937500000
3653+90312500000+90312500000+89687500000+89375000000+88750000000+87500000000
3621+85937500000+84375000000+82812500000+80625000000+78125000000+75937500000
3589+72500000000+69687500000+67187500000+64062500000+62187500000+61250000000
3558+60312500000+59687500000+59687500000+59687500000+59687500000+60000000000
3526+60000000000+60312500000+60312500000+60312500000+60000000000+60000000000
3495+59687500000+59687500000+59375000000+59375000000+59062500000+59062500000
3463+58750000000+58750000000+59062500000+59062500000+59375000000+59687500000
3432+60000000000+60625000000+61250000000+62187500000+63125000000+63750000000
3400+65625000000+66875000000+67500000000+69375000000+70937500000+72187500000
3368+73437500000+74687500000+76562500000+77187500000+78437500000+79375000000
3337+80625000000+80625000000+80625000000+80625000000+81250000000+82812500000
3305+84062500000+85312500000+85937500000+83437500000+70625000000+58125000000
3274+71250000000+84062500000+87812500000+88750000000+89687500000+87812500000
3242+86562500000+77500000000+78437500000+88437500000+89687500000+88437500000
3211+79687500000+78125000000+87812500000+90312500000+90937500000+91250000000
3179+91562500000+91562500000+91562500000+91562500000+91562500000+91562500000
3147+91562500000+91250000000+90937500000+90625000000+90625000000+90625000000
3116+91562500000+92187500000+92812500000+92812500000+92812500000+92812500000
3084+92812500000+92812500000+92812500000+92812500000+92812500000+92812500000
3053+92812500000+92500000000+92500000000+92187500000+92187500000+92187500000
3021+92187500000+92187500000+92187500000+92187500000+92500000000+92812500000
2989+93125000000+93437500000+93437500000+93750000000+94062500000+93750000000
2958+93750000000+93750000000+93750000000+93750000000+93750000000+93750000000
2926+93750000000+93750000000+93750000000+94062500000+94062500000+94062500000
2895+94062500000+94062500000+93750000000+93750000000+93750000000+93750000000
2863+93750000000+94062500000+94062500000+94062500000+94062500000+94375000000
2832+94375000000+94375000000+94375000000+94375000000+94375000000+94375000000
2800+94375000000+94375000000+94375000000+94375000000+94375000000+94375000000
2768+94375000000+94375000000+94375000000+94375000000+94375000000+94375000000
2737+94375000000+94062500000+93750000000+93750000000+93750000000+94062500000
2705+94062500000+94375000000+94375000000+94062500000+94062500000+94062500000
2674+94062500000+94062500000+94375000000+94375000000+94375000000+94375000000
2642+94375000000+94375000000+94062500000+94062500000+94062500000+94062500000
2611+94062500000+94062500000+94062500000+94062500000+94062500000+94062500000
2579+94062500000+94062500000+94062500000+94062500000+94062500000+94062500000
2547+94062500000+94375000000+94375000000+94375000000+94375000000+94375000000
2516+93750000000+93437500000+93125000000+93125000000+93125000000+93125000000
2484+93125000000+93125000000+93125000000+93437500000+93437500000+93437500000
2453+93437500000+93437500000+93125000000+93125000000+93125000000+93125000000
2421+93125000000+93125000000+93125000000+93125000000+93125000000+93125000000
2389+93125000000+92812500000+92812500000+92812500000+92812500000+92812500000
2358+93125000000+93125000000+93437500000+93750000000+94062500000+94062500000
2326+94375000000+94375000000+94375000000+94375000000+94375000000+94062500000
2295+94062500000+94062500000+93750000000+93750000000+93750000000+93750000000
2263+93750000000+94062500000+94062500000+94062500000+94062500000+94062500000
2232+94062500000+94375000000+94375000000+94375000000+94375000000+94375000000
2200+94375000000+94687500000+94687500000+94687500000+94687500000+94687500000
2168+94687500000+94687500000+94687500000+94687500000+94687500000+94687500000
2137+94375000000+94375000000+94375000000+94375000000+94375000000+94375000000
2105+94375000000+94062500000+94062500000+94062500000+94062500000+94062500000
2074+94062500000+94062500000+94062500000+94062500000+94062500000+94062500000
2042+94062500000+94062500000+93750000000+93437500000+93437500000+93437500000
2011+93125000000+93125000000+92812500000+92500000000+92187500000+92187500000
1979+92187500000+92187500000+91875000000+91875000000+91562500000+91562500000
1947+91250000000+90937500000+90937500000+90937500000+90625000000+90312500000
1916+90000000000+89687500000+89062500000+88437500000+88125000000+87187500000
1884+85625000000+84687500000+83125000000+81875000000+80937500000+80937500000
1853+79062500000+72187500000+72812500000+83437500000+85625000000+86875000000
1821+88125000000+88437500000+88437500000+88437500000+88437500000+88437500000
1789+88437500000+87812500000+87187500000+86875000000+85312500000+83437500000
1758+80937500000+77812500000+74687500000+73437500000+73750000000+77187500000
1726+81562500000+85312500000+87500000000+89375000000+90312500000+90937500000
1695+91250000000+91562500000+91562500000+91875000000+91562500000+91250000000
1663+90625000000+89375000000+87500000000+85625000000+84687500000+85000000000
1632+85937500000+86562500000+85937500000+84687500000+82812500000+80625000000
1600+78437500000+74375000000+68437500000+60937500000+49062500000+34375000000
1568+20312500000+12812500000+11875000000+13750000000+26250000000+42187500000
1537+51250000000+57187500000+56562500000+50625000000+39375000000+29687500000
1505+28125000000+29062500000+33437500000+40000000000+44375000000+48437500000
1474+54375000000+61250000000+67500000000+72187500000+74687500000+77500000000
1442+79062500000+80312500000+81250000000+82187500000+82500000000+82812500000
1411+82500000000+81875000000+81562500000+80937500000+80000000000+78125000000
1379+76562500000+73125000000+68750000000+62187500000+50625000000+37187499999
1347+34687500000+26250000000+18125000000+16875000000+17812500000+27187500000
1316+37187499999+40312499999+40312499999+27187500000+12812500000+6562500000
1284+5312500000+4687500000+4687500000+8125000000+22187500000+30937500000
1253+30312500000+39062500000+57187500000+69375000000+76875000000+81250000000
1221+85000000000+87500000000+89062500000+90000000000+90937500000+91562500000
1189+92187500000+92812500000+93125000000+93750000000+94062500000+94062500000
1158+94375000000+94687500000+94687500000+95000000000+94687500000+94687500000
1126+94687500000+94375000000+94375000000+94375000000+94375000000+94375000000
1095+94375000000+94062500000+93750000000+93437500000+92812500000+92500000000
1063+92187500000+91875000000+91250000000+89687500000+87500000000+83437500000
1032+78125000000+63437500000+44062500000+42812500000+49687499999+58750000000
1000+60312500000+44375000000+27187500000+15312500000+15312500000+25937500000
968+52187500000+49687499999+31250000000+25937500000+25937500000+38437500000
937+38437500000+57187500000+71250000000+75625000000+81562500000+86250000000
905+88437500000+90000000000+90937500000+91250000000+91875000000+92187500000
874+92187500000+91562500000+90000000000+87500000000+83750000000+70625000000
842+44062500000+43125000000+52812500000+68750000000+79062500000+85937500000
811+87812500000+89062500000+89375000000+89375000000+89375000000+89062500000
779+88437500000+87500000000+86562500000+86250000000+85937500000+85937500000
747+85937500000+85937500000+85937500000+85625000000+85312500000+84375000000
716+80937500000+73750000000+55937500000+45312500000+51562500000+73750000000
684+81250000000+83750000000+84687500000+85000000000+84687500000+84375000000
653+83750000000+83125000000+82500000000+81875000000+80937500000+80312500000
621+79062500000+77812500000+75937500000+74062500000+71562500000+67500000000
589+60312500000+48124999999+39062500000+36562500000+41250000000+63750000000
558+76250000000+83125000000+87500000000+89375000000+90625000000+91250000000
526+90312500000+88125000000+84687500000+81250000000+80625000000+83750000000
495+85000000000+86875000000+88125000000+89062500000+89687500000+90000000000
463+90312500000+90937500000+91875000000+92812500000+93437500000+93750000000
432+93437500000+92187500000+90625000000+88125000000+86250000000+84687500000
400+84062500000
##END=
