##TITLE=dimethylglyoxime
##JCAMP-DX=4.24
##DATA TYPE=INFRARED SPECTRUM
##DATE=10/06/2025
##SAMPLING PROCEDURE=ATR
##ORIGIN=SDBS
##XUNITS=1/CM
##YUNITS=TRANSMITTANCE
##RESOLUTION=5.2631578947368425
##FIRSTX=4000.0
##LASTX=400.0
##DELTAX=-5.2631578947368425
##MAXY=94.6875
##MINY=0.0
##XFACTOR=1
##YFACTOR=1
##NPOINTS=685
##FIRSTY=0.0
##XYDATA=(X++(Y..Y))
4000+0+72500000000+72812500000+73125000000+73437500000+73750000000
3968+74062500000+74375000000+74375000000+74687500000+74687500000+75000000000
3937+75312500000+75312500000+75625000000+75625000000+75937500000+75937500000
3905+75937500000+76250000000+76562500000+76875000000+77187500000+77500000000
3874+78125000000+78437500000+78750000000+78750000000+79062500000+79375000000
3842+79375000000+79687500000+80000000000+80000000000+80312500000+80625000000
3811+80937500000+81250000000+81562500000+81875000000+82187500000+82187500000
3779+82500000000+82812500000+82812500000+83125000000+83437500000+83750000000
3747+84062500000+84375000000+84375000000+84687500000+85000000000+85312500000
3716+85625000000+85937500000+85937500000+85937500000+86250000000+86250000000
3684+86250000000+85937500000+85625000000+85312500000+85000000000+84375000000
3653+83750000000+83125000000+82187500000+81250000000+80000000000+79062500000
3621+77500000000+75937500000+73750000000+71250000000+67812500000+64375000000
3589+60937500000+59062500000+55937500000+53125000000+50312500000+48124999999
3558+45937500000+43750000000+41874999999+40000000000+38125000000+36250000000
3526+34375000000+33437500000+32812500000+32812500000+32812500000+32500000000
3495+31250000000+29375000000+27187500000+26250000000+25000000000+24062500000
3463+23125000000+22812500000+22187500000+22187500000+22187500000+22500000000
3432+23437500000+24687500000+25937500000+26875000000+27500000000+27500000000
3400+27500000000+27500000000+27500000000+27500000000+27812500000+28125000000
3368+28750000000+30000000000+30625000000+30937500000+30937500000+30937500000
3337+31250000000+31875000000+32500000000+33437500000+34062500000+34687500000
3305+34062500000+32187500000+28125000000+22500000000+15312500000+11562500000
3274+10625000000+10937500000+8125000000+5000000000+4687500000+5000000000
3242+8437500000+11875000000+14687500000+17500000000+19687500000+18125000000
3211+16250000000+13437500000+13750000000+22812500000+35312500000+41562500000
3179+44999999999+48437500000+50625000000+51875000000+53750000000+55312500000
3147+57500000000+58750000000+59062500000+60312500000+61250000000+61250000000
3116+61875000000+62500000000+64062500000+64687500000+65000000000+65312500000
3084+65000000000+65000000000+65312500000+65937500000+66562500000+66875000000
3053+67187500000+67187500000+67500000000+68437500000+69375000000+70312500000
3021+70937500000+71562500000+71875000000+72187500000+72500000000+72500000000
2989+72812500000+73437500000+73750000000+74062500000+74375000000+74687500000
2958+75000000000+75312500000+75625000000+75937500000+76250000000+76562500000
2926+76875000000+76875000000+77187500000+77187500000+77500000000+77812500000
2895+78125000000+78437500000+78750000000+79062500000+79062500000+79375000000
2863+79375000000+79687500000+79687500000+80000000000+80000000000+80312500000
2832+80312500000+80625000000+80625000000+80937500000+81250000000+81562500000
2800+81875000000+81875000000+82187500000+82187500000+82500000000+82500000000
2768+82500000000+82500000000+82812500000+83125000000+83437500000+83437500000
2737+83437500000+83437500000+83750000000+84062500000+84375000000+84687500000
2705+85000000000+85000000000+85000000000+85312500000+85312500000+85937500000
2674+85937500000+86250000000+86250000000+86562500000+86562500000+86875000000
2642+87187500000+87187500000+86250000000+85937500000+85625000000+85625000000
2611+86562500000+87187500000+87500000000+87812500000+88125000000+88437500000
2579+88437500000+88125000000+87812500000+87187500000+86250000000+85625000000
2547+85312500000+84687500000+84375000000+83750000000+83750000000+83750000000
2516+84687500000+85625000000+86875000000+87187500000+87500000000+87812500000
2484+88125000000+87812500000+87187500000+86875000000+86250000000+86250000000
2453+86250000000+86562500000+87187500000+87500000000+87812500000+88437500000
2421+88437500000+88437500000+88437500000+88750000000+88750000000+89062500000
2389+89062500000+89375000000+89375000000+89687500000+89687500000+89687500000
2358+89687500000+89687500000+89687500000+90000000000+90000000000+90000000000
2326+89687500000+89687500000+89687500000+89687500000+89687500000+89687500000
2295+89687500000+89687500000+89687500000+89687500000+89687500000+89687500000
2263+89375000000+89375000000+89375000000+89375000000+89375000000+89687500000
2232+89375000000+89375000000+89375000000+89375000000+89375000000+89375000000
2200+89375000000+89687500000+88750000000+87187500000+87812500000+89062500000
2168+89375000000+89687500000+89687500000+89687500000+90000000000+89687500000
2137+89687500000+89687500000+89687500000+89687500000+89687500000+89687500000
2105+89687500000+89687500000+89687500000+89687500000+89687500000+89687500000
2074+89687500000+89687500000+89687500000+89687500000+89687500000+89687500000
2042+89687500000+89375000000+89062500000+88750000000+88437500000+88125000000
2011+88125000000+87812500000+87500000000+86875000000+86250000000+85937500000
1979+85625000000+85312500000+85000000000+84687500000+84375000000+84375000000
1947+84375000000+84062500000+83750000000+83437500000+82500000000+81562500000
1916+80625000000+78750000000+77187500000+74687500000+71250000000+65625000000
1884+57812500000+47500000000+38749999999+35937500000+34375000000+33125000000
1853+32812500000+32500000000+32500000000+34687500000+35312500000+37500000000
1821+44062500000+49375000000+54062500000+57812500000+60000000000+61875000000
1789+62500000000+62500000000+61250000000+60000000000+56562500000+51250000000
1758+46875000000+42187500000+40937500000+41250000000+36875000000+22812500000
1726+23750000000+47500000000+58750000000+64687500000+67812500000+70625000000
1695+72500000000+74375000000+75937500000+77500000000+78750000000+79687500000
1663+80000000000+80625000000+80937500000+81250000000+81562500000+82187500000
1632+82812500000+83437500000+83750000000+84062500000+84375000000+84375000000
1600+84375000000+84687500000+85312500000+85625000000+85937500000+86562500000
1568+87187500000+87500000000+88125000000+88437500000+88750000000+89062500000
1537+89062500000+89375000000+89687500000+89687500000+90000000000+90312500000
1505+90625000000+90937500000+90937500000+90625000000+90312500000+89375000000
1474+89062500000+89062500000+89062500000+89062500000+89375000000+89062500000
1442+86562500000+82500000000+70625000000+56562500000+57500000000+70625000000
1411+81562500000+85937500000+89375000000+90625000000+91875000000+92812500000
1379+93437500000+93437500000+94062500000+94375000000+94687500000+94687500000
1347+94687500000+94687500000+94687500000+94375000000+94062500000+93750000000
1316+93437500000+93125000000+93125000000+92812500000+92812500000+92812500000
1284+92500000000+91562500000+90312500000+85625000000+84062500000+85000000000
1253+87500000000+85937500000+82812500000+77500000000+71875000000+63437500000
1221+53125000000+40625000000+29687500000+18750000000+14375000000+14687500000
1189+20937500000+30625000000+42500000000+53125000000+60625000000+66562500000
1158+70625000000+74062500000+76875000000+79375000000+82187500000+83750000000
1126+80937500000+73437500000+59687500000+42187500000+27187500000+15937500000
1095+13125000000+13750000000+20937500000+30312500000+38749999999+45937500000
1063+51562500000+55937500000+59375000000+62812500000+65000000000+66562500000
1032+68750000000+70625000000+72187500000+73125000000+74062500000+74687500000
1000+75000000000+75312500000+75937500000+76250000000+76875000000+76875000000
968+76562500000+76250000000+75312500000+74375000000+72812500000+70937500000
937+68437500000+65937500000+63750000000+61562500000+59687500000+58125000000
905+56250000000+54687500000+53437500000+52812500000+52812500000+53437500000
874+54687500000+56875000000+60312500000+63750000000+65937500000+66875000000
842+64375000000+59375000000+45937500000+32187500000+31562500000+40937500000
811+55625000000+65937500000+72500000000+77187500000+79375000000+82187500000
779+83750000000+84687500000+85312500000+86562500000+87812500000+87187500000
747+85625000000+87187500000+89687500000+89375000000+89375000000+89062500000
716+89062500000+88750000000+88750000000+88750000000+88750000000+88750000000
684+88437500000+88437500000+88437500000+88437500000+88437500000+88437500000
653+88437500000+88750000000+89062500000+89375000000+89375000000+89687500000
621+90000000000+90312500000+90625000000+90937500000+90937500000+91562500000
589+91562500000+91562500000+91562500000+91250000000+91250000000+91250000000
558+91250000000+91250000000+91562500000+91250000000+91250000000+90937500000
526+90312500000+89687500000+88750000000+88125000000+87500000000+87500000000
495+87500000000+88125000000+88750000000+90000000000+91250000000+92187500000
463+92812500000+92812500000+92187500000+91250000000+90625000000+89375000000
432+88125000000+86875000000+86250000000+85937500000+85312500000+85312500000
400+85000000000
##END=
