##TITLE=diphenyl ether
##JCAMP-DX=4.24
##DATA TYPE=INFRARED SPECTRUM
##DATE=10/06/2025
##SAMPLING PROCEDURE=ATR
##ORIGIN=SDBS
##XUNITS=1/CM
##YUNITS=TRANSMITTANCE
##RESOLUTION=5.2631578947368425
##FIRSTX=4000.0
##LASTX=400.0
##DELTAX=-5.2631578947368425
##MAXY=95.0
##MINY=0.0
##XFACTOR=1
##YFACTOR=1
##NPOINTS=685
##FIRSTY=0.0
##XYDATA=(X++(Y..Y))
4000+0+93437500000+93437500000+93125000000+93125000000+93125000000
3968+93437500000+93437500000+93125000000+93125000000+93125000000+93125000000
3937+93125000000+93125000000+93125000000+93125000000+93125000000+93125000000
3905+93437500000+93750000000+93750000000+93750000000+93750000000+93750000000
3874+93750000000+93750000000+94062500000+94062500000+94062500000+94062500000
3842+94062500000+94062500000+94062500000+94062500000+94375000000+94375000000
3811+94062500000+93437500000+93437500000+93437500000+93437500000+93437500000
3779+93125000000+92812500000+92812500000+92500000000+92500000000+92500000000
3747+92500000000+92812500000+93125000000+93437500000+94062500000+94062500000
3716+94062500000+94062500000+94062500000+94062500000+94062500000+94375000000
3684+94375000000+94687500000+94687500000+94375000000+94375000000+94687500000
3653+94687500000+94687500000+94687500000+94375000000+94375000000+94375000000
3621+94687500000+94687500000+94687500000+94687500000+94687500000+94687500000
3589+95000000000+94687500000+94687500000+94687500000+94687500000+94687500000
3558+94687500000+94687500000+94687500000+94687500000+94687500000+94375000000
3526+94375000000+94375000000+94687500000+94687500000+94375000000+94375000000
3495+94375000000+94375000000+94375000000+94375000000+94062500000+94062500000
3463+93750000000+93437500000+93125000000+92812500000+91875000000+91562500000
3432+91250000000+91250000000+91250000000+90937500000+90937500000+90625000000
3400+90000000000+89375000000+87812500000+84687500000+75625000000+70625000000
3368+65625000000+60625000000+51875000000+50000000000+50312500000+54375000000
3337+46562499999+43750000000+53750000000+57812500000+68750000000+70625000000
3305+81562500000+86875000000+89375000000+90312500000+90937500000+91875000000
3274+92187500000+92187500000+92500000000+92500000000+92812500000+92812500000
3242+92812500000+92500000000+92500000000+92187500000+92187500000+92187500000
3211+92187500000+92812500000+93437500000+93437500000+93125000000+93125000000
3179+93437500000+93750000000+93750000000+93437500000+93437500000+93437500000
3147+93437500000+93437500000+93125000000+92812500000+92812500000+92812500000
3116+92812500000+93437500000+93750000000+93750000000+93437500000+93437500000
3084+93750000000+93750000000+93750000000+93437500000+93125000000+93125000000
3053+92812500000+91875000000+90937500000+90937500000+91562500000+92812500000
3021+91875000000+90937500000+90625000000+90937500000+91250000000+91875000000
2989+91875000000+92187500000+92187500000+92187500000+92500000000+92187500000
2958+91875000000+91250000000+90625000000+88750000000+88125000000+88125000000
2926+88437500000+85937500000+81875000000+78125000000+78125000000+83437500000
2895+86250000000+84687500000+84687500000+86562500000+90312500000+90625000000
2863+90937500000+90937500000+90937500000+91250000000+91250000000+91250000000
2832+91250000000+91250000000+92187500000+92812500000+92187500000+92187500000
2800+92500000000+93125000000+93750000000+92812500000+90625000000+90312500000
2768+90937500000+92812500000+94062500000+94375000000+94062500000+93750000000
2737+93750000000+93750000000+94062500000+93750000000+93437500000+93437500000
2705+93750000000+93750000000+93750000000+93437500000+92812500000+92500000000
2674+92500000000+92187500000+90312500000+84062500000+84062500000+87500000000
2642+82187500000+78437500000+78125000000+81562500000+87500000000+89687500000
2611+88125000000+86562500000+84375000000+82500000000+82187500000+82187500000
2579+83750000000+85625000000+85312500000+83750000000+82187500000+81250000000
2547+80625000000+79687500000+77187500000+74687500000+74062500000+74062500000
2516+75625000000+79687500000+83125000000+85312500000+85937500000+86562500000
2484+87500000000+89062500000+89687500000+89687500000+89062500000+88437500000
2453+87500000000+85937500000+84062500000+82500000000+80937500000+80937500000
2421+80937500000+81562500000+81875000000+82187500000+83125000000+84375000000
2389+86250000000+87812500000+89375000000+90625000000+91250000000+91562500000
2358+90937500000+90625000000+89687500000+88437500000+87187500000+85625000000
2326+84687500000+83125000000+82500000000+82187500000+82500000000+83437500000
2295+85625000000+86875000000+88437500000+89375000000+89687500000+89375000000
2263+88750000000+87500000000+86562500000+85312500000+84375000000+83750000000
2232+83125000000+81875000000+81250000000+80937500000+81250000000+81875000000
2200+83750000000+85937500000+87500000000+88437500000+89687500000+90312500000
2168+90625000000+90312500000+89687500000+88125000000+87500000000+87187500000
2137+87187500000+86875000000+86562500000+86250000000+85937500000+85625000000
2105+85312500000+84062500000+82812500000+80625000000+77812500000+71250000000
2074+60937500000+48750000000+40312499999+30937500000+20000000000+12187500000
2042+11875000000+9375000000+9062500000+16875000000+29687500000+40312499999
2011+43125000000+51875000000+62500000000+66875000000+66250000000+65937500000
1979+66875000000+69687500000+74375000000+77812500000+78437500000+77500000000
1947+75625000000+72187500000+67500000000+61250000000+52812500000+39062500000
1916+23750000000+9687500000+5625000000+4687500000+5937500000+10000000000
1884+15625000000+21250000000+28125000000+38749999999+42500000000+39062500000
1853+39062500000+52187500000+66875000000+76250000000+80312500000+84062500000
1821+86562500000+88125000000+89062500000+89375000000+89375000000+88437500000
1789+87187500000+85312500000+83125000000+81562500000+80625000000+80625000000
1758+80937500000+82500000000+84375000000+85625000000+85000000000+84062500000
1726+84062500000+84687500000+83437500000+81250000000+75937500000+67500000000
1695+58750000000+56250000000+56250000000+60312500000+65312500000+66875000000
1663+66562500000+66875000000+66562500000+65000000000+64062500000+60000000000
1632+52500000000+46250000000+41874999999+42187500000+48437500000+55625000000
1600+57187500000+53437500000+45312500000+35625000000+22500000000+12187500000
1568+7812500000+6250000000+5937500000+5625000000+5937500000+7187500000
1537+11250000000+19687500000+30625000000+40625000000+47812500000+52500000000
1505+43125000000+39687500000+40937500000+49687499999+56562500000+56562500000
1474+51250000000+48750000000+42812500000+30312500000+21875000000+22500000000
1442+33125000000+40937500000+50312500000+68437500000+77500000000+81562500000
1411+84687500000+86875000000+88437500000+89375000000+88437500000+85937500000
1379+85000000000+85000000000+86250000000+88125000000+89375000000+89062500000
1347+86875000000+81562500000+66250000000+40937500000+34062500000+35312500000
1316+56875000000+75625000000+85000000000+88750000000+90625000000+90937500000
1284+90625000000+90000000000+88125000000+78750000000+42812500000+32812500000
1253+42500000000+68125000000+77812500000+78750000000+73437500000+76250000000
1221+81562500000+82187500000+82187500000+80937500000+80000000000+80000000000
1189+81250000000+81875000000+82187500000+81875000000+82187500000+84375000000
1158+87500000000+89375000000+90312500000+90625000000+90000000000+89062500000
1126+87812500000+84687500000+79375000000+70625000000+61875000000+55625000000
1095+55000000000+54375000000+53750000000+53437500000+54062500000+60000000000
1063+69062500000+61250000000+54375000000+26875000000+15000000000+15312500000
1032+34375000000+59687500000+70937500000+75625000000+79062500000+78750000000
1000+74687500000+70312500000+66562500000+65312500000+65312500000+67500000000
968+65937500000+58750000000+45312500000+34375000000+31875000000+32500000000
937+37500000000+44999999999+51562500000+55625000000+56562500000+54375000000
905+49062500000+40937500000+29062500000+17500000000+11562500000+9687500000
874+9687500000+17500000000+37812500000+55312500000+64687500000+71562500000
842+75937500000+78125000000+78437500000+76250000000+70625000000+58125000000
811+35000000000+15937500000+10000000000+10000000000+16250000000+43125000000
779+64062500000+74375000000+79375000000+81250000000+80312500000+80312500000
747+80937500000+84687500000+89062500000+91250000000+92187500000+91562500000
716+89687500000+86562500000+82500000000+80625000000+80000000000+82812500000
684+87187500000+80937500000+80937500000+85937500000+90000000000+91875000000
653+93125000000+93750000000+94375000000+94062500000+92500000000+87187500000
621+83125000000+91875000000+93125000000+93437500000+93750000000+93750000000
589+93125000000+92812500000+92187500000+91250000000+90000000000+88750000000
558+86250000000+82187500000+74062500000+62500000000+45312500000+40937500000
526+41874999999+49062500000+55312500000+50625000000+48750000000+49062500000
495+52812500000+61562500000+67812500000+76562500000+81250000000+84062500000
463+87500000000+88750000000+89375000000+89062500000+88125000000+86562500000
432+85000000000+82812500000+80937500000+78750000000+76875000000+75312500000
400+74687500000
##END=
