##TITLE=diphenylmethane
##JCAMP-DX=4.24
##DATA TYPE=INFRARED SPECTRUM
##DATE=10/06/2025
##SAMPLING PROCEDURE=ATR
##ORIGIN=SDBS
##XUNITS=1/CM
##YUNITS=TRANSMITTANCE
##RESOLUTION=5.2631578947368425
##FIRSTX=4000.0
##LASTX=400.0
##DELTAX=-5.2631578947368425
##MAXY=95.0
##MINY=0.0
##XFACTOR=1
##YFACTOR=1
##NPOINTS=685
##FIRSTY=0.0
##XYDATA=(X++(Y..Y))
4000+0+91562500000+91562500000+91562500000+91875000000+91875000000
3968+91875000000+91875000000+91875000000+91875000000+91562500000+91562500000
3937+91562500000+91562500000+91562500000+91562500000+91562500000+91562500000
3905+91562500000+91562500000+91875000000+91875000000+91875000000+91875000000
3874+91875000000+91875000000+91875000000+92187500000+92187500000+92187500000
3842+92187500000+92187500000+92500000000+92500000000+92500000000+92187500000
3811+92187500000+92187500000+92187500000+92187500000+92187500000+92187500000
3779+92187500000+91875000000+91562500000+91250000000+91250000000+91250000000
3747+91562500000+91562500000+91562500000+91875000000+92187500000+92500000000
3716+92812500000+92812500000+92812500000+93125000000+93125000000+93125000000
3684+93125000000+93125000000+92812500000+92812500000+92812500000+92812500000
3653+92812500000+92812500000+93125000000+93125000000+93125000000+93125000000
3621+93125000000+93125000000+93125000000+93125000000+93125000000+93437500000
3589+93437500000+93437500000+93125000000+93125000000+93125000000+93437500000
3558+93437500000+93437500000+93437500000+93437500000+93437500000+93125000000
3526+93125000000+93125000000+93125000000+93125000000+93125000000+93125000000
3495+93125000000+92812500000+92812500000+92812500000+92812500000+93125000000
3463+92812500000+92812500000+92812500000+92812500000+92812500000+92812500000
3432+92187500000+91875000000+91562500000+91562500000+91562500000+91250000000
3400+90625000000+89687500000+87187500000+79062500000+75312500000+75312500000
3368+49375000000+41874999999+54375000000+36250000000+32812500000+41562500000
3337+55000000000+36562500000+17812500000+17812500000+39687500000+63125000000
3305+63437500000+73750000000+82187500000+83750000000+85937500000+86562500000
3274+83750000000+78437500000+73750000000+66562500000+60000000000+56875000000
3242+56562500000+56875000000+63750000000+73750000000+79687500000+84687500000
3211+84687500000+78750000000+73437500000+72812500000+76562500000+84687500000
3179+89687500000+91875000000+92812500000+92500000000+92500000000+92500000000
3147+92500000000+92812500000+93125000000+93437500000+93437500000+93750000000
3116+94062500000+94062500000+94375000000+94375000000+94375000000+94375000000
3084+94375000000+94375000000+94375000000+94062500000+94062500000+93125000000
3053+92812500000+92812500000+93125000000+93125000000+93125000000+93125000000
3021+93125000000+93125000000+93750000000+94062500000+94375000000+94375000000
2989+94062500000+94062500000+93750000000+93750000000+94062500000+94062500000
2958+94062500000+94375000000+94375000000+94375000000+94375000000+94375000000
2926+94375000000+94375000000+94375000000+94375000000+94062500000+94062500000
2895+94062500000+94062500000+94375000000+94375000000+94375000000+94375000000
2863+94375000000+94062500000+94062500000+94062500000+94062500000+93750000000
2832+93750000000+93750000000+94062500000+94375000000+94375000000+94375000000
2800+94375000000+94062500000+94062500000+94375000000+94375000000+94687500000
2768+94687500000+94687500000+94687500000+94687500000+94687500000+94687500000
2737+94687500000+94687500000+94687500000+94687500000+94687500000+94687500000
2705+95000000000+94687500000+94687500000+94687500000+94687500000+95000000000
2674+94687500000+94687500000+94687500000+94687500000+94687500000+94687500000
2642+94687500000+94687500000+94687500000+94687500000+94687500000+94375000000
2611+94375000000+94062500000+93125000000+92500000000+92500000000+92500000000
2579+91562500000+89375000000+87187500000+85937500000+85000000000+83750000000
2547+80937500000+78750000000+78437500000+79375000000+83125000000+87187500000
2516+89062500000+90625000000+91562500000+91875000000+91562500000+91250000000
2484+90312500000+89375000000+88437500000+88125000000+87812500000+87500000000
2453+86875000000+86250000000+86250000000+86875000000+87812500000+88437500000
2421+89062500000+89062500000+89062500000+89062500000+90000000000+90937500000
2389+91875000000+91875000000+90937500000+90000000000+89062500000+87812500000
2358+86250000000+84062500000+81875000000+81250000000+81875000000+83750000000
2326+86875000000+88750000000+89687500000+89687500000+89375000000+89062500000
2295+88750000000+88437500000+88437500000+88437500000+89062500000+89687500000
2263+90625000000+91250000000+91562500000+91562500000+91875000000+91875000000
2232+91875000000+92187500000+92500000000+92812500000+93125000000+93125000000
2200+93437500000+93437500000+93750000000+93750000000+93750000000+93750000000
2168+93437500000+93125000000+92187500000+90625000000+89687500000+89375000000
2137+89687500000+90312500000+90937500000+91562500000+92187500000+92500000000
2105+92187500000+91562500000+90312500000+89062500000+86875000000+81562500000
2074+77187500000+68437500000+48750000000+30000000000+31562500000+60625000000
2042+74375000000+65000000000+64687500000+76875000000+82500000000+85625000000
2011+88125000000+89687500000+86875000000+85000000000+87187500000+88750000000
1979+88750000000+88750000000+89375000000+90625000000+91250000000+91562500000
1947+90625000000+89375000000+88125000000+83750000000+75312500000+48750000000
1916+17812500000+10625000000+14375000000+39062500000+67187500000+80625000000
1884+86250000000+87187500000+85312500000+80000000000+60000000000+30000000000
1853+15625000000+15625000000+39375000000+58437500000+60000000000+56875000000
1821+59687500000+73750000000+82812500000+87187500000+89062500000+90312500000
1789+90625000000+90625000000+90000000000+89062500000+87500000000+85937500000
1758+85937500000+87187500000+89062500000+90937500000+91875000000+92500000000
1726+92812500000+92500000000+91875000000+90937500000+89375000000+86250000000
1695+84062500000+84062500000+85000000000+83125000000+82812500000+84687500000
1663+86562500000+88750000000+89687500000+90000000000+89687500000+89062500000
1632+88437500000+88437500000+88437500000+89375000000+90312500000+90937500000
1600+91562500000+91875000000+92500000000+92812500000+92500000000+92500000000
1568+92500000000+92812500000+92812500000+93125000000+93125000000+92812500000
1537+92500000000+91562500000+90625000000+89375000000+85937500000+82500000000
1505+82187500000+83437500000+85312500000+83437500000+80312500000+76875000000
1474+76875000000+80000000000+83750000000+85625000000+86250000000+84687500000
1442+82187500000+82500000000+85625000000+89062500000+90937500000+91875000000
1411+92500000000+92812500000+92812500000+92500000000+91562500000+88750000000
1379+86875000000+86562500000+86875000000+87812500000+88750000000+87812500000
1347+82500000000+65625000000+44999999999+43125000000+48124999999+64062500000
1316+79062500000+87187500000+90625000000+91875000000+92500000000+91875000000
1284+90625000000+86250000000+65312500000+30000000000+36250000000+75937500000
1253+83750000000+87812500000+89062500000+89062500000+80000000000+79687500000
1221+89375000000+89687500000+88750000000+87500000000+87500000000+87500000000
1189+87500000000+87187500000+87187500000+87812500000+89062500000+90000000000
1158+89687500000+88125000000+85312500000+82500000000+82187500000+82500000000
1126+83125000000+81875000000+80937500000+80625000000+80937500000+83125000000
1095+86250000000+87187500000+86562500000+85937500000+85937500000+85937500000
1063+87187500000+88437500000+90000000000+90937500000+91250000000+91250000000
1032+90937500000+90000000000+88125000000+85312500000+84062500000+84375000000
1000+86250000000+87812500000+86562500000+82500000000+80625000000+79687500000
968+78750000000+78750000000+78750000000+79375000000+82500000000+85625000000
937+87187500000+88125000000+88125000000+88125000000+87500000000+86875000000
905+85625000000+83437500000+80625000000+75625000000+67812500000+53750000000
874+27812500000+10937500000+8125000000+8125000000+9062500000+10625000000
842+17812500000+34062500000+46250000000+44375000000+24062500000+8750000000
811+5312500000+4687500000+5937500000+27812500000+57500000000+72500000000
779+77500000000+77500000000+78125000000+80937500000+83750000000+87500000000
747+89687500000+90625000000+91250000000+91562500000+91250000000+90312500000
716+88750000000+85312500000+71250000000+70312500000+75625000000+50312500000
684+21875000000+21875000000+51250000000+79375000000+86562500000+90000000000
653+91562500000+92500000000+93125000000+93750000000+94062500000+93750000000
621+92812500000+88437500000+55312500000+53437500000+68437500000+88437500000
589+92500000000+93437500000+93750000000+94062500000+94375000000+94375000000
558+94062500000+94062500000+94062500000+94062500000+93750000000+93750000000
526+93437500000+93125000000+92812500000+91562500000+90625000000+85937500000
495+68125000000+51562500000+51250000000+50937500000+53750000000+60312500000
463+65000000000+70625000000+77187500000+81562500000+85000000000+86875000000
432+88125000000+88750000000+88437500000+88125000000+87500000000+87187500000
400+87187500000
##END=
