##TITLE=dipropylamine
##JCAMP-DX=4.24
##DATA TYPE=INFRARED SPECTRUM
##DATE=10/06/2025
##SAMPLING PROCEDURE=ATR
##ORIGIN=SDBS
##XUNITS=1/CM
##YUNITS=TRANSMITTANCE
##RESOLUTION=5.2631578947368425
##FIRSTX=4000.0
##LASTX=400.0
##DELTAX=-5.2631578947368425
##MAXY=95.0
##MINY=0.0
##XFACTOR=1
##YFACTOR=1
##NPOINTS=685
##FIRSTY=0.0
##XYDATA=(X++(Y..Y))
4000+0+84062500000+84062500000+84062500000+84375000000+84062500000
3968+83750000000+83750000000+83750000000+83750000000+83750000000+83750000000
3937+84062500000+84062500000+84062500000+84062500000+83750000000+83750000000
3905+83750000000+83750000000+83750000000+84062500000+84375000000+84375000000
3874+84375000000+84375000000+84375000000+84375000000+84687500000+84687500000
3842+84375000000+84687500000+84375000000+84062500000+83750000000+83750000000
3811+83750000000+84062500000+84062500000+83437500000+82812500000+81875000000
3779+81875000000+81875000000+82187500000+82812500000+83125000000+82812500000
3747+82500000000+82187500000+81875000000+81562500000+81250000000+80937500000
3716+80312500000+79687500000+78750000000+78125000000+77187500000+76562500000
3684+75937500000+75000000000+74062500000+73437500000+73125000000+72187500000
3653+71562500000+70625000000+70000000000+69375000000+69062500000+68750000000
3621+68125000000+67812500000+67500000000+67187500000+66875000000+66562500000
3589+66250000000+65937500000+65625000000+65625000000+65312500000+65312500000
3558+65312500000+65000000000+65000000000+64687500000+64062500000+63437500000
3526+62187500000+61562500000+61250000000+60937500000+60937500000+60937500000
3495+61250000000+61875000000+62812500000+63750000000+64687500000+65625000000
3463+66250000000+66562500000+66875000000+67187500000+67500000000+68125000000
3432+68437500000+69062500000+69687500000+70312500000+70625000000+71250000000
3400+71562500000+71875000000+72187500000+72500000000+72812500000+73125000000
3368+73125000000+73125000000+72812500000+72500000000+72187500000+71562500000
3337+70937500000+70312500000+69687500000+68750000000+66875000000+64687500000
3305+59687500000+49375000000+32812500000+17187500000+7500000000+4687500000
3274+4687500000+9687500000+8750000000+8125000000+9375000000+12187500000
3242+17812500000+21875000000+22812500000+18437500000+11250000000+11250000000
3211+18437500000+23750000000+30937500000+35625000000+31875000000+27500000000
3179+23125000000+22812500000+23750000000+27500000000+34687500000+42500000000
3147+48124999999+50312500000+52812500000+54062500000+56875000000+58750000000
3116+59062500000+62187500000+65625000000+67812500000+70000000000+70937500000
3084+71875000000+73125000000+73750000000+74687500000+75937500000+76562500000
3053+76875000000+78125000000+79687500000+80000000000+80312500000+80625000000
3021+80937500000+80937500000+80937500000+80937500000+80937500000+81250000000
2989+81875000000+82187500000+82812500000+83125000000+83437500000+84062500000
2958+84687500000+84687500000+84687500000+84687500000+84687500000+84375000000
2926+84375000000+84375000000+84375000000+84375000000+84375000000+84375000000
2895+84375000000+84375000000+84687500000+84687500000+84687500000+85000000000
2863+85000000000+85312500000+85625000000+85625000000+85937500000+85937500000
2832+86250000000+86250000000+86562500000+86875000000+86875000000+87187500000
2800+87187500000+87187500000+87500000000+87500000000+87500000000+87812500000
2768+87812500000+88125000000+88125000000+88125000000+88437500000+88750000000
2737+89062500000+89375000000+89375000000+89375000000+89375000000+89687500000
2705+89687500000+90312500000+90312500000+90625000000+90625000000+90625000000
2674+90937500000+90937500000+91250000000+91250000000+91250000000+91562500000
2642+91875000000+91875000000+91875000000+91875000000+91875000000+92187500000
2611+92187500000+92187500000+92187500000+92500000000+92500000000+92500000000
2579+92500000000+92500000000+92500000000+92812500000+92812500000+92812500000
2547+93125000000+93125000000+93437500000+93437500000+93437500000+93750000000
2516+93750000000+93750000000+93437500000+93437500000+93437500000+93437500000
2484+93437500000+93437500000+93437500000+93437500000+93750000000+93750000000
2453+93750000000+93750000000+93437500000+93437500000+93437500000+93437500000
2421+93437500000+93437500000+93437500000+93437500000+93437500000+93750000000
2389+94062500000+94062500000+94375000000+94687500000+94687500000+94687500000
2358+95000000000+94687500000+94687500000+94687500000+94687500000+94687500000
2326+94687500000+94687500000+94687500000+94687500000+94687500000+94687500000
2295+94687500000+94687500000+94375000000+94062500000+93437500000+92812500000
2263+92187500000+91875000000+91875000000+91875000000+91875000000+91875000000
2232+91875000000+91875000000+91875000000+91562500000+90937500000+90000000000
2200+89062500000+88125000000+87187500000+85937500000+84375000000+83437500000
2168+82500000000+81875000000+81875000000+81562500000+81250000000+81250000000
2137+81250000000+81250000000+81250000000+80625000000+80000000000+78750000000
2105+78125000000+77187500000+76562500000+76562500000+76875000000+77500000000
2074+79062500000+80625000000+82187500000+82812500000+83437500000+83750000000
2042+83750000000+83437500000+83125000000+82187500000+81562500000+80625000000
2011+79375000000+78437500000+77812500000+77187500000+76875000000+76875000000
1979+76562500000+76562500000+76562500000+76875000000+77187500000+77500000000
1947+77500000000+77812500000+77500000000+76562500000+75312500000+73437500000
1916+70937500000+68125000000+64062500000+58750000000+50625000000+41874999999
1884+36875000000+33750000000+30000000000+27500000000+25937500000+26875000000
1853+31250000000+39062500000+44999999999+51250000000+55312500000+59375000000
1821+63750000000+67812500000+69062500000+63125000000+57187500000+56250000000
1789+57187500000+63437500000+69687500000+72500000000+72187500000+67500000000
1758+56250000000+48750000000+48750000000+56250000000+64687500000+68437500000
1726+70000000000+71250000000+73125000000+75000000000+75937500000+71875000000
1695+71875000000+73750000000+78437500000+81875000000+78750000000+75312500000
1663+71875000000+69375000000+68437500000+67500000000+67500000000+67812500000
1632+69375000000+69687500000+69687500000+70000000000+71250000000+71250000000
1600+69375000000+67500000000+67500000000+68750000000+70312500000+73750000000
1568+76562500000+78437500000+78750000000+79375000000+80312500000+80000000000
1537+80000000000+80937500000+84375000000+86562500000+87812500000+89062500000
1505+88750000000+88437500000+87812500000+87500000000+86875000000+85937500000
1474+84687500000+84062500000+83750000000+83437500000+82812500000+80312500000
1442+75937500000+70000000000+64687500000+58437500000+54687500000+50937500000
1411+45937500000+44999999999+46250000000+51562500000+60312500000+70000000000
1379+74687500000+75937500000+75937500000+75312500000+75000000000+74375000000
1347+73437500000+73437500000+74062500000+74375000000+74687500000+75000000000
1316+75625000000+76562500000+78750000000+82187500000+85312500000+87500000000
1284+89687500000+88750000000+88437500000+88125000000+87500000000+86875000000
1253+86562500000+86562500000+86562500000+86875000000+87812500000+89062500000
1221+90937500000+92812500000+93750000000+94062500000+93750000000+93750000000
1189+93750000000+93750000000+93750000000+94062500000+94375000000+94375000000
1158+94687500000+94375000000+93750000000+92812500000+91562500000+89687500000
1126+88437500000+87187500000+85625000000+84062500000+82500000000+80625000000
1095+80000000000+79687500000+79687500000+80000000000+80312500000+80625000000
1063+81250000000+81875000000+82500000000+83125000000+83437500000+83750000000
1032+84375000000+84687500000+85312500000+85625000000+85937500000+85937500000
1000+85312500000+84687500000+83437500000+81875000000+80000000000+77500000000
968+75312500000+74687500000+74687500000+74375000000+73750000000+73125000000
937+72500000000+72187500000+71875000000+71875000000+72187500000+72187500000
905+72500000000+72187500000+70312500000+67187500000+65625000000+65000000000
874+64375000000+63750000000+63125000000+62812500000+62812500000+62812500000
842+63125000000+64062500000+65000000000+66875000000+68125000000+69687500000
811+70937500000+72187500000+73437500000+75000000000+76250000000+77500000000
779+79062500000+80000000000+80625000000+81250000000+82187500000+82812500000
747+83750000000+84375000000+85312500000+85937500000+86562500000+87187500000
716+87812500000+88437500000+88750000000+89375000000+89687500000+90000000000
684+90000000000+90312500000+90312500000+90312500000+90000000000+90000000000
653+90000000000+90000000000+90312500000+90625000000+90937500000+91875000000
621+92500000000+93125000000+94062500000+94375000000+94687500000+94375000000
589+94062500000+93750000000+93125000000+92500000000+91875000000+91250000000
558+90625000000+90312500000+90000000000+89687500000+89375000000+89375000000
526+89062500000+88750000000+88750000000+88437500000+88750000000+89062500000
495+89687500000+90312500000+90937500000+90937500000+90625000000+89687500000
463+88750000000+87187500000+85937500000+84375000000+83437500000+82187500000
432+80000000000+77500000000+75625000000+72812500000+70625000000+69062500000
400+68437500000
##END=
