##TITLE=DL-norleucine
##JCAMP-DX=4.24
##DATA TYPE=INFRARED SPECTRUM
##DATE=10/06/2025
##SAMPLING PROCEDURE=ATR
##ORIGIN=SDBS
##XUNITS=1/CM
##YUNITS=TRANSMITTANCE
##RESOLUTION=5.2631578947368425
##FIRSTX=4000.0
##LASTX=400.0
##DELTAX=-5.2631578947368425
##MAXY=95.0
##MINY=0.0
##XFACTOR=1
##YFACTOR=1
##NPOINTS=685
##FIRSTY=0.0
##XYDATA=(X++(Y..Y))
4000+0+89687500000+89375000000+89375000000+89375000000+89687500000
3968+89687500000+90000000000+90000000000+90000000000+90000000000+90000000000
3937+90000000000+90000000000+89687500000+89687500000+89687500000+90000000000
3905+90000000000+90000000000+90000000000+90000000000+90000000000+90000000000
3874+90312500000+90625000000+90625000000+90625000000+90625000000+90625000000
3842+90312500000+90312500000+90312500000+90312500000+90625000000+90625000000
3811+90937500000+90937500000+90937500000+90937500000+90937500000+90937500000
3779+90937500000+90937500000+90937500000+90937500000+90937500000+91250000000
3747+91250000000+91250000000+91250000000+91250000000+91250000000+91250000000
3716+91250000000+91250000000+91562500000+91562500000+91562500000+91562500000
3684+91562500000+91250000000+91250000000+90937500000+90937500000+90937500000
3653+91250000000+91250000000+91250000000+91250000000+91250000000+91250000000
3621+91250000000+91250000000+91250000000+91250000000+91250000000+91250000000
3589+91250000000+91250000000+90937500000+90937500000+90625000000+90625000000
3558+90625000000+90625000000+90625000000+90625000000+90625000000+90312500000
3526+90312500000+90000000000+89687500000+89375000000+88750000000+88437500000
3495+88125000000+87500000000+86875000000+86562500000+86250000000+85625000000
3463+85000000000+84687500000+83750000000+82812500000+81562500000+80625000000
3432+79375000000+77500000000+76250000000+75312500000+74062500000+72812500000
3400+71875000000+70625000000+68750000000+66875000000+64687500000+62500000000
3368+60000000000+57500000000+55000000000+53750000000+52500000000+50000000000
3337+47812500000+45312500000+43125000000+40937500000+39062500000+37500000000
3305+34375000000+31562500000+26562500000+20625000000+12812500000+8750000000
3274+7187500000+7812500000+5937500000+4687500000+4687500000+5000000000
3242+7187500000+9062500000+11875000000+14062500000+15312500000+12812500000
3211+11562500000+9687500000+10000000000+17187500000+29687500000+37187499999
3179+41874999999+44687500000+46250000000+47812500000+49375000000+51562500000
3147+52500000000+51875000000+51250000000+51250000000+54062500000+55625000000
3116+55937500000+57187500000+57812500000+57187500000+55937500000+55625000000
3084+54375000000+54062500000+54062500000+55312500000+58437500000+61250000000
3053+64375000000+66875000000+66875000000+67187500000+67187500000+64375000000
3021+63437500000+63750000000+65312500000+66875000000+70625000000+72812500000
2989+74687500000+75937500000+77187500000+78437500000+79062500000+80000000000
2958+80625000000+80937500000+80937500000+80937500000+81250000000+83125000000
2926+84062500000+84375000000+85000000000+85312500000+85625000000+85937500000
2895+86562500000+86875000000+87500000000+87812500000+88125000000+88437500000
2863+88437500000+88437500000+88437500000+88437500000+88125000000+88125000000
2832+88125000000+88125000000+88437500000+89687500000+90625000000+90937500000
2800+91250000000+91562500000+91250000000+91250000000+91250000000+91250000000
2768+91250000000+91562500000+91562500000+91875000000+91875000000+91875000000
2737+91875000000+91875000000+91562500000+90937500000+90312500000+90000000000
2705+89687500000+88437500000+87187500000+85937500000+85000000000+85000000000
2674+85000000000+85625000000+86562500000+88437500000+89062500000+89687500000
2642+90312500000+90625000000+90937500000+91562500000+92187500000+92500000000
2611+92812500000+93125000000+93125000000+93437500000+93437500000+93437500000
2579+93750000000+93750000000+93750000000+93750000000+94062500000+94062500000
2547+94062500000+94062500000+94375000000+94375000000+94375000000+94375000000
2516+94687500000+94687500000+94687500000+94375000000+94375000000+94375000000
2484+94375000000+94375000000+94375000000+94375000000+94375000000+94375000000
2453+94375000000+94375000000+94375000000+94375000000+94375000000+94375000000
2421+94375000000+94375000000+94375000000+94375000000+94375000000+94375000000
2389+94375000000+94687500000+94687500000+94687500000+94687500000+95000000000
2358+94687500000+94687500000+94687500000+94687500000+94687500000+94375000000
2326+94375000000+94062500000+94062500000+94062500000+94062500000+94062500000
2295+93750000000+93750000000+93437500000+93125000000+92812500000+92500000000
2263+92187500000+91562500000+91250000000+90937500000+90625000000+90625000000
2232+90312500000+90312500000+90000000000+89687500000+89375000000+88750000000
2200+88437500000+87500000000+86562500000+84687500000+83125000000+80312500000
2168+77187500000+72812500000+67812500000+60312500000+52812500000+46875000000
2137+45625000000+45937500000+50000000000+52812500000+53125000000+50312500000
2105+47500000000+44375000000+41874999999+40000000000+40000000000+40000000000
2074+38125000000+37500000000+37812500000+39375000000+37812500000+32812500000
2042+27187500000+22187500000+21562500000+22812500000+28750000000+35000000000
2011+41250000000+46875000000+51875000000+55937500000+60312500000+63125000000
1979+64687500000+65625000000+66875000000+63750000000+61250000000+58125000000
1947+53437500000+52187500000+52187500000+55312500000+60000000000+65000000000
1916+68750000000+71250000000+74062500000+74375000000+73125000000+69687500000
1884+63750000000+52187500000+40625000000+40625000000+41874999999+42500000000
1853+42812500000+46875000000+55000000000+59375000000+63750000000+64375000000
1821+57812500000+44375000000+33437500000+28750000000+28437500000+32500000000
1789+45312500000+57500000000+65625000000+70312500000+72187500000+68125000000
1758+64062500000+57812500000+56250000000+58437500000+59375000000+57500000000
1726+56562500000+45937500000+44687500000+50625000000+51562500000+35312500000
1695+32812500000+38749999999+53437500000+62812500000+67500000000+72812500000
1663+75312500000+77500000000+78750000000+78750000000+73437500000+73125000000
1632+72187500000+61562500000+57812500000+65625000000+76875000000+80937500000
1600+83125000000+84687500000+85625000000+85937500000+85000000000+82500000000
1568+82500000000+80312500000+74375000000+74375000000+80312500000+85000000000
1537+86250000000+87500000000+88125000000+88437500000+88437500000+88125000000
1505+87812500000+86250000000+83437500000+83437500000+85625000000+87812500000
1474+88437500000+88125000000+87187500000+85625000000+82187500000+78750000000
1442+78437500000+81562500000+84687500000+87187500000+88437500000+89375000000
1411+88437500000+87187500000+84375000000+74687500000+73750000000+81875000000
1379+87187500000+89062500000+90312500000+90937500000+90625000000+90000000000
1347+88125000000+84375000000+75312500000+66562500000+63437500000+68125000000
1316+80625000000+85000000000+87812500000+88750000000+89687500000+90312500000
1284+90937500000+91250000000+91250000000+91250000000+91250000000+91562500000
1253+91562500000+91562500000+91562500000+91875000000+91875000000+92187500000
1221+92187500000+92500000000+92187500000+92187500000+91875000000+91250000000
1189+90937500000+90625000000+90625000000+90625000000+90625000000+90625000000
1158+90937500000+90937500000+90937500000+90000000000+88125000000+82500000000
1126+78750000000+76875000000+78750000000+83750000000+86250000000+87812500000
1095+89687500000+90625000000+90937500000+91250000000+91562500000+91250000000
1063+90937500000+88437500000+80937500000+78750000000+78125000000+80000000000
1032+86875000000+89687500000+90937500000+91250000000+92187500000+92812500000
1000+93437500000+94062500000+94375000000+94375000000+94687500000+94687500000
968+94687500000+94375000000+93750000000+93437500000+93125000000+92812500000
937+93750000000+94062500000+94375000000+93750000000+92187500000+88750000000
905+89062500000+92187500000+93437500000+93750000000+93125000000+92500000000
874+91875000000+90937500000+89687500000+88750000000+82187500000+74062500000
842+73125000000+82500000000+85937500000+87812500000+80312500000+79062500000
811+67812500000+66562500000+75625000000+85937500000+90000000000+92187500000
779+93125000000+94062500000+94375000000+94375000000+94375000000+94687500000
747+94687500000+94375000000+94375000000+94375000000+94375000000+94375000000
716+94375000000+94375000000+94375000000+94375000000+94375000000+94375000000
684+94375000000+94062500000+94062500000+93750000000+93750000000+93437500000
653+92812500000+92500000000+91562500000+90625000000+88437500000+84375000000
621+75312500000+68750000000+69062500000+73437500000+80312500000+88437500000
589+91562500000+93125000000+93437500000+93437500000+93437500000+93125000000
558+92500000000+91875000000+90625000000+89062500000+87500000000+86250000000
526+85312500000+85000000000+85000000000+85000000000+85625000000+85625000000
495+84687500000+82812500000+80312500000+77500000000+75000000000+72812500000
463+71250000000+70312500000+70000000000+70000000000+70312500000+71250000000
432+72500000000+74062500000+75312500000+75937500000+76562500000+77187500000
400+77500000000
##END=
