##TITLE=DL-valine
##JCAMP-DX=4.24
##DATA TYPE=INFRARED SPECTRUM
##DATE=10/06/2025
##SAMPLING PROCEDURE=ATR
##ORIGIN=SDBS
##XUNITS=1/CM
##YUNITS=TRANSMITTANCE
##RESOLUTION=5.2631578947368425
##FIRSTX=4000.0
##LASTX=400.0
##DELTAX=-5.2631578947368425
##MAXY=94.6875
##MINY=0.0
##XFACTOR=1
##YFACTOR=1
##NPOINTS=685
##FIRSTY=0.0
##XYDATA=(X++(Y..Y))
4000+0+74687500000+74687500000+74687500000+75000000000+75000000000
3968+75312500000+75312500000+75312500000+75312500000+75312500000+75625000000
3937+75625000000+75625000000+75312500000+75312500000+75000000000+75000000000
3905+75312500000+75312500000+75625000000+75625000000+75312500000+75312500000
3874+75312500000+75312500000+75312500000+75312500000+75625000000+75625000000
3842+75937500000+75937500000+75937500000+76250000000+76250000000+76250000000
3811+76562500000+76562500000+76875000000+76875000000+76875000000+76875000000
3779+77187500000+77187500000+77187500000+77500000000+77500000000+77500000000
3747+77500000000+77500000000+77500000000+77500000000+77812500000+78125000000
3716+78437500000+78750000000+78750000000+79062500000+79062500000+79375000000
3684+79375000000+79375000000+79375000000+79375000000+79375000000+79375000000
3653+79062500000+79062500000+79062500000+79062500000+78750000000+78750000000
3621+78750000000+78437500000+78437500000+78125000000+78125000000+77812500000
3589+77812500000+77500000000+77500000000+77187500000+77187500000+76875000000
3558+76875000000+76875000000+76562500000+76562500000+76250000000+75937500000
3526+75625000000+75000000000+74687500000+74375000000+74062500000+73750000000
3495+73125000000+72500000000+72187500000+71250000000+70312500000+69375000000
3463+67812500000+66562500000+65000000000+63437500000+61562500000+60000000000
3432+58437500000+57187500000+55937500000+55000000000+54375000000+53750000000
3400+53437500000+53125000000+53125000000+53437500000+53750000000+54062500000
3368+54062500000+54062500000+53437500000+52500000000+51562500000+50312500000
3337+49062500000+47812500000+45937500000+43750000000+40000000000+35937500000
3305+30000000000+24062500000+18125000000+13125000000+9062500000+7187500000
3274+6562500000+6562500000+5937500000+5000000000+4687500000+4687500000
3242+5625000000+6875000000+7812500000+8750000000+9375000000+8437500000
3211+7812500000+7187500000+7500000000+10000000000+15937500000+23125000000
3179+29375000000+34375000000+38437500000+41250000000+43750000000+46875000000
3147+49062500000+50312500000+50937500000+50937500000+50312500000+48750000000
3116+47812500000+48124999999+48750000000+49687499999+50312500000+50625000000
3084+50625000000+50937500000+51562500000+52500000000+54062500000+54375000000
3053+54062500000+53437500000+52812500000+52187500000+51562500000+51562500000
3021+51562500000+51562500000+52187500000+52500000000+53125000000+53750000000
2989+54375000000+54687500000+55000000000+55625000000+56250000000+56875000000
2958+57500000000+57812500000+58750000000+59687500000+60625000000+60937500000
2926+61250000000+61562500000+62187500000+62500000000+62812500000+63125000000
2895+63125000000+63125000000+63750000000+65000000000+65937500000+66875000000
2863+67500000000+68125000000+68750000000+69375000000+70000000000+70625000000
2832+71562500000+72187500000+72500000000+73125000000+73437500000+73750000000
2800+73750000000+74375000000+74375000000+74375000000+74687500000+75000000000
2768+75312500000+75625000000+75625000000+75000000000+74375000000+73750000000
2737+73125000000+72500000000+71875000000+71562500000+70937500000+70937500000
2705+70937500000+71250000000+72187500000+73750000000+74687500000+75937500000
2674+77187500000+77812500000+78437500000+79062500000+79687500000+80312500000
2642+80625000000+80937500000+81562500000+82187500000+82812500000+83437500000
2611+84062500000+84375000000+84375000000+84687500000+84687500000+85000000000
2579+85000000000+85000000000+85000000000+85312500000+85312500000+85312500000
2547+85312500000+85312500000+85312500000+85625000000+85625000000+85937500000
2516+85937500000+86250000000+86250000000+86250000000+86562500000+86562500000
2484+86562500000+86875000000+86875000000+86875000000+86875000000+87187500000
2453+87187500000+87187500000+87500000000+87500000000+87500000000+87500000000
2421+87812500000+87812500000+87812500000+88125000000+88125000000+88125000000
2389+88437500000+88437500000+88437500000+88437500000+88437500000+88437500000
2358+88437500000+88437500000+88437500000+88437500000+88437500000+88437500000
2326+88125000000+88125000000+88125000000+88125000000+88125000000+87812500000
2295+87812500000+87500000000+86875000000+86250000000+85625000000+84687500000
2263+83750000000+83437500000+83437500000+83437500000+83437500000+83437500000
2232+83750000000+83750000000+83750000000+83750000000+83437500000+83437500000
2200+83125000000+83125000000+82812500000+82500000000+82187500000+81875000000
2168+81250000000+80625000000+79687500000+79062500000+78125000000+77187500000
2137+76250000000+74687500000+72812500000+70312500000+67500000000+64062500000
2105+60937500000+57500000000+55312500000+54062500000+53125000000+51250000000
2074+49062500000+44375000000+39375000000+35625000000+34375000000+34687500000
2042+39062500000+44999999999+51562500000+56875000000+61562500000+64062500000
2011+67187500000+69062500000+70937500000+71875000000+72187500000+71875000000
1979+70937500000+69062500000+66562500000+63125000000+59375000000+53750000000
1947+46875000000+39687500000+34375000000+30312500000+29062500000+29062500000
1916+30625000000+33750000000+37500000000+40000000000+39062500000+34062500000
1884+26250000000+19375000000+15000000000+14375000000+14375000000+14687500000
1853+15312500000+17812500000+20312500000+24062500000+28437500000+34375000000
1821+41250000000+45312500000+43750000000+42500000000+42500000000+44062500000
1789+48124999999+52500000000+54687500000+51562500000+44062500000+36875000000
1758+29687500000+22812500000+21250000000+22500000000+30000000000+30625000000
1726+32812500000+37187499999+40000000000+45937500000+49687499999+51562500000
1695+52187500000+50625000000+42500000000+33125000000+33125000000+37812500000
1663+37187499999+43437499999+48124999999+50937500000+52500000000+54687500000
1632+56875000000+58437500000+60000000000+61562500000+61562500000+53750000000
1600+51250000000+55312500000+60000000000+61875000000+62812500000+64062500000
1568+64687500000+65625000000+66875000000+67812500000+68750000000+69375000000
1537+70000000000+70625000000+70937500000+71250000000+71250000000+71875000000
1505+72187500000+72187500000+70937500000+67500000000+66250000000+65312500000
1474+64062500000+64687500000+66562500000+66875000000+67812500000+68750000000
1442+68750000000+68750000000+69062500000+70625000000+70312500000+63125000000
1411+60312500000+62500000000+67812500000+70937500000+71875000000+72187500000
1379+70937500000+70000000000+70312500000+72500000000+72812500000+73437500000
1347+73125000000+72812500000+72187500000+70625000000+67500000000+65625000000
1316+65625000000+67187500000+70000000000+71875000000+72500000000+71875000000
1284+70000000000+63750000000+61250000000+63125000000+68437500000+70625000000
1253+71875000000+72187500000+72500000000+73125000000+73750000000+74375000000
1221+74687500000+74687500000+74375000000+73750000000+73437500000+73125000000
1189+73125000000+73125000000+72500000000+72500000000+73125000000+72187500000
1158+70937500000+70625000000+73125000000+74062500000+74687500000+74687500000
1126+72187500000+71875000000+74062500000+76250000000+78437500000+79375000000
1095+80625000000+80312500000+78437500000+71250000000+69687500000+73437500000
1063+78750000000+80312500000+81250000000+81875000000+82500000000+82812500000
1032+83125000000+83437500000+83750000000+84062500000+84687500000+85312500000
1000+85625000000+85937500000+85000000000+81250000000+69687500000+69687500000
968+80625000000+84062500000+85000000000+85625000000+85937500000+85937500000
937+85312500000+84375000000+80000000000+63437500000+55937500000+68437500000
905+79062500000+82187500000+83750000000+84375000000+84687500000+84062500000
874+81562500000+77812500000+75312500000+74687500000+73125000000+69375000000
842+66562500000+67187500000+74375000000+82187500000+85625000000+89062500000
811+90937500000+90312500000+84687500000+73125000000+70312500000+74062500000
779+84687500000+86875000000+89062500000+91562500000+91875000000+92812500000
747+92187500000+91875000000+91562500000+91250000000+91250000000+91250000000
716+91250000000+91250000000+91250000000+91250000000+91562500000+91250000000
684+91250000000+91250000000+91250000000+90937500000+90625000000+90312500000
653+89687500000+89375000000+89062500000+89062500000+89062500000+89062500000
621+89375000000+89375000000+89375000000+88437500000+86250000000+79375000000
589+67500000000+62500000000+63125000000+74375000000+82187500000+86875000000
558+88750000000+90625000000+91562500000+91875000000+91250000000+89375000000
526+87500000000+85937500000+84375000000+83750000000+83750000000+84062500000
495+85000000000+86875000000+89062500000+91250000000+93125000000+94687500000
463+94375000000+92500000000+90312500000+87500000000+85000000000+81875000000
432+78125000000+74375000000+71250000000+67812500000+65000000000+63125000000
400+62187500000
##END=
