##TITLE=ethyl 1-(8-azido-1-naphthyl)-1H-1,2,3-triazole-5-carboxylate
##JCAMP-DX=4.24
##DATA TYPE=INFRARED SPECTRUM
##DATE=10/06/2025
##SAMPLING PROCEDURE=ATR
##ORIGIN=SDBS
##XUNITS=1/CM
##YUNITS=TRANSMITTANCE
##RESOLUTION=5.2631578947368425
##FIRSTX=4000.0
##LASTX=400.0
##DELTAX=-5.2631578947368425
##MAXY=95.0
##MINY=0.0
##XFACTOR=1
##YFACTOR=1
##NPOINTS=685
##FIRSTY=0.0
##XYDATA=(X++(Y..Y))
4000+0+87500000000+87500000000+87500000000+87500000000+87812500000
3968+87812500000+87812500000+87500000000+87500000000+87500000000+87812500000
3937+87812500000+87812500000+87812500000+87812500000+87812500000+87812500000
3905+88125000000+88125000000+88125000000+88125000000+88437500000+88437500000
3874+88437500000+88437500000+88750000000+88750000000+88750000000+89062500000
3842+89062500000+89375000000+89375000000+89375000000+89375000000+89375000000
3811+89375000000+89375000000+89375000000+89687500000+89687500000+90000000000
3779+90000000000+90000000000+89687500000+89375000000+89375000000+89687500000
3747+89687500000+89687500000+89687500000+89687500000+89687500000+89687500000
3716+89687500000+89687500000+89687500000+89687500000+89687500000+89687500000
3684+89687500000+89687500000+89687500000+89375000000+89375000000+89062500000
3653+89062500000+89062500000+89062500000+89062500000+89375000000+89375000000
3621+89062500000+89062500000+88750000000+88750000000+88750000000+88750000000
3589+88750000000+88750000000+89062500000+89375000000+89687500000+89687500000
3558+89687500000+89687500000+89687500000+89687500000+89687500000+89687500000
3526+90312500000+90312500000+90625000000+90625000000+90312500000+90312500000
3495+90312500000+90625000000+90625000000+90937500000+90937500000+91250000000
3463+91250000000+91562500000+91562500000+91562500000+91562500000+91875000000
3432+91875000000+91562500000+91562500000+91250000000+89687500000+85000000000
3400+83125000000+89062500000+89375000000+90312500000+90937500000+90937500000
3368+90937500000+90937500000+90000000000+89687500000+89062500000+88437500000
3337+89062500000+90312500000+90937500000+90937500000+89062500000+84687500000
3305+80937500000+84062500000+79375000000+78125000000+84375000000+88125000000
3274+90312500000+89687500000+86562500000+86875000000+89062500000+90312500000
3242+89687500000+90000000000+90937500000+92187500000+91250000000+91562500000
3211+92812500000+93125000000+93437500000+93437500000+94062500000+94062500000
3179+94062500000+94375000000+94687500000+94687500000+94687500000+94687500000
3147+94687500000+94687500000+95000000000+94687500000+94687500000+94687500000
3116+94687500000+94687500000+94687500000+94687500000+94687500000+94687500000
3084+94687500000+94687500000+94687500000+94375000000+94375000000+94375000000
3053+94375000000+94375000000+94375000000+94375000000+94375000000+94375000000
3021+94062500000+94062500000+94062500000+94062500000+94062500000+94062500000
2989+94375000000+94375000000+94062500000+93437500000+92500000000+91875000000
2958+91875000000+93750000000+93750000000+94375000000+94375000000+94062500000
2926+93437500000+92812500000+92500000000+92812500000+94062500000+94062500000
2895+94062500000+93750000000+93437500000+93125000000+93125000000+92812500000
2863+92812500000+92500000000+92500000000+92500000000+92187500000+92187500000
2832+91875000000+91250000000+90937500000+90937500000+92500000000+92812500000
2800+93125000000+93125000000+93437500000+93125000000+92812500000+90937500000
2768+89375000000+88437500000+88125000000+88437500000+90312500000+92187500000
2737+91250000000+89375000000+83750000000+80312500000+66875000000+37500000000
2705+23437500000+5000000000+4687500000+12812500000+40937500000+56875000000
2674+60937500000+65625000000+71250000000+76875000000+84062500000+89062500000
2642+91562500000+92500000000+92500000000+92187500000+92187500000+92187500000
2611+92187500000+92187500000+92500000000+92812500000+93125000000+93125000000
2579+93437500000+93437500000+93750000000+93437500000+93125000000+92812500000
2547+92187500000+91875000000+91875000000+91875000000+92187500000+92500000000
2516+92500000000+92812500000+93125000000+93125000000+93437500000+93750000000
2484+93750000000+93750000000+93750000000+93437500000+93437500000+93437500000
2453+93125000000+93125000000+93125000000+93125000000+93125000000+93437500000
2421+93437500000+93437500000+93437500000+93437500000+93125000000+92812500000
2389+92812500000+92500000000+92500000000+92500000000+92187500000+92187500000
2358+92187500000+92187500000+91875000000+91875000000+91875000000+91562500000
2326+91562500000+91562500000+91562500000+91250000000+91250000000+91250000000
2295+90937500000+90312500000+88437500000+86875000000+84062500000+77500000000
2263+68750000000+57812500000+46250000000+25312500000+11562500000+11250000000
2232+14687500000+22187500000+32500000000+49687499999+64062500000+70625000000
2200+74375000000+75937500000+80312500000+82812500000+85000000000+86562500000
2168+86875000000+87500000000+88125000000+88750000000+89062500000+89687500000
2137+89687500000+89687500000+89375000000+88437500000+87187500000+86250000000
2105+85312500000+81875000000+79375000000+78750000000+80312500000+83437500000
2074+85937500000+84687500000+79375000000+70000000000+70000000000+75937500000
2042+79375000000+75312500000+72187500000+72812500000+75000000000+80000000000
2011+85312500000+87187500000+86875000000+85312500000+83750000000+81562500000
1979+80937500000+80937500000+75312500000+52812500000+43125000000+53125000000
1947+76562500000+80000000000+78125000000+76875000000+79687500000+85625000000
1916+87812500000+89062500000+88125000000+86562500000+83750000000+76562500000
1884+68125000000+66250000000+67187500000+77500000000+79687500000+75625000000
1853+62187500000+47812500000+47812500000+55000000000+65312500000+75625000000
1821+76875000000+78750000000+82187500000+84375000000+85625000000+85625000000
1789+84375000000+82500000000+80000000000+78437500000+73437500000+65000000000
1758+45625000000+42187500000+43437499999+48750000000+49062500000+54687500000
1726+65937500000+70000000000+77187500000+79062500000+77812500000+71562500000
1695+70312500000+74687500000+76250000000+73437500000+65937500000+55000000000
1663+29375000000+9687500000+9062500000+18437500000+15625000000+15937500000
1632+20625000000+19062500000+20625000000+42500000000+58750000000+66875000000
1600+69375000000+69375000000+71875000000+74687500000+75625000000+75937500000
1568+75625000000+75312500000+73125000000+62500000000+61875000000+72812500000
1537+77187500000+69375000000+69062500000+66562500000+59687500000+32500000000
1505+21562500000+25625000000+50625000000+66562500000+69687500000+56562500000
1474+52812500000+54687500000+67187500000+74375000000+76250000000+74687500000
1442+70312500000+70312500000+72500000000+73125000000+73125000000+75000000000
1411+79062500000+61250000000+40937500000+29375000000+43437499999+65625000000
1379+77187500000+80937500000+79687500000+65937500000+65937500000+49062500000
1347+28437500000+28437500000+44375000000+61562500000+71250000000+76875000000
1316+70000000000+66875000000+71250000000+76250000000+81250000000+81875000000
1284+77500000000+71562500000+70625000000+70937500000+67500000000+55000000000
1253+53437500000+57500000000+66562500000+69375000000+75937500000+82500000000
1221+85937500000+87500000000+88437500000+88437500000+87500000000+80312500000
1189+73125000000+79687500000+87812500000+90000000000+90625000000+90625000000
1158+90937500000+91250000000+91250000000+91250000000+90937500000+90312500000
1126+89375000000+87500000000+80312500000+78750000000+82187500000+86562500000
1095+88437500000+89375000000+89687500000+89687500000+89375000000+89062500000
1063+88750000000+88437500000+87500000000+85000000000+79062500000+74687500000
1032+75937500000+80937500000+73125000000+81562500000+85312500000+80937500000
1000+70312500000+69687500000+75937500000+69062500000+47187500000+32500000000
968+61562500000+80000000000+82187500000+80937500000+80000000000+81250000000
937+82500000000+83437500000+80625000000+75625000000+52812500000+37187499999
905+54375000000+60937500000+46562499999+26250000000+24375000000+69062500000
874+82812500000+88750000000+89687500000+90312500000+90625000000+90937500000
842+90937500000+90625000000+89062500000+81250000000+78125000000+79375000000
811+53125000000+58750000000+82812500000+87500000000+88750000000+89375000000
779+90000000000+90000000000+89687500000+89375000000+89375000000+87187500000
747+85625000000+85937500000+86250000000+83750000000+84375000000+89062500000
716+89687500000+89687500000+89687500000+90000000000+89062500000+85000000000
684+84062500000+85625000000+89687500000+88437500000+89062500000+90000000000
653+90000000000+89375000000+89375000000+89062500000+88750000000+88750000000
621+89062500000+89062500000+89375000000+89375000000+89062500000+88437500000
589+88125000000+87812500000+87500000000+87500000000+87812500000+88125000000
558+88750000000+89375000000+89687500000+90000000000+89687500000+89375000000
526+88750000000+88437500000+87812500000+87500000000+87500000000+87500000000
495+87500000000+88125000000+88750000000+89062500000+90000000000+91250000000
463+92187500000+93125000000+93750000000+92812500000+91875000000+90312500000
432+89375000000+89375000000+89687500000+90312500000+91875000000+93437500000
400+94375000000
##END=
