##TITLE=ethyl 1-(8-dimethylamino-1-naphthyl)-1H-1,2,3-triazole-5-carboxylate
##JCAMP-DX=4.24
##DATA TYPE=INFRARED SPECTRUM
##DATE=10/06/2025
##SAMPLING PROCEDURE=ATR
##ORIGIN=SDBS
##XUNITS=1/CM
##YUNITS=TRANSMITTANCE
##RESOLUTION=5.2631578947368425
##FIRSTX=4000.0
##LASTX=400.0
##DELTAX=-5.2631578947368425
##MAXY=95.0
##MINY=0.0
##XFACTOR=1
##YFACTOR=1
##NPOINTS=685
##FIRSTY=0.0
##XYDATA=(X++(Y..Y))
4000+0+89375000000+89375000000+89375000000+89375000000+89375000000
3968+89687500000+90000000000+90312500000+90312500000+90312500000+90000000000
3937+90000000000+90000000000+90000000000+90312500000+90312500000+90312500000
3905+90000000000+90000000000+90000000000+89687500000+89687500000+90000000000
3874+90000000000+90000000000+90000000000+90000000000+90312500000+90625000000
3842+90937500000+90625000000+90625000000+90312500000+90312500000+90625000000
3811+90625000000+90625000000+90625000000+90937500000+91250000000+91250000000
3779+91250000000+91250000000+91250000000+90937500000+90937500000+91250000000
3747+91250000000+91250000000+91250000000+91250000000+90937500000+90937500000
3716+90937500000+90937500000+90937500000+90937500000+90937500000+90937500000
3684+91250000000+90937500000+90937500000+90937500000+90625000000+90625000000
3653+90625000000+90625000000+90625000000+90625000000+90312500000+90000000000
3621+89687500000+89687500000+89687500000+90312500000+90625000000+90937500000
3589+90937500000+90937500000+90937500000+90937500000+90937500000+91250000000
3558+91250000000+91250000000+91250000000+91562500000+91562500000+91875000000
3526+91875000000+91875000000+91875000000+91875000000+91562500000+91562500000
3495+91562500000+91875000000+91875000000+91875000000+92187500000+92187500000
3463+92187500000+92187500000+92187500000+92187500000+92187500000+92187500000
3432+92187500000+92187500000+92500000000+92812500000+90625000000+89687500000
3400+90625000000+91250000000+90937500000+90625000000+90312500000+90312500000
3368+90312500000+90312500000+90000000000+86875000000+80000000000+79375000000
3337+85937500000+89375000000+89687500000+90312500000+85937500000+80000000000
3305+80625000000+74062500000+65000000000+64062500000+79687500000+81562500000
3274+79687500000+66250000000+57187500000+60000000000+76875000000+80312500000
3242+81875000000+80000000000+80625000000+80000000000+80625000000+75625000000
3211+71875000000+73750000000+80312500000+67500000000+66875000000+78125000000
3179+85000000000+84687500000+81250000000+79375000000+78437500000+79062500000
3147+83437500000+87812500000+90625000000+92187500000+92812500000+93125000000
3116+93437500000+93437500000+93750000000+93750000000+93750000000+93750000000
3084+93750000000+93750000000+93750000000+93750000000+93750000000+93750000000
3053+93750000000+94062500000+94062500000+94062500000+94062500000+94062500000
3021+94062500000+94062500000+94062500000+94062500000+94375000000+94375000000
2989+94375000000+94375000000+94375000000+94375000000+94375000000+94062500000
2958+94062500000+94062500000+94062500000+94062500000+94375000000+94375000000
2926+94375000000+94375000000+94375000000+94375000000+94375000000+94375000000
2895+94375000000+94375000000+94375000000+94375000000+94375000000+94375000000
2863+94375000000+94375000000+94375000000+94375000000+94062500000+94062500000
2832+94062500000+94062500000+94062500000+94062500000+94375000000+94375000000
2800+94687500000+94687500000+94687500000+94375000000+94375000000+94375000000
2768+94375000000+94687500000+94687500000+95000000000+94687500000+94687500000
2737+94687500000+94687500000+94687500000+94687500000+94687500000+94687500000
2705+94687500000+94687500000+94687500000+94687500000+94687500000+94375000000
2674+94375000000+94375000000+94375000000+94375000000+94687500000+94687500000
2642+94687500000+94687500000+94687500000+94687500000+94687500000+94375000000
2611+94375000000+94375000000+94375000000+94375000000+94375000000+94375000000
2579+94375000000+94062500000+93437500000+92500000000+91875000000+91562500000
2547+91562500000+91562500000+91562500000+91562500000+92812500000+93750000000
2516+93750000000+94062500000+94062500000+94062500000+94062500000+94062500000
2484+94062500000+93750000000+93750000000+93750000000+93437500000+93125000000
2453+92500000000+92500000000+92812500000+92812500000+92812500000+92812500000
2421+93125000000+93125000000+93437500000+93750000000+93750000000+94062500000
2389+93750000000+93437500000+93125000000+91562500000+90625000000+91562500000
2358+92812500000+92812500000+92500000000+92500000000+92500000000+92500000000
2326+92187500000+92187500000+91250000000+90625000000+90625000000+90625000000
2295+90312500000+89375000000+88437500000+87187500000+85000000000+79687500000
2263+70625000000+59375000000+52187500000+36250000000+9375000000+4687500000
2232+6562500000+19687500000+37812500000+53750000000+66250000000+73437500000
2200+77500000000+79375000000+81875000000+83750000000+83437500000+84687500000
2168+87500000000+88750000000+89375000000+89375000000+89687500000+89687500000
2137+90000000000+90625000000+91250000000+91562500000+91562500000+91562500000
2105+91562500000+90937500000+90000000000+88125000000+87187500000+86250000000
2074+86250000000+86250000000+80312500000+67187500000+54062500000+54687500000
2042+71250000000+62812500000+43125000000+41874999999+53750000000+71875000000
2011+75312500000+81250000000+79062500000+69375000000+58750000000+52812500000
1979+63125000000+74375000000+81875000000+84062500000+84687500000+84687500000
1947+85000000000+85937500000+85625000000+84062500000+83750000000+85312500000
1916+87500000000+87500000000+85937500000+81875000000+75312500000+65937500000
1884+65312500000+60625000000+62500000000+70625000000+70937500000+63750000000
1853+57187500000+50937500000+44687500000+44062500000+59375000000+70937500000
1821+73750000000+78750000000+64375000000+64062500000+80937500000+83750000000
1789+80937500000+80937500000+81562500000+76250000000+67812500000+63750000000
1758+32187500000+29687500000+46250000000+66562500000+63125000000+54687500000
1726+55625000000+73437500000+69375000000+70937500000+73437500000+67187500000
1695+73437500000+80312500000+77187500000+62812500000+27500000000+12187500000
1663+17812500000+53437500000+58437500000+64062500000+71875000000+78750000000
1632+79062500000+75312500000+70625000000+60937500000+41562500000+41562500000
1600+59062500000+74687500000+82500000000+85000000000+86250000000+87187500000
1568+87187500000+86562500000+85000000000+81250000000+75312500000+75625000000
1537+67500000000+38125000000+28125000000+30937500000+55625000000+60312500000
1505+34375000000+14375000000+14375000000+39062500000+56562500000+57500000000
1474+50000000000+40625000000+44375000000+64687500000+52812500000+54375000000
1442+62187500000+66250000000+70937500000+60937500000+64062500000+65625000000
1411+51875000000+53750000000+67187500000+70312500000+68437500000+54375000000
1379+45312500000+58125000000+77500000000+77812500000+78750000000+78437500000
1347+74687500000+63437500000+60312500000+65937500000+74687500000+51250000000
1316+45625000000+58437500000+73125000000+60937500000+61250000000+76562500000
1284+79375000000+69687500000+63437500000+63125000000+67187500000+63750000000
1253+61250000000+65312500000+73437500000+79687500000+84062500000+85937500000
1221+87500000000+88437500000+89062500000+87500000000+82500000000+72187500000
1189+76875000000+85000000000+88125000000+89062500000+88437500000+85937500000
1158+70937500000+59062500000+64687500000+82500000000+88750000000+90312500000
1126+90625000000+90937500000+90312500000+87500000000+81562500000+86562500000
1095+90000000000+90312500000+89687500000+88750000000+86875000000+78125000000
1063+70625000000+72812500000+84375000000+84375000000+79062500000+79062500000
1032+84375000000+76562500000+64687500000+65312500000+78437500000+71875000000
1000+45937500000+15625000000+15625000000+57187500000+78125000000+87187500000
968+88125000000+87812500000+87812500000+88750000000+89687500000+89687500000
937+89062500000+84687500000+71562500000+77812500000+43750000000+14687500000
905+14687500000+35312500000+25312500000+41874999999+74687500000+84375000000
874+86875000000+88437500000+89687500000+90625000000+90937500000+91562500000
842+91875000000+91875000000+92187500000+91562500000+90937500000+85000000000
811+77500000000+88437500000+91250000000+91562500000+91875000000+92187500000
779+91875000000+90312500000+88750000000+86562500000+84687500000+86250000000
747+85000000000+88750000000+89687500000+90312500000+89687500000+84687500000
716+79375000000+85312500000+89375000000+90000000000+90937500000+88750000000
684+87500000000+87500000000+89062500000+89375000000+89375000000+89687500000
653+90000000000+90312500000+90625000000+90625000000+90937500000+90625000000
621+86875000000+79687500000+80312500000+87812500000+89687500000+91250000000
589+91250000000+91250000000+90937500000+90312500000+89687500000+89687500000
558+89375000000+89375000000+89375000000+89375000000+88750000000+88125000000
526+87500000000+86875000000+86562500000+86562500000+86562500000+86875000000
495+87500000000+88437500000+89375000000+90625000000+91562500000+92500000000
463+93125000000+93437500000+94062500000+94375000000+94687500000+94687500000
432+94375000000+94062500000+93437500000+92812500000+91875000000+91562500000
400+91562500000
##END=
