##TITLE=ethylene glycol monobutyl ether
##JCAMP-DX=4.24
##DATA TYPE=INFRARED SPECTRUM
##DATE=10/06/2025
##SAMPLING PROCEDURE=ATR
##ORIGIN=SDBS
##XUNITS=1/CM
##YUNITS=TRANSMITTANCE
##RESOLUTION=5.2631578947368425
##FIRSTX=4000.0
##LASTX=400.0
##DELTAX=-5.2631578947368425
##MAXY=95.0
##MINY=0.0
##XFACTOR=1
##YFACTOR=1
##NPOINTS=685
##FIRSTY=0.0
##XYDATA=(X++(Y..Y))
4000+0+87187500000+87187500000+87500000000+87812500000+88125000000
3968+88750000000+89062500000+89062500000+89375000000+89687500000+89687500000
3937+90000000000+90312500000+90312500000+90312500000+90625000000+90625000000
3905+90625000000+90625000000+90625000000+90625000000+90625000000+90625000000
3874+90625000000+90625000000+90625000000+90625000000+90625000000+90625000000
3842+90625000000+90625000000+90625000000+90625000000+90625000000+90312500000
3811+90312500000+90312500000+90000000000+89687500000+89375000000+88750000000
3779+88437500000+88125000000+87500000000+86562500000+85625000000+84375000000
3747+83125000000+80937500000+78125000000+73750000000+70312500000+67187500000
3716+65000000000+62812500000+59687500000+56250000000+52500000000+48750000000
3684+44687500000+40312499999+35937500000+32500000000+29062500000+25937500000
3653+23125000000+21562500000+19687500000+18125000000+17187500000+16250000000
3621+15625000000+15000000000+14687500000+14687500000+14687500000+14375000000
3589+14687500000+14687500000+14687500000+15000000000+15312500000+15625000000
3558+15937500000+16250000000+16875000000+17500000000+18125000000+18750000000
3526+19687500000+20625000000+21562500000+22812500000+24062500000+25625000000
3495+26875000000+28437500000+30312500000+32187500000+34062500000+36250000000
3463+38437500000+40625000000+42500000000+44999999999+47187500000+49687499999
3432+51562500000+54062500000+56250000000+58437500000+60000000000+62187500000
3400+63750000000+65625000000+66875000000+68437500000+69687500000+70625000000
3368+71250000000+72187500000+72500000000+73125000000+73125000000+73125000000
3337+72500000000+71875000000+70625000000+69062500000+66562500000+63437500000
3305+57812500000+48750000000+33437500000+18437500000+7187500000+4687500000
3274+4687500000+6562500000+4687500000+4687500000+5625000000+7187500000
3242+8750000000+10625000000+10625000000+7812500000+4687500000+4687500000
3211+4687500000+5937500000+9375000000+14375000000+22812500000+30625000000
3179+37187499999+40312499999+42187500000+44062500000+47500000000+51250000000
3147+56250000000+59375000000+62500000000+63750000000+63437500000+63125000000
3116+63437500000+65000000000+66562500000+67812500000+68750000000+70937500000
3084+73437500000+75625000000+77187500000+78437500000+79375000000+80312500000
3053+80625000000+81250000000+81562500000+81875000000+82187500000+82187500000
3021+82500000000+83125000000+83750000000+84375000000+84687500000+85000000000
2989+85312500000+85625000000+85625000000+85937500000+85937500000+86250000000
2958+86250000000+86562500000+86562500000+86875000000+87187500000+87187500000
2926+87500000000+87812500000+88125000000+88437500000+88750000000+89062500000
2895+89062500000+89375000000+89687500000+89687500000+90000000000+90000000000
2863+90312500000+90312500000+90312500000+90312500000+90312500000+90625000000
2832+90625000000+90625000000+90625000000+90625000000+90937500000+90625000000
2800+90625000000+90625000000+90625000000+90625000000+90937500000+90937500000
2768+91250000000+91250000000+90937500000+90937500000+90937500000+90937500000
2737+90625000000+90625000000+90312500000+90312500000+90312500000+90312500000
2705+90312500000+90312500000+90312500000+90312500000+90312500000+90312500000
2674+90312500000+90625000000+90937500000+91250000000+91562500000+91562500000
2642+91562500000+91875000000+91875000000+91875000000+91875000000+91875000000
2611+91875000000+91875000000+91562500000+91250000000+90937500000+90937500000
2579+90625000000+90312500000+90000000000+90000000000+89687500000+89687500000
2547+89687500000+90000000000+90000000000+90312500000+90625000000+90937500000
2516+91250000000+91562500000+91875000000+92187500000+92187500000+92500000000
2484+92812500000+93125000000+93125000000+93437500000+93437500000+93750000000
2453+93750000000+93750000000+94062500000+94062500000+94062500000+94062500000
2421+94062500000+94062500000+94375000000+94375000000+94375000000+94687500000
2389+94687500000+94687500000+94687500000+95000000000+95000000000+95000000000
2358+94687500000+94687500000+94687500000+94687500000+94687500000+94687500000
2326+94687500000+94375000000+94375000000+94375000000+94375000000+94062500000
2295+93750000000+93125000000+92500000000+91875000000+91562500000+91250000000
2263+90312500000+88750000000+87187500000+83750000000+80625000000+79375000000
2232+79687500000+80937500000+83437500000+85937500000+87187500000+88125000000
2200+89375000000+90625000000+91562500000+92187500000+92500000000+92812500000
2168+92500000000+92500000000+92187500000+91875000000+91562500000+91562500000
2137+91250000000+91250000000+90937500000+90937500000+90937500000+91250000000
2105+91250000000+91562500000+91875000000+92187500000+92187500000+92500000000
2074+92812500000+92812500000+93125000000+93125000000+93125000000+93125000000
2042+93125000000+92812500000+92812500000+92812500000+92812500000+92500000000
2011+92500000000+92187500000+92187500000+91875000000+91562500000+91250000000
1979+90937500000+90625000000+90312500000+89687500000+89375000000+88437500000
1947+87812500000+87187500000+86250000000+85312500000+83437500000+80937500000
1916+78125000000+72187500000+64062500000+53750000000+49062500000+48124999999
1884+44999999999+37500000000+27812500000+27500000000+26562500000+27187500000
1853+30625000000+37812500000+44999999999+49687499999+49375000000+48437500000
1821+49375000000+52812500000+52187500000+50937500000+50000000000+49375000000
1789+48437500000+47500000000+47187500000+47187500000+46562499999+44687500000
1758+39375000000+36250000000+36250000000+41250000000+40312499999+37187499999
1726+34375000000+34375000000+35625000000+42187500000+50937500000+56875000000
1695+57500000000+57500000000+59375000000+59687500000+59375000000+59375000000
1663+60000000000+59687500000+58125000000+57500000000+57500000000+58437500000
1632+60625000000+62187500000+61875000000+60937500000+59687500000+58750000000
1600+57500000000+56875000000+56875000000+56875000000+57187500000+57500000000
1568+56875000000+55625000000+53437500000+51562500000+51562500000+53125000000
1537+54687500000+55312500000+55937500000+58125000000+60000000000+63125000000
1505+65625000000+68125000000+69687500000+70937500000+70312500000+70000000000
1474+68125000000+64687500000+61250000000+59375000000+54375000000+46875000000
1442+41250000000+38125000000+34062500000+25937500000+17187500000+9375000000
1411+6562500000+5625000000+5312500000+5312500000+5312500000+6875000000
1379+9062500000+11250000000+15000000000+19062500000+21250000000+20000000000
1347+16875000000+13437500000+10937500000+9375000000+9062500000+9062500000
1316+10312500000+11250000000+12812500000+14375000000+15937500000+18125000000
1284+22187500000+27812500000+33437500000+36875000000+38125000000+41562500000
1253+44687500000+44062500000+44062500000+49062500000+57187500000+61875000000
1221+62500000000+61250000000+60000000000+56875000000+49375000000+48437500000
1189+50937500000+57187500000+62187500000+63437500000+63437500000+64375000000
1158+67812500000+72187500000+75625000000+78750000000+80937500000+82500000000
1126+83750000000+83437500000+82187500000+79687500000+75625000000+68437500000
1095+61875000000+53437500000+43750000000+37812500000+37500000000+39375000000
1063+46250000000+54687500000+63437500000+67812500000+70312500000+72500000000
1032+73750000000+73125000000+73125000000+72812500000+72812500000+73125000000
1000+73750000000+75000000000+77187500000+77187500000+75625000000+75625000000
968+77500000000+79375000000+80625000000+83750000000+86875000000+88437500000
937+89687500000+90312500000+90625000000+90625000000+90000000000+89375000000
905+88125000000+86875000000+84687500000+82187500000+81250000000+80312500000
874+77812500000+72500000000+70625000000+71562500000+75937500000+79687500000
842+80937500000+81250000000+80937500000+80312500000+79687500000+79062500000
811+78437500000+77500000000+76875000000+76250000000+75625000000+75000000000
779+74375000000+74062500000+73437500000+72812500000+72500000000+72187500000
747+71875000000+71562500000+71250000000+70937500000+70625000000+70312500000
716+70000000000+69687500000+69375000000+69062500000+68750000000+68750000000
684+68750000000+68437500000+68437500000+68437500000+68125000000+68125000000
653+67812500000+67500000000+67500000000+67187500000+66875000000+66562500000
621+66250000000+65937500000+65937500000+66250000000+66250000000+66562500000
589+66875000000+66875000000+67187500000+67500000000+68125000000+68750000000
558+69687500000+70625000000+71562500000+72500000000+73437500000+74687500000
526+75625000000+76562500000+77187500000+78125000000+78437500000+78750000000
495+79062500000+79062500000+79375000000+79687500000+80000000000+80625000000
463+81250000000+81875000000+82500000000+82187500000+81562500000+80625000000
432+79687500000+79062500000+78437500000+78437500000+78125000000+78125000000
400+78125000000
##END=
