##TITLE=ethyl p-toluenesulfonate
##JCAMP-DX=4.24
##DATA TYPE=INFRARED SPECTRUM
##DATE=10/06/2025
##SAMPLING PROCEDURE=ATR
##ORIGIN=SDBS
##XUNITS=1/CM
##YUNITS=TRANSMITTANCE
##RESOLUTION=5.2631578947368425
##FIRSTX=4000.0
##LASTX=400.0
##DELTAX=-5.2631578947368425
##MAXY=94.6875
##MINY=0.0
##XFACTOR=1
##YFACTOR=1
##NPOINTS=685
##FIRSTY=0.0
##XYDATA=(X++(Y..Y))
4000+0+74687500000+74687500000+75000000000+75000000000+75625000000
3968+75937500000+76250000000+76562500000+76562500000+76562500000+76875000000
3937+76875000000+77187500000+77187500000+77500000000+77812500000+78125000000
3905+78125000000+78437500000+78437500000+78437500000+78750000000+79062500000
3874+79375000000+79375000000+79687500000+79687500000+80000000000+80625000000
3842+80625000000+80937500000+81250000000+81562500000+81562500000+81562500000
3811+81875000000+81875000000+82187500000+82187500000+82187500000+81875000000
3779+81875000000+82187500000+82187500000+82187500000+81875000000+81562500000
3747+81562500000+81250000000+81250000000+80937500000+80937500000+80625000000
3716+80625000000+80625000000+80625000000+80625000000+80625000000+80312500000
3684+80312500000+80000000000+79687500000+79375000000+79062500000+78750000000
3653+78750000000+78750000000+78437500000+78437500000+78437500000+78437500000
3621+78125000000+78125000000+77812500000+77812500000+77812500000+78125000000
3589+78125000000+78125000000+78125000000+78125000000+78437500000+78437500000
3558+78437500000+78437500000+78437500000+78750000000+78750000000+79062500000
3526+79375000000+79375000000+79375000000+79687500000+79687500000+79687500000
3495+79687500000+79687500000+79687500000+79687500000+79687500000+79687500000
3463+79687500000+79687500000+80000000000+80000000000+80000000000+80312500000
3432+80312500000+80312500000+80312500000+80625000000+80625000000+80312500000
3400+80312500000+80312500000+80000000000+79687500000+79375000000+79375000000
3368+78750000000+79062500000+75312500000+73750000000+74375000000+75625000000
3337+76562500000+76875000000+77187500000+76250000000+74062500000+66875000000
3305+56562500000+53125000000+55625000000+55000000000+48437500000+47812500000
3274+48124999999+48750000000+46562499999+41250000000+40625000000+41250000000
3242+45625000000+49062500000+55937500000+60000000000+60625000000+58750000000
3211+56875000000+54375000000+54687500000+63125000000+72812500000+77500000000
3179+79375000000+80937500000+81562500000+81875000000+82187500000+82500000000
3147+82812500000+82812500000+82500000000+82187500000+82187500000+82187500000
3116+82500000000+82500000000+82812500000+82500000000+82500000000+82500000000
3084+82812500000+82812500000+83125000000+83437500000+83750000000+83750000000
3053+84062500000+84062500000+84062500000+83750000000+83437500000+83125000000
3021+83125000000+83125000000+84062500000+84687500000+85312500000+85625000000
2989+85625000000+85625000000+85625000000+85625000000+85625000000+86250000000
2958+86562500000+86875000000+87187500000+87500000000+87812500000+87812500000
2926+88125000000+88437500000+88750000000+89062500000+89062500000+89062500000
2895+89062500000+89375000000+90000000000+91562500000+92187500000+92187500000
2863+91875000000+91562500000+91250000000+90937500000+90625000000+90312500000
2832+90000000000+89375000000+88437500000+87500000000+86875000000+86250000000
2800+85937500000+85937500000+86250000000+86250000000+86562500000+86875000000
2768+86875000000+86875000000+86875000000+87187500000+87187500000+87187500000
2737+87500000000+87812500000+88125000000+88437500000+88437500000+88750000000
2705+89062500000+89375000000+89375000000+89687500000+89687500000+90000000000
2674+90625000000+90937500000+91250000000+91562500000+91875000000+91875000000
2642+92187500000+92187500000+92187500000+92500000000+92812500000+92812500000
2611+92812500000+92812500000+92812500000+92500000000+92500000000+92500000000
2579+92500000000+92187500000+92187500000+92187500000+91875000000+91875000000
2547+91562500000+91562500000+91250000000+90625000000+89375000000+88125000000
2516+86875000000+86875000000+86875000000+87187500000+87500000000+87812500000
2484+88437500000+88750000000+89062500000+89062500000+89062500000+89062500000
2453+89062500000+89062500000+88750000000+88750000000+88437500000+88437500000
2421+88125000000+88125000000+88125000000+88125000000+88125000000+88125000000
2389+88125000000+88125000000+87812500000+87812500000+87187500000+85625000000
2358+83437500000+83437500000+84062500000+85625000000+86562500000+86875000000
2326+87187500000+87187500000+87187500000+86875000000+86875000000+86875000000
2295+86875000000+86875000000+86875000000+86875000000+86875000000+86875000000
2263+87187500000+87187500000+87187500000+87500000000+87500000000+87500000000
2232+87500000000+87500000000+87500000000+87187500000+86250000000+85625000000
2200+85000000000+85000000000+85000000000+85312500000+86250000000+87500000000
2168+88125000000+88750000000+88750000000+87812500000+86875000000+86250000000
2137+86250000000+86875000000+88437500000+89062500000+89375000000+89687500000
2105+90000000000+90000000000+90312500000+90625000000+90937500000+91250000000
2074+91562500000+88437500000+80000000000+50937500000+44999999999+53437500000
2042+69375000000+76875000000+84062500000+87500000000+89375000000+90625000000
2011+92187500000+93437500000+94062500000+94375000000+94687500000+94687500000
1979+94687500000+94687500000+94687500000+94375000000+94375000000+94062500000
1947+93750000000+93437500000+93125000000+92812500000+91875000000+89062500000
1916+77500000000+65937500000+71250000000+80937500000+82187500000+77500000000
1884+70625000000+72812500000+70000000000+67500000000+63750000000+62187500000
1853+62187500000+57500000000+56250000000+61562500000+69375000000+74687500000
1821+78125000000+80000000000+80000000000+78750000000+76875000000+74687500000
1789+69375000000+63125000000+56250000000+52812500000+54062500000+66875000000
1758+62187500000+57187500000+46875000000+39687500000+41874999999+36250000000
1726+27500000000+20625000000+19062500000+19375000000+26250000000+39687500000
1695+51562500000+55312500000+63125000000+72187500000+77812500000+82500000000
1663+84062500000+82187500000+55937500000+57187500000+75937500000+71250000000
1632+67812500000+70625000000+76250000000+79375000000+80937500000+82187500000
1600+82812500000+82812500000+82500000000+81875000000+81250000000+80312500000
1568+79375000000+77812500000+76250000000+75312500000+74062500000+72812500000
1537+70000000000+67187500000+63125000000+56250000000+54687500000+55000000000
1505+47500000000+37500000000+20000000000+9687500000+10312500000+9375000000
1474+5000000000+4687500000+5312500000+15312500000+25937500000+36562500000
1442+39687500000+40312499999+42812500000+47500000000+50937500000+50937500000
1411+47500000000+43125000000+41874999999+41562500000+41874999999+43125000000
1379+39375000000+37500000000+38125000000+35625000000+26250000000+26562500000
1347+44375000000+54062500000+57187500000+58750000000+60000000000+61875000000
1316+63437500000+63750000000+62500000000+58750000000+56250000000+51562500000
1284+48437500000+45312500000+45312500000+45937500000+47187500000+38749999999
1253+34375000000+34062500000+19375000000+16562500000+16875000000+19062500000
1221+29687500000+43437499999+53750000000+62500000000+70000000000+73750000000
1189+75937500000+76875000000+76875000000+74687500000+71875000000+71875000000
1158+72187500000+69687500000+65625000000+57500000000+47812500000+36250000000
1126+25937500000+16250000000+11562500000+9062500000+9062500000+12187500000
1095+21875000000+34687500000+46250000000+57187500000+65000000000+71562500000
1063+76875000000+80937500000+82500000000+83750000000+85312500000+86562500000
1032+87812500000+87187500000+86250000000+85000000000+84375000000+83750000000
1000+81875000000+75937500000+62812500000+37187499999+28750000000+21250000000
968+21250000000+34375000000+33750000000+33750000000+40625000000+58125000000
937+64375000000+45312500000+22812500000+18125000000+18125000000+24062500000
905+36562500000+47812500000+54375000000+58750000000+62812500000+67812500000
874+71562500000+76250000000+79687500000+82187500000+83750000000+85312500000
842+86250000000+86250000000+85312500000+84062500000+66250000000+62500000000
811+82187500000+84375000000+79687500000+75000000000+68437500000+60937500000
779+53437500000+43750000000+27812500000+19687500000+21250000000+34062500000
747+45312500000+62187500000+72187500000+77812500000+81250000000+84062500000
716+85625000000+86875000000+87812500000+88125000000+89062500000+89687500000
684+89687500000+88437500000+85625000000+83125000000+78750000000+72187500000
653+62187500000+50937500000+33437500000+21250000000+21250000000+27500000000
621+34062500000+23750000000+12812500000+13125000000+24062500000+45937500000
589+60937500000+71562500000+76250000000+79062500000+80937500000+82500000000
558+83750000000+84062500000+80625000000+75000000000+68125000000+49375000000
526+47500000000+58125000000+73437500000+77500000000+81250000000+84687500000
495+87187500000+88750000000+89687500000+90625000000+91250000000+91562500000
463+92187500000+92500000000+90625000000+86875000000+82187500000+75937500000
432+70312500000+66250000000+63750000000+62187500000+61250000000+60937500000
400+60312500000
##END=
