##TITLE=ethyl acetoacetate
##JCAMP-DX=4.24
##DATA TYPE=INFRARED SPECTRUM
##DATE=10/06/2025
##SAMPLING PROCEDURE=ATR
##ORIGIN=SDBS
##XUNITS=1/CM
##YUNITS=TRANSMITTANCE
##RESOLUTION=5.2631578947368425
##FIRSTX=4000.0
##LASTX=400.0
##DELTAX=-5.2631578947368425
##MAXY=94.6875
##MINY=0.0
##XFACTOR=1
##YFACTOR=1
##NPOINTS=685
##FIRSTY=0.0
##XYDATA=(X++(Y..Y))
4000+0+86875000000+86875000000+86875000000+86875000000+86875000000
3968+86875000000+86875000000+87500000000+87500000000+87500000000+87500000000
3937+87500000000+87500000000+87500000000+87812500000+88125000000+88125000000
3905+88125000000+88125000000+88125000000+88125000000+88125000000+88437500000
3874+88437500000+88437500000+88437500000+88437500000+88437500000+88750000000
3842+89062500000+89062500000+89062500000+89062500000+89062500000+89062500000
3811+89375000000+89375000000+89062500000+89062500000+88750000000+87812500000
3779+86875000000+85625000000+85000000000+83750000000+83125000000+82500000000
3747+82500000000+82500000000+82500000000+83125000000+83437500000+83750000000
3716+84062500000+84062500000+84062500000+83750000000+83750000000+83437500000
3684+83437500000+83437500000+83437500000+83437500000+83437500000+83437500000
3653+83437500000+83125000000+82812500000+82500000000+82187500000+81562500000
3621+81250000000+80937500000+80937500000+80937500000+80937500000+81875000000
3589+83125000000+84687500000+85625000000+86250000000+86875000000+87187500000
3558+87187500000+87500000000+87500000000+87187500000+87187500000+87187500000
3526+87500000000+87812500000+87812500000+87812500000+87500000000+87500000000
3495+87500000000+87500000000+87500000000+87500000000+87500000000+87500000000
3463+87187500000+87187500000+86875000000+86875000000+86875000000+86875000000
3432+86875000000+86562500000+86250000000+86250000000+86250000000+85937500000
3400+85625000000+85625000000+85312500000+85000000000+85000000000+84687500000
3368+84687500000+84375000000+84062500000+83750000000+83125000000+82812500000
3337+82187500000+80625000000+77500000000+72187500000+62812500000+55312500000
3305+46562499999+38437500000+37187499999+40000000000+49375000000+56250000000
3274+61562500000+58125000000+57187500000+58750000000+64062500000+66250000000
3242+65312500000+67187500000+72812500000+76875000000+76875000000+77500000000
3211+82187500000+83750000000+85000000000+85625000000+86250000000+86875000000
3179+87500000000+87812500000+88437500000+88750000000+89062500000+89062500000
3147+89062500000+89375000000+89687500000+90000000000+90312500000+90625000000
3116+90937500000+91250000000+91562500000+91562500000+91562500000+91875000000
3084+91562500000+91562500000+91875000000+91875000000+91875000000+91875000000
3053+92187500000+92187500000+92187500000+92187500000+92187500000+92500000000
3021+92500000000+92187500000+92187500000+92187500000+92187500000+92500000000
2989+92500000000+92500000000+92812500000+92812500000+92812500000+92812500000
2958+92812500000+92812500000+92812500000+92812500000+92812500000+92812500000
2926+92812500000+92812500000+92812500000+92812500000+92812500000+92812500000
2895+92812500000+93125000000+93125000000+93437500000+93750000000+93750000000
2863+94062500000+94062500000+94062500000+94062500000+94062500000+94375000000
2832+94375000000+94375000000+94375000000+94375000000+94375000000+94375000000
2800+94375000000+94062500000+94062500000+94062500000+94062500000+94062500000
2768+94062500000+94062500000+94062500000+94062500000+94062500000+94062500000
2737+94062500000+94062500000+94062500000+94062500000+94062500000+94062500000
2705+94062500000+94062500000+94062500000+94062500000+94062500000+94062500000
2674+94062500000+94062500000+94375000000+94375000000+94375000000+94375000000
2642+94375000000+94375000000+94375000000+94687500000+94687500000+94687500000
2611+94687500000+94687500000+94687500000+94375000000+94375000000+94375000000
2579+94375000000+94375000000+94062500000+94062500000+94062500000+94062500000
2547+94062500000+94062500000+94062500000+94062500000+94062500000+94062500000
2516+94062500000+93750000000+93750000000+93437500000+93437500000+93125000000
2484+93125000000+93125000000+92812500000+92812500000+92812500000+92812500000
2453+92812500000+92812500000+92500000000+92500000000+92500000000+92500000000
2421+92187500000+92187500000+91875000000+91562500000+91250000000+90937500000
2389+90625000000+90000000000+89687500000+89062500000+88437500000+87500000000
2358+86875000000+86250000000+85312500000+83750000000+82812500000+80937500000
2326+79062500000+76250000000+73750000000+69687500000+64687500000+58437500000
2295+51562500000+41250000000+28750000000+16250000000+8750000000+5625000000
2263+4687500000+4687500000+5000000000+5312500000+6250000000+6875000000
2232+5625000000+4687500000+4687500000+5000000000+6562500000+10312500000
2200+19687500000+32812500000+44062500000+50625000000+56250000000+61250000000
2168+65000000000+66875000000+68437500000+67187500000+64375000000+60000000000
2137+55000000000+52187500000+51875000000+52500000000+55000000000+55625000000
2105+55312500000+55312500000+59062500000+64687500000+70000000000+73437500000
2074+76562500000+79062500000+81250000000+82812500000+84375000000+85937500000
2042+87187500000+88125000000+89062500000+89687500000+90000000000+90312500000
2011+90625000000+90625000000+90625000000+90625000000+90625000000+90625000000
1979+90625000000+90625000000+90625000000+90625000000+90312500000+90312500000
1947+90000000000+89687500000+89375000000+88750000000+88125000000+87187500000
1916+86250000000+84375000000+81562500000+75937500000+68750000000+65000000000
1884+64375000000+60937500000+58437500000+58750000000+61562500000+58750000000
1853+53125000000+50312500000+50625000000+54375000000+54687500000+51562500000
1821+47812500000+44687500000+41562500000+38437500000+35937500000+35937500000
1789+38437500000+46250000000+52187500000+52187500000+51250000000+51250000000
1758+54062500000+49687499999+40000000000+25625000000+20625000000+21250000000
1726+24062500000+27500000000+38437500000+50625000000+56250000000+53437500000
1695+46875000000+38437500000+27812500000+20000000000+16250000000+15625000000
1663+15937500000+18125000000+22187500000+25625000000+27812500000+30312500000
1632+32500000000+31250000000+29375000000+27812500000+25625000000+24375000000
1600+23125000000+22812500000+22812500000+23750000000+24375000000+24375000000
1568+23750000000+23750000000+24375000000+26875000000+31562500000+37187499999
1537+40312499999+42812500000+43750000000+43437499999+40937500000+36875000000
1505+32187500000+28750000000+26562500000+26250000000+26250000000+25312500000
1474+25000000000+25000000000+26250000000+28750000000+25312500000+19687500000
1442+15625000000+15000000000+15312500000+20000000000+30000000000+39062500000
1411+49687499999+57187500000+62812500000+65937500000+65625000000+65625000000
1379+67812500000+70312500000+65000000000+60312500000+60312500000+65937500000
1347+75625000000+80312500000+81875000000+82500000000+82187500000+80312500000
1316+77812500000+72500000000+63750000000+49687499999+35312500000+24375000000
1284+22500000000+23437500000+30312500000+38749999999+49687499999+56250000000
1253+58125000000+60312500000+64687500000+71250000000+77187500000+80625000000
1221+82500000000+83125000000+83750000000+85000000000+86875000000+89062500000
1189+90312500000+90937500000+91562500000+90937500000+90000000000+88437500000
1158+86562500000+83750000000+81875000000+79687500000+78437500000+78750000000
1126+81875000000+83750000000+85937500000+88750000000+90937500000+91875000000
1095+92187500000+91875000000+91562500000+90937500000+90312500000+89687500000
1063+88750000000+87500000000+85937500000+84062500000+82500000000+80937500000
1032+80625000000+80625000000+81250000000+82187500000+83750000000+85312500000
1000+86250000000+86875000000+86250000000+85312500000+83750000000+82187500000
968+80625000000+79375000000+78125000000+77812500000+78125000000+80625000000
937+83125000000+85000000000+85937500000+87812500000+89687500000+91562500000
905+92500000000+93125000000+93125000000+92500000000+91562500000+90937500000
874+90312500000+90000000000+90312500000+90312500000+90625000000+90937500000
842+91250000000+91875000000+92187500000+92812500000+93125000000+93437500000
811+93750000000+94062500000+94375000000+94375000000+94687500000+94687500000
779+94687500000+94687500000+94687500000+94687500000+94687500000+94375000000
747+94062500000+93437500000+93125000000+92187500000+90312500000+88125000000
716+85000000000+82187500000+81562500000+82187500000+85625000000+88125000000
684+89062500000+89687500000+90000000000+90625000000+90625000000+90625000000
653+90312500000+90000000000+89375000000+88750000000+87500000000+86250000000
621+84062500000+80937500000+76250000000+70937500000+63750000000+59687500000
589+59687500000+66562500000+74687500000+80312500000+83437500000+85312500000
558+86250000000+86250000000+85625000000+85000000000+84062500000+83437500000
526+83125000000+82812500000+82812500000+82812500000+82500000000+82500000000
495+81875000000+81250000000+80625000000+79687500000+79062500000+78125000000
463+77500000000+76562500000+75625000000+74687500000+74062500000+72812500000
432+70937500000+68750000000+67187500000+64687500000+62812500000+61562500000
400+60937500000
##END=
