##TITLE=ethyl hexanoate
##JCAMP-DX=4.24
##DATA TYPE=INFRARED SPECTRUM
##DATE=10/06/2025
##SAMPLING PROCEDURE=ATR
##ORIGIN=SDBS
##XUNITS=1/CM
##YUNITS=TRANSMITTANCE
##RESOLUTION=5.2631578947368425
##FIRSTX=4000.0
##LASTX=400.0
##DELTAX=-5.2631578947368425
##MAXY=95.0
##MINY=0.0
##XFACTOR=1
##YFACTOR=1
##NPOINTS=685
##FIRSTY=0.0
##XYDATA=(X++(Y..Y))
4000+0+93437500000+93437500000+93437500000+93437500000+93437500000
3968+93750000000+93750000000+94062500000+94062500000+94062500000+94375000000
3937+94375000000+94375000000+94375000000+94375000000+94375000000+94375000000
3905+94375000000+94375000000+94375000000+94375000000+94375000000+94375000000
3874+94375000000+94375000000+94375000000+94375000000+94375000000+94375000000
3842+94375000000+94375000000+94375000000+94687500000+94687500000+95000000000
3811+94687500000+94687500000+94375000000+94062500000+93750000000+93437500000
3779+93125000000+92812500000+92500000000+92187500000+91875000000+91875000000
3747+91875000000+91875000000+92187500000+92500000000+92812500000+93125000000
3716+93125000000+93125000000+92812500000+92812500000+92500000000+92500000000
3684+92500000000+92500000000+92812500000+93125000000+93437500000+93750000000
3653+93750000000+93750000000+93437500000+92187500000+90312500000+89062500000
3621+88750000000+89375000000+90937500000+92500000000+93437500000+93750000000
3589+94062500000+94375000000+94375000000+94062500000+94062500000+94062500000
3558+94062500000+94062500000+94062500000+94375000000+94375000000+94375000000
3526+94375000000+94375000000+94375000000+94375000000+94375000000+94375000000
3495+94062500000+94062500000+94062500000+93750000000+93750000000+93437500000
3463+93125000000+93125000000+92812500000+92500000000+92500000000+92500000000
3432+92500000000+92500000000+92500000000+92500000000+92187500000+92187500000
3400+92187500000+92187500000+91875000000+91875000000+91562500000+91250000000
3368+90937500000+90312500000+90000000000+89375000000+88437500000+87500000000
3337+85937500000+84375000000+81562500000+76875000000+68437500000+56875000000
3305+42812500000+30312500000+23125000000+21250000000+14062500000+11562500000
3274+11875000000+15937500000+13437500000+13125000000+15000000000+18750000000
3242+23437500000+28125000000+35312500000+39062500000+25000000000+24687500000
3211+27187500000+28437500000+40312499999+59687500000+70312500000+74687500000
3179+78437500000+81875000000+84687500000+86250000000+87812500000+88750000000
3147+89375000000+89687500000+90312500000+90000000000+89687500000+89687500000
3116+90000000000+90625000000+91562500000+91875000000+91875000000+91562500000
3084+91562500000+91562500000+91562500000+91875000000+92187500000+92500000000
3053+92812500000+92812500000+93125000000+93125000000+93125000000+93437500000
3021+93437500000+93437500000+93750000000+93750000000+93750000000+93750000000
2989+94062500000+94062500000+94375000000+94375000000+94375000000+94375000000
2958+94375000000+94375000000+94375000000+94375000000+94375000000+94375000000
2926+94375000000+94375000000+94062500000+94062500000+93750000000+93750000000
2895+93750000000+93750000000+93750000000+93750000000+93750000000+94062500000
2863+94062500000+94062500000+94062500000+94062500000+94062500000+94062500000
2832+94062500000+94062500000+94062500000+93750000000+93750000000+93750000000
2800+93750000000+94062500000+94062500000+94062500000+94062500000+94062500000
2768+94062500000+94062500000+94375000000+94375000000+94375000000+94375000000
2737+94375000000+94375000000+94062500000+94062500000+94062500000+94062500000
2705+94062500000+93750000000+93750000000+93437500000+93437500000+93437500000
2674+93125000000+93125000000+93125000000+93125000000+92812500000+92187500000
2642+92187500000+92187500000+92187500000+92500000000+92812500000+93125000000
2611+93437500000+93437500000+93125000000+93125000000+92812500000+92812500000
2579+92812500000+92500000000+92500000000+92500000000+92500000000+92500000000
2547+92500000000+92500000000+92500000000+92500000000+92500000000+92812500000
2516+92812500000+92812500000+92812500000+92500000000+92500000000+92500000000
2484+92187500000+92187500000+91875000000+91875000000+91562500000+91562500000
2453+91562500000+91562500000+91875000000+91875000000+91875000000+91875000000
2421+91875000000+91875000000+91875000000+91875000000+91562500000+91562500000
2389+91250000000+90937500000+90625000000+90312500000+89687500000+89062500000
2358+88437500000+87812500000+86875000000+85937500000+85000000000+83750000000
2326+82500000000+80625000000+78750000000+76875000000+73750000000+70625000000
2295+67187500000+62187500000+55312500000+45937500000+35625000000+22187500000
2263+10937500000+5937500000+4687500000+4687500000+5625000000+8750000000
2232+15312500000+24062500000+34375000000+44375000000+52500000000+57812500000
2200+62500000000+65000000000+66250000000+68437500000+73437500000+77812500000
2168+80625000000+82500000000+84375000000+85625000000+86562500000+87187500000
2137+87812500000+88437500000+89062500000+89062500000+89375000000+89375000000
2105+89375000000+89375000000+89375000000+89687500000+89687500000+89687500000
2074+90000000000+90312500000+90312500000+90625000000+90625000000+90625000000
2042+90937500000+90937500000+90937500000+90937500000+90937500000+90937500000
2011+90625000000+90625000000+90625000000+90625000000+90625000000+90312500000
1979+90312500000+90312500000+90000000000+89687500000+89375000000+89062500000
1947+88125000000+87500000000+87187500000+86562500000+85937500000+84687500000
1916+83750000000+81250000000+77812500000+70625000000+61562500000+57500000000
1884+51562500000+38749999999+33125000000+33437500000+35312500000+38125000000
1853+41250000000+43750000000+43750000000+48437500000+54375000000+58750000000
1821+58750000000+56250000000+54062500000+54062500000+58125000000+65000000000
1789+68437500000+65937500000+60312500000+54375000000+51250000000+50312500000
1758+41562500000+33750000000+29375000000+28125000000+29687500000+37187499999
1726+53750000000+58125000000+49687499999+48124999999+48124999999+48437500000
1695+50625000000+56250000000+58125000000+56250000000+47812500000+40937500000
1663+40312499999+41562500000+42187500000+41250000000+40312499999+40000000000
1632+40625000000+42500000000+43750000000+46562499999+43750000000+42187500000
1600+42187500000+42812500000+41250000000+35312500000+26562500000+20312500000
1568+19375000000+19375000000+21562500000+25312500000+28125000000+28750000000
1537+28750000000+28750000000+28437500000+28437500000+28750000000+29375000000
1505+30937500000+29062500000+24062500000+17500000000+12812500000+10625000000
1474+10312500000+10312500000+11875000000+14062500000+15312500000+18750000000
1442+25312500000+35000000000+43750000000+51875000000+58437500000+61562500000
1411+63437500000+60000000000+53750000000+41562500000+32812500000+31562500000
1379+31562500000+32187500000+29687500000+29062500000+30312500000+36875000000
1347+49375000000+59687500000+65312500000+67812500000+67500000000+66562500000
1316+66250000000+65312500000+63125000000+58125000000+50937500000+42500000000
1284+35000000000+33125000000+33750000000+38437500000+40937500000+43437499999
1253+50312500000+60312500000+70000000000+77187500000+80625000000+82500000000
1221+84375000000+85625000000+85625000000+85937500000+86250000000+86875000000
1189+87187500000+87187500000+86562500000+85000000000+83125000000+81562500000
1158+80312500000+79687500000+79687500000+80625000000+82812500000+84687500000
1126+85000000000+85312500000+85937500000+86250000000+86875000000+87187500000
1095+87187500000+86562500000+85000000000+82500000000+81875000000+82812500000
1063+85000000000+85000000000+82187500000+75937500000+70937500000+69375000000
1032+69687500000+72812500000+77500000000+79687500000+81250000000+83125000000
1000+85312500000+87500000000+89062500000+90312500000+90312500000+89375000000
968+87812500000+86562500000+85937500000+85625000000+85937500000+85937500000
937+84687500000+84375000000+83437500000+83437500000+83437500000+84375000000
905+85625000000+87187500000+88125000000+88125000000+86875000000+85625000000
874+83437500000+80000000000+75312500000+74062500000+74687500000+77812500000
842+82187500000+87187500000+88750000000+89375000000+90000000000+90312500000
811+90625000000+90937500000+91562500000+91875000000+92187500000+92500000000
779+92812500000+93125000000+93125000000+92812500000+92812500000+92500000000
747+92187500000+92187500000+92187500000+92187500000+92187500000+92187500000
716+92187500000+92187500000+91875000000+91562500000+91250000000+90937500000
684+90312500000+90000000000+89687500000+89375000000+89375000000+89687500000
653+90000000000+90312500000+90937500000+91562500000+92187500000+92812500000
621+93437500000+93750000000+94062500000+94375000000+94375000000+94375000000
589+94375000000+94375000000+94062500000+93750000000+93437500000+93125000000
558+92812500000+92187500000+91875000000+91562500000+90937500000+90625000000
526+90312500000+90312500000+90000000000+90000000000+89687500000+89687500000
495+89375000000+89062500000+89062500000+89062500000+88750000000+88437500000
463+88437500000+88125000000+87500000000+86875000000+86250000000+85625000000
432+85000000000+84375000000+84062500000+84062500000+83750000000+83750000000
400+83750000000
##END=
