##TITLE=folic acid
##JCAMP-DX=4.24
##DATA TYPE=INFRARED SPECTRUM
##DATE=10/06/2025
##SAMPLING PROCEDURE=ATR
##ORIGIN=SDBS
##XUNITS=1/CM
##YUNITS=TRANSMITTANCE
##RESOLUTION=5.2631578947368425
##FIRSTX=4000.0
##LASTX=400.0
##DELTAX=-5.2631578947368425
##MAXY=94.6875
##MINY=0.0
##XFACTOR=1
##YFACTOR=1
##NPOINTS=685
##FIRSTY=0.0
##XYDATA=(X++(Y..Y))
4000+0+87500000000+87812500000+87500000000+87500000000+87500000000
3968+88125000000+88437500000+88750000000+88437500000+88125000000+87812500000
3937+87812500000+87812500000+87812500000+88125000000+88125000000+88125000000
3905+88125000000+88125000000+88437500000+88437500000+88437500000+88437500000
3874+88437500000+88437500000+88437500000+88437500000+88437500000+88437500000
3842+88750000000+88750000000+88750000000+88750000000+89062500000+89375000000
3811+89375000000+89375000000+89375000000+89687500000+89687500000+90000000000
3779+90000000000+90000000000+89375000000+88437500000+86875000000+85625000000
3747+84687500000+84375000000+84062500000+83750000000+83437500000+82812500000
3716+81562500000+80312500000+78437500000+75937500000+73437500000+71875000000
3684+70625000000+70625000000+71250000000+73437500000+75312500000+77500000000
3653+78125000000+77500000000+76250000000+75000000000+74375000000+74062500000
3621+74062500000+74375000000+74375000000+73125000000+70000000000+69375000000
3589+69687500000+70312500000+71250000000+72500000000+73437500000+74062500000
3558+74375000000+74687500000+74375000000+73750000000+71875000000+70625000000
3526+70625000000+71250000000+71562500000+72500000000+73125000000+73125000000
3495+72812500000+72500000000+72500000000+72500000000+72500000000+72500000000
3463+72812500000+72812500000+72500000000+72187500000+71875000000+71562500000
3432+71250000000+70937500000+70625000000+70312500000+69687500000+69687500000
3400+69687500000+69687500000+69687500000+69687500000+69687500000+69687500000
3368+69687500000+70000000000+70312500000+70625000000+70625000000+70937500000
3337+70937500000+70625000000+69687500000+68750000000+66875000000+64687500000
3305+60312500000+55000000000+44687500000+32187500000+18750000000+12500000000
3274+11250000000+11875000000+8125000000+5312500000+4687500000+5000000000
3242+8437500000+12187500000+15937500000+19375000000+22187500000+18750000000
3211+15625000000+11875000000+12187500000+23437500000+41562500000+53437500000
3179+60625000000+65625000000+68437500000+70000000000+71562500000+73125000000
3147+74375000000+75000000000+75625000000+75312500000+75937500000+75625000000
3116+75937500000+75937500000+76562500000+77187500000+77500000000+77500000000
3084+77812500000+78125000000+78125000000+78437500000+78750000000+78750000000
3053+78750000000+78750000000+79062500000+79375000000+79687500000+79687500000
3021+79687500000+79687500000+80000000000+80000000000+80625000000+80937500000
2989+81562500000+81875000000+82500000000+82500000000+82812500000+83125000000
2958+83437500000+83437500000+83750000000+83750000000+84062500000+84375000000
2926+84687500000+85000000000+85000000000+85312500000+85625000000+85937500000
2895+86250000000+86250000000+86250000000+86250000000+86250000000+86562500000
2863+86875000000+87187500000+87187500000+87500000000+87500000000+87812500000
2832+88125000000+88437500000+88750000000+89062500000+89375000000+89687500000
2800+89687500000+90000000000+90000000000+90312500000+90625000000+90625000000
2768+90937500000+91250000000+91562500000+91875000000+91875000000+92187500000
2737+92187500000+92500000000+92500000000+92812500000+93125000000+93125000000
2705+93437500000+93437500000+93750000000+93750000000+93750000000+93750000000
2674+94062500000+94062500000+94062500000+94062500000+94375000000+94375000000
2642+94375000000+94375000000+94375000000+94687500000+94687500000+94687500000
2611+94687500000+94687500000+94687500000+94687500000+94687500000+94687500000
2579+94687500000+94687500000+94687500000+94687500000+94687500000+94687500000
2547+94687500000+94687500000+94687500000+94687500000+94375000000+94375000000
2516+94375000000+94062500000+94062500000+94062500000+94062500000+93750000000
2484+93750000000+93750000000+93750000000+93750000000+93750000000+93750000000
2453+93750000000+93750000000+93437500000+93437500000+93437500000+93437500000
2421+93437500000+93437500000+93437500000+93437500000+93437500000+93437500000
2389+93437500000+93750000000+93750000000+93750000000+94062500000+94062500000
2358+94062500000+94062500000+94062500000+94062500000+94062500000+93750000000
2326+93750000000+93750000000+93437500000+93437500000+93125000000+92812500000
2295+92812500000+92187500000+91875000000+91250000000+90625000000+89687500000
2263+88125000000+86250000000+84062500000+81250000000+77812500000+74375000000
2232+70312500000+65937500000+60937500000+56562500000+52500000000+47187500000
2200+41874999999+37812500000+36875000000+36875000000+38437500000+42500000000
2168+46562499999+49375000000+50937500000+51250000000+51875000000+53750000000
2137+55937500000+58750000000+61875000000+63125000000+59687500000+59375000000
2105+60312500000+63750000000+68437500000+70000000000+69062500000+65000000000
2074+57500000000+50937500000+50312500000+52812500000+62500000000+69687500000
2042+74375000000+76562500000+78125000000+78437500000+75312500000+72812500000
2011+73750000000+77812500000+79375000000+79687500000+79375000000+79062500000
1979+79062500000+79687500000+80625000000+81875000000+82500000000+80000000000
1947+78437500000+78437500000+79375000000+80000000000+78437500000+74375000000
1916+68750000000+60937500000+54062500000+48124999999+47812500000+49062500000
1884+50312500000+42812500000+35312500000+35312500000+35625000000+35625000000
1853+36562500000+41562500000+48437500000+54375000000+59375000000+64375000000
1821+69062500000+68437500000+67187500000+65625000000+65312500000+65625000000
1789+66875000000+68750000000+70312500000+71250000000+70625000000+64687500000
1758+60000000000+51875000000+50000000000+53437500000+64062500000+62812500000
1726+63125000000+65625000000+68125000000+68750000000+68125000000+64375000000
1695+63125000000+63750000000+68125000000+73437500000+75937500000+77187500000
1663+77500000000+77500000000+76250000000+74375000000+73437500000+73750000000
1632+73750000000+74062500000+75000000000+78437500000+80625000000+80625000000
1600+80625000000+82187500000+83750000000+84062500000+81875000000+79687500000
1568+79687500000+79687500000+79687500000+80312500000+80312500000+77187500000
1537+77812500000+83437500000+86875000000+88125000000+88750000000+89062500000
1505+85625000000+76250000000+68750000000+70000000000+77812500000+80937500000
1474+80625000000+81562500000+85000000000+86875000000+84375000000+83125000000
1442+84687500000+86875000000+87500000000+88437500000+87812500000+80937500000
1411+80625000000+86250000000+88437500000+88437500000+88125000000+87500000000
1379+86250000000+85312500000+85625000000+88125000000+89687500000+90625000000
1347+91250000000+91875000000+92500000000+92812500000+92812500000+92812500000
1316+92500000000+92500000000+92500000000+92500000000+92187500000+90937500000
1284+89062500000+88437500000+90000000000+90625000000+90937500000+91562500000
1253+92187500000+92187500000+92187500000+92187500000+92187500000+92500000000
1221+92812500000+92812500000+93125000000+92812500000+92187500000+88750000000
1189+85625000000+85937500000+89062500000+90625000000+90625000000+90312500000
1158+89687500000+89062500000+88437500000+87500000000+86250000000+84375000000
1126+83125000000+81875000000+81562500000+81250000000+81250000000+81562500000
1095+82187500000+82500000000+83125000000+83750000000+84687500000+85625000000
1063+86875000000+87187500000+87812500000+88437500000+89062500000+89687500000
1032+90312500000+90937500000+90625000000+89687500000+86250000000+75000000000
1000+75937500000+84687500000+87187500000+89375000000+87812500000+85937500000
968+86562500000+88437500000+91250000000+93437500000+94062500000+94375000000
937+94687500000+94687500000+94687500000+94375000000+92812500000+89687500000
905+82500000000+81875000000+83750000000+88125000000+90937500000+91250000000
874+90937500000+90000000000+89375000000+89062500000+87500000000+83750000000
842+80937500000+80937500000+83750000000+87500000000+89687500000+89687500000
811+89687500000+89687500000+89375000000+89062500000+89062500000+89062500000
779+89375000000+89687500000+90000000000+90625000000+90937500000+91250000000
747+91562500000+91562500000+91562500000+91250000000+91250000000+91250000000
716+91250000000+91250000000+91562500000+91250000000+90937500000+90625000000
684+89687500000+88125000000+86562500000+85937500000+85625000000+85000000000
653+85000000000+85000000000+85312500000+85937500000+86562500000+87187500000
621+87812500000+88125000000+88750000000+89062500000+89062500000+89375000000
589+90000000000+90312500000+90000000000+89687500000+89062500000+88437500000
558+87812500000+87500000000+87500000000+87812500000+88437500000+89062500000
526+89687500000+90000000000+90312500000+90312500000+90312500000+90312500000
495+89687500000+88750000000+87500000000+85625000000+84062500000+82812500000
463+82187500000+82187500000+82187500000+82500000000+83437500000+84062500000
432+84375000000+84062500000+83437500000+82500000000+81562500000+81250000000
400+80937500000
##END=
