##TITLE=furan
##JCAMP-DX=4.24
##DATA TYPE=INFRARED SPECTRUM
##DATE=10/06/2025
##SAMPLING PROCEDURE=ATR
##ORIGIN=SDBS
##XUNITS=1/CM
##YUNITS=TRANSMITTANCE
##RESOLUTION=5.2631578947368425
##FIRSTX=4000.0
##LASTX=400.0
##DELTAX=-5.2631578947368425
##MAXY=95.0
##MINY=0.0
##XFACTOR=1
##YFACTOR=1
##NPOINTS=685
##FIRSTY=0.0
##XYDATA=(X++(Y..Y))
4000+0+83125000000+85625000000+89062500000+90937500000+91875000000
3968+92187500000+92812500000+93125000000+93437500000+93437500000+93437500000
3937+93437500000+93125000000+92812500000+92812500000+92812500000+92812500000
3905+92812500000+93125000000+93125000000+93125000000+93437500000+93437500000
3874+93437500000+93437500000+93437500000+93437500000+93125000000+93125000000
3842+93125000000+93125000000+93125000000+93125000000+93125000000+93125000000
3811+93437500000+93125000000+92812500000+92500000000+92187500000+91875000000
3779+91875000000+91875000000+92187500000+92500000000+92500000000+92812500000
3747+92812500000+92812500000+92500000000+92187500000+92187500000+91875000000
3716+91875000000+91562500000+91562500000+91562500000+91562500000+91875000000
3684+91875000000+91875000000+91875000000+91875000000+91875000000+91875000000
3653+91875000000+91875000000+91875000000+91875000000+91875000000+91562500000
3621+91562500000+91562500000+91562500000+91562500000+91562500000+91562500000
3589+91250000000+91250000000+91250000000+91250000000+91250000000+91250000000
3558+90937500000+90937500000+90937500000+90625000000+90625000000+90312500000
3526+90312500000+90312500000+90000000000+89687500000+89375000000+89062500000
3495+88437500000+87812500000+87500000000+87187500000+86562500000+85937500000
3463+85000000000+84687500000+83750000000+83125000000+81875000000+80625000000
3432+79062500000+76562500000+72500000000+67187500000+62812500000+63437500000
3400+65312500000+63750000000+62187500000+64687500000+75937500000+81250000000
3368+83437500000+85000000000+86562500000+88125000000+88750000000+89687500000
3337+90000000000+90625000000+90937500000+90937500000+91250000000+91250000000
3305+91562500000+91562500000+91250000000+90937500000+89687500000+89062500000
3274+89062500000+89375000000+90000000000+90000000000+89062500000+89375000000
3242+90937500000+91562500000+91875000000+91875000000+92187500000+91250000000
3211+90000000000+90000000000+91875000000+92187500000+92500000000+92500000000
3179+92812500000+92812500000+93125000000+93125000000+93125000000+93437500000
3147+93437500000+93125000000+93125000000+93125000000+92812500000+92187500000
3116+90625000000+90625000000+92500000000+93125000000+93437500000+93437500000
3084+93437500000+93125000000+91875000000+88437500000+88437500000+91250000000
3053+91562500000+92812500000+92187500000+90937500000+91562500000+90625000000
3021+87812500000+88125000000+91875000000+93125000000+92500000000+90000000000
2989+90000000000+91250000000+92812500000+91875000000+91875000000+92812500000
2958+93437500000+93750000000+93750000000+93750000000+93750000000+93750000000
2926+93437500000+92187500000+89687500000+89687500000+90312500000+89375000000
2895+90937500000+89687500000+91562500000+93125000000+93437500000+93437500000
2863+93125000000+92812500000+92812500000+92812500000+92500000000+92187500000
2832+92187500000+92187500000+92187500000+92812500000+93437500000+93437500000
2800+93125000000+91875000000+89062500000+89062500000+92187500000+93125000000
2768+93125000000+92500000000+90625000000+90625000000+92187500000+93437500000
2737+93750000000+93437500000+92187500000+91875000000+93125000000+93750000000
2705+93437500000+93437500000+93750000000+93750000000+92500000000+91250000000
2674+91875000000+93125000000+93125000000+93750000000+93437500000+92187500000
2642+89687500000+89062500000+88750000000+90000000000+91875000000+92500000000
2611+93125000000+92812500000+91875000000+90625000000+90000000000+90000000000
2579+90937500000+92500000000+93437500000+94062500000+94062500000+94375000000
2547+94375000000+94375000000+94375000000+94375000000+94375000000+94375000000
2516+94375000000+94375000000+94375000000+94062500000+93437500000+93125000000
2484+93125000000+93125000000+93437500000+93437500000+93750000000+94062500000
2453+94375000000+94687500000+94687500000+94687500000+94687500000+94687500000
2421+94687500000+94687500000+94687500000+94687500000+94687500000+94687500000
2389+94687500000+94687500000+94687500000+94687500000+95000000000+95000000000
2358+94687500000+94687500000+94375000000+94062500000+93750000000+93125000000
2326+93125000000+93125000000+93125000000+92812500000+92812500000+92187500000
2295+91562500000+91250000000+90625000000+90000000000+89375000000+88125000000
2263+86250000000+84375000000+83125000000+81875000000+81875000000+81875000000
2232+82812500000+82812500000+81562500000+80000000000+79062500000+79062500000
2200+80000000000+81562500000+84375000000+85937500000+86562500000+88125000000
2168+89687500000+90625000000+91562500000+91875000000+91875000000+91875000000
2137+91562500000+91250000000+90937500000+90312500000+89375000000+88125000000
2105+87187500000+85625000000+83750000000+81250000000+78750000000+75000000000
2074+70000000000+64062500000+58750000000+53750000000+50000000000+49062500000
2042+49062500000+50312500000+53125000000+55625000000+57500000000+58750000000
2011+60937500000+65000000000+70000000000+65937500000+64687500000+70312500000
1979+78125000000+80625000000+83125000000+84375000000+84375000000+84062500000
1947+83125000000+81562500000+79375000000+75625000000+70937500000+64062500000
1916+55312500000+41250000000+25625000000+18125000000+18437500000+25000000000
1884+36875000000+45312500000+50625000000+57500000000+64375000000+70312500000
1853+73750000000+76250000000+77812500000+80312500000+82500000000+85312500000
1821+87187500000+88437500000+89375000000+89687500000+90000000000+90000000000
1789+89687500000+89062500000+87500000000+85312500000+80625000000+69375000000
1758+45312500000+36562500000+39062500000+61250000000+75312500000+80000000000
1726+83437500000+85937500000+87187500000+88437500000+89062500000+90000000000
1695+90937500000+91562500000+91562500000+91875000000+91875000000+92187500000
1663+92500000000+92812500000+93125000000+93125000000+93437500000+93125000000
1632+93125000000+92812500000+92187500000+91562500000+91250000000+90625000000
1600+88750000000+83750000000+84062500000+89062500000+90937500000+91562500000
1568+91875000000+91875000000+91875000000+91875000000+91562500000+91250000000
1537+90937500000+89687500000+88437500000+87187500000+84062500000+79062500000
1505+77500000000+77500000000+75937500000+70000000000+61250000000+46562499999
1474+26875000000+12812500000+10937500000+12187500000+23437500000+44062500000
1442+61250000000+70312500000+75000000000+78437500000+80625000000+81562500000
1411+83125000000+84687500000+85625000000+85937500000+86250000000+86875000000
1379+87187500000+86875000000+86562500000+85937500000+85000000000+83750000000
1347+81562500000+79062500000+75312500000+69687500000+60937500000+45312500000
1316+29062500000+23750000000+25000000000+39687500000+55937500000+64687500000
1284+69687500000+71250000000+72500000000+72187500000+70937500000+68125000000
1253+65000000000+59687500000+51875000000+41250000000+30000000000+17812500000
1221+9687500000+7187500000+6875000000+8750000000+16875000000+30312500000
1189+42812500000+51562500000+58750000000+64375000000+68750000000+71875000000
1158+75000000000+77187500000+79375000000+80312500000+81250000000+82187500000
1126+82812500000+83125000000+83750000000+83750000000+83125000000+82500000000
1095+81875000000+80937500000+79375000000+77187500000+73750000000+68125000000
1063+60937500000+45937500000+24375000000+14375000000+14062500000+21250000000
1032+40625000000+57187500000+65937500000+70312500000+72812500000+74687500000
1000+76875000000+78125000000+78750000000+79062500000+79062500000+78437500000
968+77500000000+76562500000+75000000000+73125000000+71250000000+69375000000
937+66250000000+61562500000+56562500000+50625000000+44062500000+37187499999
905+27187500000+18437500000+11875000000+7500000000+5625000000+4687500000
874+4687500000+5625000000+7500000000+10937500000+15625000000+23125000000
842+31875000000+41250000000+49062500000+56875000000+63437500000+68437500000
811+72500000000+75312500000+77500000000+80312500000+82187500000+84062500000
779+85625000000+86250000000+86562500000+86875000000+87187500000+87500000000
747+87500000000+87500000000+87187500000+86875000000+85937500000+84687500000
716+83125000000+80625000000+77500000000+71875000000+64062500000+51250000000
684+29375000000+11562500000+9687500000+12500000000+25000000000+46875000000
653+62812500000+73437500000+78750000000+83125000000+85937500000+88125000000
621+89062500000+90312500000+91250000000+92187500000+92500000000+93125000000
589+94062500000+94375000000+94687500000+94687500000+94687500000+94687500000
558+94687500000+94687500000+94375000000+94062500000+93750000000+93437500000
526+93437500000+93437500000+93437500000+93437500000+93750000000+93750000000
495+94062500000+94062500000+94062500000+93750000000+93750000000+93125000000
463+92812500000+91875000000+91250000000+90312500000+89687500000+89062500000
432+88125000000+87187500000+86562500000+85625000000+85000000000+84375000000
400+84375000000
##END=
