##TITLE=gall
##JCAMP-DX=4.24
##DATA TYPE=INFRARED SPECTRUM
##DATE=10/06/2025
##SAMPLING PROCEDURE=ATR
##ORIGIN=SDBS
##XUNITS=1/CM
##YUNITS=TRANSMITTANCE
##RESOLUTION=5.2631578947368425
##FIRSTX=4000.0
##LASTX=400.0
##DELTAX=-5.2631578947368425
##MAXY=94.6875
##MINY=0.0
##XFACTOR=1
##YFACTOR=1
##NPOINTS=685
##FIRSTY=0.0
##XYDATA=(X++(Y..Y))
4000+0+86875000000+86875000000+86875000000+86875000000+86875000000
3968+86875000000+87187500000+87187500000+87187500000+87187500000+87187500000
3937+87187500000+87187500000+86875000000+86875000000+86875000000+87187500000
3905+87187500000+87187500000+87187500000+87187500000+87187500000+86875000000
3874+86875000000+86875000000+87187500000+87187500000+87187500000+87187500000
3842+87187500000+87187500000+87187500000+87187500000+87187500000+87187500000
3811+87187500000+87187500000+87500000000+87187500000+87187500000+86562500000
3779+85937500000+85000000000+84375000000+83437500000+82500000000+80937500000
3747+79687500000+77500000000+75625000000+73750000000+72187500000+70625000000
3716+69062500000+67500000000+65625000000+63750000000+61875000000+60000000000
3684+58125000000+55937500000+54062500000+52812500000+50937500000+49375000000
3653+47812500000+46875000000+45625000000+44375000000+43437499999+42812500000
3621+41874999999+41250000000+40312499999+40000000000+39375000000+39062500000
3589+38437500000+38125000000+37812500000+37500000000+37187499999+37187499999
3558+36875000000+36875000000+36875000000+36875000000+37187499999+37187499999
3526+37500000000+37812500000+37812500000+38125000000+38437500000+39062500000
3495+39375000000+40312499999+40937500000+41874999999+42500000000+43125000000
3463+44062500000+45312500000+46250000000+47187500000+48124999999+49375000000
3432+50312500000+51250000000+52500000000+53750000000+54687500000+55312500000
3400+56250000000+57187500000+57812500000+58437500000+58750000000+59375000000
3368+59687500000+60312500000+60937500000+61562500000+62187500000+62812500000
3337+63437500000+64062500000+64062500000+63437500000+61875000000+59687500000
3305+55625000000+47812500000+35937500000+25312500000+16875000000+11875000000
3274+10312500000+9375000000+6562500000+4687500000+4687500000+5312500000
3242+8437500000+12812500000+16875000000+21250000000+20937500000+17500000000
3211+15937500000+14687500000+15312500000+28125000000+48437500000+59375000000
3179+65625000000+69687500000+72812500000+74375000000+75937500000+76875000000
3147+77812500000+78437500000+79062500000+79375000000+79375000000+79375000000
3116+79375000000+79375000000+79687500000+79687500000+79687500000+80000000000
3084+80000000000+80000000000+80312500000+80937500000+81250000000+81562500000
3053+81875000000+82500000000+82812500000+83125000000+83437500000+83750000000
3021+84062500000+84375000000+84687500000+85312500000+85625000000+85937500000
2989+85937500000+86250000000+86562500000+86875000000+86875000000+87187500000
2958+87187500000+87500000000+87500000000+87812500000+88125000000+88125000000
2926+88125000000+88125000000+88437500000+88437500000+88437500000+88750000000
2895+88750000000+88750000000+88750000000+88437500000+88437500000+88437500000
2863+88437500000+88750000000+88750000000+89062500000+89062500000+89375000000
2832+89375000000+89375000000+89687500000+89687500000+89687500000+89687500000
2800+90000000000+89687500000+89687500000+89687500000+89687500000+89687500000
2768+89687500000+90000000000+90000000000+90000000000+90312500000+90312500000
2737+90312500000+90312500000+90312500000+90625000000+90625000000+90625000000
2705+90625000000+90625000000+90937500000+90937500000+90937500000+91250000000
2674+91250000000+91250000000+91250000000+91562500000+91562500000+91562500000
2642+91875000000+91875000000+91875000000+92187500000+92187500000+92187500000
2611+92187500000+92500000000+92500000000+92500000000+92500000000+92500000000
2579+92812500000+92812500000+92812500000+92812500000+92812500000+92812500000
2547+93125000000+93125000000+93125000000+93125000000+93125000000+93437500000
2516+93437500000+93437500000+93437500000+93437500000+93437500000+93750000000
2484+93750000000+93750000000+93750000000+93750000000+93750000000+93750000000
2453+94062500000+94062500000+94062500000+94062500000+94062500000+94062500000
2421+94062500000+94062500000+94062500000+94062500000+94062500000+94375000000
2389+94375000000+94375000000+94375000000+94375000000+94375000000+94375000000
2358+94375000000+94375000000+94062500000+94062500000+94062500000+94062500000
2326+94062500000+93750000000+93750000000+93437500000+93125000000+93125000000
2295+92812500000+92500000000+92187500000+91562500000+90625000000+89375000000
2263+87812500000+86562500000+85937500000+85312500000+84375000000+83750000000
2232+82812500000+81562500000+79687500000+77812500000+77500000000+77500000000
2200+77500000000+76875000000+76250000000+75000000000+73125000000+71250000000
2168+69375000000+66562500000+63437500000+60625000000+57812500000+55312500000
2137+53125000000+51562500000+50625000000+49687499999+48437500000+47187500000
2105+46562499999+45937500000+45937500000+46250000000+46250000000+46562499999
2074+46875000000+46875000000+47187500000+47187500000+47500000000+48437500000
2042+49687499999+50625000000+51875000000+52500000000+52187500000+50937500000
2011+50000000000+49687499999+49687499999+50625000000+51875000000+53437500000
1979+54687500000+56250000000+58437500000+60937500000+63125000000+65000000000
1947+67187500000+70000000000+71875000000+73125000000+74375000000+75625000000
1916+75937500000+75000000000+74062500000+72812500000+70625000000+65625000000
1884+57500000000+46875000000+38125000000+37812500000+38125000000+39062500000
1853+40312499999+43125000000+45937500000+49375000000+52500000000+54687500000
1821+58125000000+60000000000+59062500000+58437500000+57500000000+56875000000
1789+55937500000+55312500000+55312500000+55625000000+56875000000+54687500000
1758+50937500000+44375000000+42500000000+44687500000+53125000000+55312500000
1726+59062500000+63750000000+66875000000+68750000000+69687500000+68750000000
1695+68125000000+68437500000+68750000000+69062500000+68125000000+66562500000
1663+64687500000+63750000000+63437500000+63437500000+64687500000+65937500000
1632+66875000000+67500000000+68125000000+68750000000+68750000000+68437500000
1600+68125000000+67187500000+64687500000+63437500000+62500000000+62500000000
1568+62812500000+62812500000+60937500000+58437500000+56562500000+55000000000
1537+53750000000+52500000000+52187500000+52187500000+52187500000+52187500000
1505+52187500000+52187500000+52500000000+54062500000+56562500000+58125000000
1474+58750000000+58750000000+58750000000+60312500000+61562500000+63750000000
1442+66562500000+70000000000+71875000000+75000000000+77187500000+78125000000
1411+79062500000+78750000000+78125000000+76875000000+75625000000+75625000000
1379+76250000000+76875000000+75625000000+71562500000+68750000000+66562500000
1347+64687500000+62187500000+59687500000+59687500000+62812500000+68750000000
1316+68750000000+65000000000+59375000000+54687500000+52500000000+52187500000
1284+53125000000+56250000000+60312500000+62187500000+67187500000+70000000000
1253+71562500000+72187500000+73125000000+77500000000+78125000000+77812500000
1221+79062500000+82812500000+83125000000+77500000000+75000000000+75625000000
1189+80312500000+82812500000+84062500000+85312500000+85625000000+82187500000
1158+80625000000+80625000000+82812500000+85625000000+87812500000+88437500000
1126+88125000000+87812500000+87187500000+81250000000+80000000000+82500000000
1095+88125000000+90000000000+90312500000+90937500000+92187500000+93437500000
1063+94062500000+94375000000+94687500000+94687500000+94375000000+92187500000
1032+90000000000+89687500000+90000000000+90312500000+90625000000+90937500000
1000+91250000000+91562500000+91562500000+91250000000+90312500000+90000000000
968+89062500000+89062500000+88750000000+88750000000+88750000000+89062500000
937+89062500000+88437500000+87187500000+86250000000+85625000000+85000000000
905+84375000000+83750000000+83125000000+82500000000+81875000000+81250000000
874+80312500000+79375000000+78750000000+78125000000+76875000000+75937500000
842+75625000000+75625000000+76562500000+78750000000+80000000000+80312500000
811+80312500000+80312500000+80312500000+80000000000+80000000000+79687500000
779+79687500000+79687500000+79375000000+79375000000+79375000000+79062500000
747+79062500000+78750000000+78437500000+78437500000+78125000000+77812500000
716+77500000000+77500000000+77187500000+75937500000+73750000000+73125000000
684+73437500000+74062500000+74375000000+74687500000+75000000000+75625000000
653+75937500000+76562500000+76875000000+77500000000+77812500000+77812500000
621+78125000000+78125000000+78125000000+78125000000+78125000000+78125000000
589+78125000000+78125000000+78125000000+78437500000+78750000000+79062500000
558+79687500000+80312500000+80937500000+81250000000+81562500000+82187500000
526+82812500000+83437500000+84062500000+84687500000+85625000000+85937500000
495+86562500000+87187500000+87500000000+87812500000+88125000000+88750000000
463+89062500000+89375000000+89687500000+89687500000+90000000000+90000000000
432+89062500000+87187500000+85625000000+83125000000+80937500000+79375000000
400+78437500000
##END=
