##TITLE=gallic acid
##JCAMP-DX=4.24
##DATA TYPE=INFRARED SPECTRUM
##DATE=10/06/2025
##SAMPLING PROCEDURE=ATR
##ORIGIN=SDBS
##XUNITS=1/CM
##YUNITS=TRANSMITTANCE
##RESOLUTION=5.2631578947368425
##FIRSTX=4000.0
##LASTX=400.0
##DELTAX=-5.2631578947368425
##MAXY=95.0
##MINY=0.0
##XFACTOR=1
##YFACTOR=1
##NPOINTS=685
##FIRSTY=0.0
##XYDATA=(X++(Y..Y))
4000+0+86562500000+86562500000+86875000000+87187500000+87500000000
3968+88125000000+88437500000+88437500000+88750000000+89062500000+89375000000
3937+89375000000+89375000000+89687500000+90312500000+90312500000+90312500000
3905+90312500000+90312500000+90312500000+90625000000+90625000000+90937500000
3874+91250000000+91562500000+91875000000+92187500000+92812500000+92812500000
3842+92812500000+92812500000+92812500000+92812500000+92500000000+92500000000
3811+92812500000+93125000000+93125000000+93125000000+93125000000+93437500000
3779+93125000000+92812500000+92500000000+91875000000+90937500000+90312500000
3747+89687500000+88750000000+87187500000+85312500000+83750000000+81875000000
3716+79687500000+77500000000+75000000000+72187500000+69375000000+65937500000
3684+61562500000+56250000000+50312500000+44687500000+36250000000+26875000000
3653+18125000000+17500000000+21875000000+29062500000+31250000000+30625000000
3621+30000000000+28125000000+25625000000+23437500000+21250000000+18750000000
3589+15937500000+14375000000+12187500000+10312500000+8437500000+7812500000
3558+7500000000+7500000000+8125000000+8750000000+9375000000+9687500000
3526+8437500000+7187500000+5937500000+5000000000+4687500000+4687500000
3495+5000000000+5625000000+6875000000+8437500000+9375000000+10000000000
3463+10937500000+12187500000+13125000000+14062500000+15312500000+16562500000
3432+17187500000+18437500000+19375000000+20000000000+20312500000+21250000000
3400+22500000000+22812500000+23750000000+24687500000+24687500000+24375000000
3368+23750000000+22812500000+22187500000+21875000000+21875000000+22187500000
3337+22812500000+23125000000+23125000000+23125000000+22812500000+22812500000
3305+22812500000+23125000000+23437500000+24375000000+25312500000+25937500000
3274+26875000000+28125000000+28750000000+29375000000+30312500000+30625000000
3242+31250000000+31875000000+32812500000+33437500000+34687500000+35312500000
3211+36250000000+36562500000+36250000000+36250000000+36875000000+37812500000
3179+39062500000+39687500000+40312499999+41250000000+41874999999+42500000000
3147+43125000000+43750000000+44687500000+44999999999+45312500000+45625000000
3116+46562499999+47500000000+47812500000+47812500000+47187500000+46875000000
3084+45937500000+45312500000+44999999999+44999999999+44999999999+45312500000
3053+45937500000+46875000000+48437500000+49375000000+50312500000+50625000000
3021+50625000000+50312500000+50312500000+50312500000+51250000000+52500000000
2989+53750000000+55312500000+56250000000+56562500000+56562500000+57187500000
2958+57812500000+58750000000+60000000000+60937500000+61562500000+62500000000
2926+64062500000+65000000000+65937500000+66875000000+67812500000+68437500000
2895+68750000000+69375000000+70312500000+70937500000+71875000000+72500000000
2863+73125000000+73750000000+74687500000+75000000000+75625000000+76250000000
2832+76875000000+77500000000+78437500000+79375000000+80000000000+80312500000
2800+80625000000+81250000000+81875000000+82500000000+82812500000+83437500000
2768+83750000000+83750000000+84062500000+84375000000+84375000000+84687500000
2737+85000000000+85625000000+85937500000+86250000000+86562500000+86875000000
2705+87187500000+87187500000+87187500000+87500000000+87812500000+88437500000
2674+88750000000+89062500000+89062500000+89062500000+89062500000+89062500000
2642+89375000000+90000000000+90937500000+91562500000+91875000000+92187500000
2611+92500000000+92812500000+92812500000+92812500000+92812500000+93125000000
2579+93125000000+93437500000+93437500000+93750000000+93750000000+94062500000
2547+94062500000+94062500000+94062500000+94062500000+94062500000+94062500000
2516+94062500000+94062500000+94062500000+94062500000+94062500000+94375000000
2484+94375000000+94687500000+94687500000+94687500000+94687500000+95000000000
2453+95000000000+94687500000+94687500000+94375000000+94375000000+94062500000
2421+94062500000+94062500000+93750000000+93437500000+93125000000+93125000000
2389+92812500000+92500000000+92187500000+91875000000+91875000000+91562500000
2358+90937500000+90937500000+90312500000+90000000000+89375000000+88437500000
2326+87500000000+86562500000+85625000000+84062500000+83437500000+82500000000
2295+81250000000+80312500000+78750000000+76875000000+74687500000+72812500000
2263+70625000000+68437500000+66250000000+63437500000+59375000000+53750000000
2232+48124999999+40000000000+29062500000+21562500000+17812500000+12187500000
2200+10625000000+10937500000+15000000000+20937500000+28125000000+33125000000
2168+36250000000+37500000000+36875000000+36875000000+36875000000+38125000000
2137+40000000000+40937500000+40937500000+40937500000+41250000000+39687500000
2105+34375000000+23125000000+16250000000+13750000000+12500000000+11875000000
2074+12187500000+14375000000+19062500000+25625000000+33437500000+41874999999
2042+48750000000+54687500000+60000000000+64687500000+68750000000+72187500000
2011+75000000000+76875000000+74687500000+60625000000+50937500000+40312499999
1979+28750000000+29062500000+31562500000+44062500000+54062500000+60312500000
1947+65625000000+68437500000+70000000000+70937500000+71875000000+71562500000
1916+70625000000+68750000000+64375000000+60000000000+57812500000+55000000000
1884+44687500000+35000000000+33437500000+36562500000+40625000000+33750000000
1853+25312500000+24687500000+24375000000+24375000000+24375000000+24375000000
1821+25312500000+25937500000+27500000000+32500000000+40312499999+47500000000
1789+51875000000+52812500000+48750000000+42187500000+33750000000+28750000000
1758+27500000000+27500000000+27812500000+29062500000+32500000000+33437500000
1726+30000000000+24375000000+18750000000+14062500000+10000000000+8125000000
1695+8125000000+8750000000+9375000000+9687500000+9062500000+8437500000
1663+7812500000+7187500000+7187500000+8125000000+11250000000+17187500000
1632+24687500000+30625000000+27500000000+22812500000+18125000000+12812500000
1600+7500000000+6250000000+6562500000+8125000000+9375000000+9062500000
1568+9062500000+9375000000+11875000000+14375000000+16562500000+16562500000
1537+15937500000+15937500000+16562500000+18125000000+17500000000+16562500000
1505+16562500000+17812500000+20937500000+24375000000+26875000000+28125000000
1474+29062500000+30312500000+31562500000+34062500000+37500000000+41250000000
1442+44375000000+47500000000+49375000000+51250000000+53125000000+54687500000
1411+57187500000+59062500000+60625000000+62187500000+64062500000+66250000000
1379+67187500000+68437500000+61250000000+59687500000+61562500000+67500000000
1347+70000000000+72187500000+73750000000+75000000000+75937500000+75937500000
1316+74687500000+71562500000+66562500000+55625000000+41562500000+35000000000
1284+33125000000+28125000000+19687500000+12187500000+11250000000+12500000000
1253+17812500000+25937500000+33750000000+40937500000+46875000000+51250000000
1221+56250000000+59062500000+61875000000+63750000000+65937500000+68125000000
1189+69375000000+70625000000+70625000000+63125000000+62187500000+69375000000
1158+72812500000+74062500000+74687500000+74687500000+74687500000+74375000000
1126+74062500000+72812500000+71562500000+67812500000+65625000000+63437500000
1095+61562500000+60937500000+60937500000+60937500000+61250000000+62187500000
1063+63437500000+62812500000+45312500000+36875000000+34062500000+34375000000
1032+44687500000+53125000000+52812500000+60312500000+65937500000+70000000000
1000+72812500000+75937500000+77812500000+80625000000+83125000000+84375000000
968+84687500000+84687500000+83437500000+77187500000+76875000000+70000000000
937+63125000000+64375000000+75937500000+79062500000+75625000000+65312500000
905+53437500000+53125000000+55625000000+63437500000+73750000000+72187500000
874+67187500000+57187500000+43125000000+36875000000+36562500000+43125000000
842+53437500000+50625000000+44999999999+39375000000+34375000000+33125000000
811+33125000000+35937500000+41562500000+44999999999+46250000000+49062500000
779+51250000000+53125000000+55625000000+56250000000+57500000000+57500000000
747+57187500000+57500000000+57812500000+57812500000+57500000000+57500000000
716+57812500000+57812500000+58125000000+58437500000+58437500000+58437500000
684+57500000000+55937500000+53750000000+52187500000+49687499999+47500000000
653+45937500000+45312500000+44687500000+43437499999+42500000000+41562500000
621+40937500000+40625000000+40625000000+44062500000+52812500000+56875000000
589+58750000000+59687500000+60625000000+61875000000+63750000000+66250000000
558+67812500000+70000000000+71250000000+71875000000+72187500000+72187500000
526+72187500000+72187500000+72187500000+72187500000+72500000000+72812500000
495+73750000000+74687500000+75625000000+76250000000+76875000000+77187500000
463+77500000000+78125000000+79062500000+80312500000+81250000000+82187500000
432+83437500000+85000000000+86875000000+88437500000+90937500000+92812500000
400+94375000000
##END=
