##TITLE=guanidine sulfate
##JCAMP-DX=4.24
##DATA TYPE=INFRARED SPECTRUM
##DATE=10/06/2025
##SAMPLING PROCEDURE=ATR
##ORIGIN=SDBS
##XUNITS=1/CM
##YUNITS=TRANSMITTANCE
##RESOLUTION=5.2631578947368425
##FIRSTX=4000.0
##LASTX=400.0
##DELTAX=-5.2631578947368425
##MAXY=95.0
##MINY=0.0
##XFACTOR=1
##YFACTOR=1
##NPOINTS=685
##FIRSTY=0.0
##XYDATA=(X++(Y..Y))
4000+0+91875000000+91875000000+91875000000+91875000000+91875000000
3968+91875000000+91875000000+91875000000+91875000000+91875000000+91562500000
3937+91562500000+91562500000+91875000000+91875000000+91875000000+91875000000
3905+91562500000+91562500000+91562500000+91562500000+91875000000+91875000000
3874+91875000000+91875000000+91562500000+91562500000+91562500000+91562500000
3842+91562500000+91875000000+91562500000+91562500000+91250000000+91250000000
3811+91250000000+90937500000+90937500000+90625000000+90625000000+90000000000
3779+89687500000+89062500000+88437500000+87812500000+87187500000+86250000000
3747+85312500000+84062500000+82500000000+80625000000+79062500000+77187500000
3716+75312500000+73437500000+71875000000+70312500000+68750000000+67500000000
3684+66250000000+64687500000+63125000000+61875000000+59687500000+57812500000
3653+55312500000+53125000000+49375000000+45312500000+40312499999+35000000000
3621+28750000000+23125000000+17812500000+14062500000+11562500000+9687500000
3589+8750000000+8437500000+8437500000+8750000000+10000000000+11250000000
3558+12500000000+13125000000+13750000000+14375000000+14687500000+15625000000
3526+16562500000+17500000000+18125000000+18750000000+19375000000+20937500000
3495+22500000000+24687500000+27187500000+29375000000+30000000000+30312500000
3463+31250000000+33750000000+35937500000+37187499999+37812500000+37812500000
3432+37500000000+37187499999+36250000000+36250000000+36250000000+38437500000
3400+44687500000+50937500000+55000000000+58750000000+62187500000+64687500000
3368+66875000000+69375000000+71250000000+73125000000+74687500000+75937500000
3337+77500000000+78750000000+79687500000+80937500000+82187500000+83125000000
3305+84062500000+84687500000+85312500000+85625000000+85937500000+85937500000
3274+86250000000+86562500000+86875000000+87187500000+87187500000+87187500000
3242+87187500000+87187500000+87187500000+87187500000+87187500000+87187500000
3211+86875000000+86875000000+86562500000+86250000000+86250000000+85937500000
3179+85625000000+85312500000+85312500000+85000000000+85000000000+85000000000
3147+85000000000+85312500000+85312500000+85625000000+85937500000+85937500000
3116+85937500000+86250000000+86250000000+86250000000+86250000000+86250000000
3084+86562500000+86875000000+86875000000+87187500000+87812500000+88125000000
3053+88750000000+89062500000+89375000000+89375000000+89687500000+89687500000
3021+90000000000+90312500000+90312500000+90625000000+90625000000+90937500000
2989+90937500000+90937500000+91250000000+91250000000+91562500000+91875000000
2958+91875000000+91875000000+91875000000+92187500000+92187500000+92187500000
2926+92187500000+92187500000+92500000000+92500000000+92500000000+92500000000
2895+92812500000+92812500000+92500000000+92187500000+91875000000+91875000000
2863+91875000000+91875000000+91875000000+91875000000+92187500000+92187500000
2832+92187500000+92187500000+92187500000+92187500000+92187500000+92187500000
2800+92187500000+92187500000+92187500000+92187500000+92187500000+92187500000
2768+91875000000+91875000000+91875000000+91562500000+91562500000+91562500000
2737+91250000000+91250000000+90937500000+90937500000+90625000000+90625000000
2705+90937500000+90937500000+91250000000+91562500000+91562500000+91562500000
2674+91250000000+91250000000+91562500000+91875000000+92187500000+92500000000
2642+92812500000+92812500000+93125000000+93125000000+93125000000+93437500000
2611+93437500000+93437500000+93437500000+93750000000+93750000000+93750000000
2579+93750000000+93750000000+93750000000+94062500000+94062500000+94062500000
2547+94062500000+94062500000+94062500000+94375000000+94375000000+94375000000
2516+94375000000+94375000000+94375000000+94375000000+94375000000+94687500000
2484+94687500000+94687500000+94687500000+94687500000+94687500000+94687500000
2453+94687500000+94687500000+94687500000+94687500000+94687500000+94687500000
2421+94687500000+95000000000+95000000000+95000000000+95000000000+94687500000
2389+94687500000+94687500000+94687500000+94687500000+94687500000+94687500000
2358+94375000000+94375000000+94375000000+94062500000+94062500000+93750000000
2326+93750000000+93750000000+93437500000+93437500000+93125000000+93125000000
2295+92812500000+92500000000+92187500000+92187500000+91875000000+91562500000
2263+90937500000+90625000000+90312500000+90000000000+89687500000+89062500000
2232+88125000000+87187500000+85937500000+84375000000+82500000000+79687500000
2200+75937500000+70625000000+65312500000+56562500000+45312500000+34062500000
2168+25625000000+17812500000+12812500000+10312500000+9687500000+9375000000
2137+9687500000+10937500000+9687500000+7500000000+7500000000+9375000000
2105+16875000000+26250000000+36250000000+44375000000+50937500000+55312500000
2074+60937500000+65937500000+70937500000+74687500000+77187500000+79375000000
2042+80937500000+81562500000+81875000000+82187500000+82187500000+82187500000
2011+81562500000+80625000000+79375000000+77187500000+77500000000+78437500000
1979+75312500000+70937500000+70000000000+74062500000+79062500000+80937500000
1947+82500000000+85625000000+88437500000+89687500000+90937500000+91875000000
1916+92500000000+92812500000+93125000000+93437500000+93750000000+93750000000
1884+93750000000+93750000000+93750000000+93750000000+93750000000+93750000000
1853+93750000000+93750000000+93437500000+93437500000+93437500000+93125000000
1821+93125000000+93125000000+93125000000+93125000000+93125000000+93125000000
1789+93125000000+93125000000+93125000000+93125000000+93125000000+93125000000
1758+93125000000+93125000000+93125000000+93125000000+93125000000+93125000000
1726+93125000000+93125000000+93125000000+93125000000+93125000000+93125000000
1695+93125000000+92812500000+92812500000+92812500000+92500000000+92500000000
1663+92187500000+92187500000+92187500000+91875000000+91875000000+91875000000
1632+91562500000+91562500000+91250000000+90937500000+90625000000+90625000000
1600+90000000000+89687500000+89375000000+89062500000+88437500000+88125000000
1568+87812500000+87500000000+87187500000+87187500000+86875000000+86562500000
1537+86250000000+85937500000+85625000000+85312500000+84687500000+84375000000
1505+83750000000+83125000000+82187500000+81250000000+79687500000+78125000000
1474+75625000000+72812500000+68125000000+60937500000+52187500000+48124999999
1442+36875000000+25625000000+15625000000+13437500000+10937500000+6250000000
1411+4687500000+4687500000+5937500000+6875000000+6562500000+7187500000
1379+12187500000+22187500000+34687500000+47500000000+55625000000+59687500000
1347+64375000000+67812500000+70625000000+72500000000+73750000000+75000000000
1316+76250000000+76875000000+77812500000+78437500000+79375000000+79687500000
1284+80312500000+80937500000+81562500000+81875000000+82187500000+82500000000
1253+82500000000+82812500000+82812500000+83125000000+83437500000+83750000000
1221+84062500000+84375000000+84687500000+80000000000+79687500000+84062500000
1189+85000000000+85625000000+85937500000+86250000000+86562500000+86875000000
1158+86875000000+87187500000+87187500000+87500000000+87500000000+87812500000
1126+87812500000+88125000000+88125000000+88125000000+88437500000+88437500000
1095+88750000000+88750000000+89062500000+89062500000+89375000000+89375000000
1063+89687500000+89687500000+90000000000+90312500000+90625000000+90937500000
1032+90937500000+91250000000+91562500000+91562500000+91562500000+91875000000
1000+91875000000+91875000000+91875000000+91875000000+91875000000+91875000000
968+91562500000+91562500000+91562500000+91250000000+91250000000+91250000000
937+90937500000+90937500000+90625000000+90625000000+90312500000+90000000000
905+90000000000+89687500000+89375000000+89062500000+88750000000+88437500000
874+87812500000+87500000000+87187500000+87187500000+86875000000+86250000000
842+85937500000+85625000000+85312500000+84687500000+84375000000+83750000000
811+83125000000+82500000000+81875000000+81562500000+80625000000+80000000000
779+79062500000+78437500000+77500000000+76562500000+75937500000+75000000000
747+74375000000+73437500000+72187500000+71250000000+70000000000+68125000000
716+63750000000+49375000000+34687500000+16562500000+16875000000+40000000000
684+54687500000+56562500000+55625000000+54062500000+52187500000+50312500000
653+48750000000+47812500000+46875000000+45937500000+45625000000+45312500000
621+45312500000+45312500000+45312500000+45312500000+44999999999+44687500000
589+44375000000+44062500000+44062500000+44375000000+44999999999+44999999999
558+35937500000+36562500000+45937500000+48437500000+49375000000+50312500000
526+50937500000+51250000000+51250000000+51562500000+51875000000+52187500000
495+52500000000+53125000000+53750000000+54687500000+55625000000+56562500000
463+57812500000+59062500000+60625000000+61875000000+63437500000+64375000000
432+65625000000+66562500000+67812500000+69062500000+70312500000+71250000000
400+72187500000
##END=
