##TITLE=heptylbenzene
##JCAMP-DX=4.24
##DATA TYPE=INFRARED SPECTRUM
##DATE=10/06/2025
##SAMPLING PROCEDURE=ATR
##ORIGIN=SDBS
##XUNITS=1/CM
##YUNITS=TRANSMITTANCE
##RESOLUTION=5.2631578947368425
##FIRSTX=4000.0
##LASTX=400.0
##DELTAX=-5.2631578947368425
##MAXY=94.6875
##MINY=0.0
##XFACTOR=1
##YFACTOR=1
##NPOINTS=685
##FIRSTY=0.0
##XYDATA=(X++(Y..Y))
4000+0+90625000000+90312500000+90312500000+90000000000+90000000000
3968+90000000000+90312500000+90312500000+90625000000+90625000000+90625000000
3937+90625000000+90312500000+90312500000+90312500000+90312500000+90312500000
3905+90312500000+90625000000+90625000000+90625000000+90937500000+90625000000
3874+90625000000+90937500000+90937500000+90937500000+90937500000+90937500000
3842+90937500000+90937500000+90937500000+90937500000+90937500000+90937500000
3811+90937500000+90937500000+90937500000+90937500000+91250000000+91250000000
3779+91250000000+91250000000+90937500000+90937500000+90937500000+90937500000
3747+90937500000+90937500000+90937500000+90937500000+90937500000+91250000000
3716+91250000000+91562500000+91875000000+92187500000+92187500000+92500000000
3684+92500000000+92187500000+92187500000+91875000000+91875000000+91875000000
3653+91875000000+91875000000+91875000000+91875000000+92187500000+92187500000
3621+92187500000+92187500000+92187500000+92187500000+92187500000+92187500000
3589+92187500000+91875000000+91875000000+91875000000+92187500000+92187500000
3558+92187500000+92187500000+92187500000+92187500000+92187500000+92187500000
3526+92187500000+92187500000+92187500000+91875000000+91875000000+91875000000
3495+91875000000+91875000000+91875000000+91875000000+91875000000+91562500000
3463+91562500000+91562500000+91250000000+91250000000+91250000000+91250000000
3432+90937500000+90937500000+90625000000+90625000000+90625000000+90625000000
3400+90625000000+90312500000+88750000000+84062500000+82812500000+82500000000
3368+65625000000+62812500000+70625000000+55625000000+54062500000+65000000000
3337+70000000000+56250000000+35312500000+35312500000+55625000000+69375000000
3305+67500000000+69062500000+61250000000+47812500000+25000000000+13750000000
3274+13437500000+16562500000+8437500000+4687500000+4687500000+5937500000
3242+11250000000+18125000000+24375000000+30937500000+30000000000+24375000000
3211+15000000000+10937500000+12187500000+29687500000+55000000000+66250000000
3179+73750000000+78125000000+80937500000+83125000000+84687500000+85937500000
3147+87812500000+89062500000+89687500000+89687500000+89375000000+88750000000
3116+88750000000+89375000000+90312500000+90625000000+90312500000+90000000000
3084+89687500000+89687500000+89687500000+89687500000+90000000000+90312500000
3053+90312500000+90625000000+90937500000+90937500000+91562500000+91562500000
3021+91875000000+91875000000+92187500000+92500000000+92812500000+93125000000
2989+93125000000+93437500000+93750000000+93750000000+93750000000+93750000000
2958+93750000000+94062500000+94062500000+94062500000+94062500000+94375000000
2926+94375000000+94375000000+94375000000+94375000000+94375000000+94375000000
2895+94375000000+94375000000+94375000000+94062500000+94062500000+94062500000
2863+94062500000+93750000000+93750000000+93750000000+93750000000+93750000000
2832+93750000000+93750000000+93750000000+93750000000+94062500000+94062500000
2800+94062500000+94375000000+94375000000+94375000000+94375000000+94375000000
2768+94375000000+94375000000+94375000000+94375000000+94375000000+94375000000
2737+94375000000+94375000000+94375000000+94375000000+94375000000+94687500000
2705+94687500000+94687500000+94687500000+94687500000+94687500000+94687500000
2674+94687500000+94687500000+94687500000+94687500000+94687500000+94687500000
2642+94687500000+94687500000+94687500000+94687500000+94687500000+94687500000
2611+94687500000+94687500000+94687500000+94687500000+94687500000+94687500000
2579+94375000000+94375000000+93750000000+92812500000+91562500000+90312500000
2547+90312500000+90625000000+89062500000+86250000000+85937500000+86875000000
2516+90312500000+92500000000+93437500000+93750000000+94062500000+94375000000
2484+94375000000+94375000000+94062500000+93437500000+92812500000+92187500000
2453+91875000000+91250000000+90625000000+90312500000+90000000000+90000000000
2421+90000000000+90625000000+91250000000+92500000000+93125000000+93437500000
2389+94062500000+94062500000+94062500000+93750000000+93125000000+92812500000
2358+92500000000+92187500000+91250000000+89375000000+87500000000+87187500000
2326+88437500000+90937500000+92812500000+93437500000+93437500000+93437500000
2295+93750000000+93750000000+93750000000+93437500000+92812500000+92187500000
2263+91875000000+91562500000+91562500000+91875000000+92187500000+92500000000
2232+93125000000+93125000000+93437500000+93750000000+93750000000+93750000000
2200+93750000000+93750000000+93750000000+93750000000+94062500000+94062500000
2168+94062500000+94062500000+93750000000+93437500000+93125000000+92812500000
2137+92812500000+92812500000+92812500000+92812500000+93125000000+93125000000
2105+93437500000+93437500000+93437500000+93125000000+92187500000+90625000000
2074+85937500000+67187500000+62187500000+66875000000+79062500000+84375000000
2042+86562500000+83437500000+83750000000+90625000000+91875000000+92187500000
2011+92500000000+92812500000+92812500000+92812500000+92187500000+91562500000
1979+90937500000+90000000000+89687500000+89687500000+90312500000+90625000000
1947+90000000000+88750000000+87812500000+85312500000+79687500000+61875000000
1916+33750000000+32187500000+53750000000+68437500000+77500000000+77812500000
1884+69375000000+51562500000+37187499999+37187499999+37187499999+31562500000
1853+26250000000+37812500000+52500000000+60312500000+65312500000+70000000000
1821+76250000000+81250000000+84062500000+85937500000+87187500000+87812500000
1789+88125000000+88437500000+88750000000+88125000000+87187500000+84687500000
1758+78437500000+66250000000+64687500000+72812500000+79062500000+80000000000
1726+82187500000+83437500000+82500000000+82500000000+83125000000+83125000000
1695+83125000000+85312500000+85937500000+86250000000+87187500000+87187500000
1663+86562500000+85937500000+85937500000+85937500000+85937500000+86250000000
1632+86562500000+87187500000+88125000000+88750000000+89062500000+89375000000
1600+89375000000+89375000000+89375000000+89375000000+89375000000+89375000000
1568+89375000000+89375000000+89687500000+90312500000+90937500000+91250000000
1537+91562500000+91562500000+90937500000+90625000000+90000000000+89687500000
1505+89375000000+89375000000+89375000000+89375000000+88750000000+87187500000
1474+86250000000+86562500000+88125000000+89375000000+89687500000+89375000000
1442+87812500000+87812500000+89375000000+90937500000+91562500000+91875000000
1411+91875000000+91250000000+90312500000+86875000000+83750000000+80625000000
1379+80625000000+83750000000+86250000000+86562500000+88125000000+89062500000
1347+89375000000+88125000000+85937500000+83437500000+79375000000+78750000000
1316+79687500000+82500000000+84687500000+86562500000+88437500000+89375000000
1284+88750000000+84375000000+73125000000+61250000000+66250000000+80937500000
1253+84687500000+86250000000+86875000000+87187500000+87187500000+87812500000
1221+88750000000+89687500000+90000000000+90312500000+90625000000+90625000000
1189+90625000000+90625000000+90937500000+90937500000+91250000000+91562500000
1158+91562500000+91562500000+91562500000+90937500000+90625000000+90000000000
1126+89687500000+89062500000+88437500000+87187500000+84062500000+81562500000
1095+81875000000+84375000000+85625000000+87187500000+88437500000+89062500000
1063+90000000000+90312500000+90625000000+90937500000+91250000000+91562500000
1032+91562500000+91562500000+90625000000+90000000000+89062500000+89062500000
1000+89375000000+89687500000+90000000000+90312500000+90000000000+88750000000
968+87812500000+87187500000+86875000000+86875000000+87187500000+87500000000
937+87812500000+87812500000+87187500000+85937500000+83437500000+79687500000
905+77187500000+76562500000+73125000000+63437500000+45312500000+30312500000
874+27187500000+28437500000+35000000000+42500000000+46875000000+46562499999
842+44687500000+46875000000+54687500000+59375000000+52812500000+36562500000
811+12500000000+10312500000+17812500000+53750000000+73125000000+81562500000
779+85937500000+87812500000+88750000000+89375000000+90312500000+90937500000
747+91562500000+92187500000+92812500000+92812500000+93125000000+93125000000
716+93125000000+93125000000+93125000000+90625000000+93125000000+93125000000
684+93125000000+92500000000+90937500000+89062500000+85625000000+82500000000
653+82187500000+83750000000+84375000000+78125000000+75625000000+76875000000
621+84375000000+89375000000+91875000000+93437500000+94062500000+94687500000
589+94375000000+93437500000+90937500000+88437500000+86250000000+84375000000
558+83125000000+83125000000+82812500000+81875000000+80937500000+80312500000
526+79687500000+79375000000+79062500000+79062500000+79375000000+79687500000
495+80937500000+82187500000+83750000000+85625000000+87187500000+88750000000
463+90312500000+91250000000+92187500000+91875000000+90937500000+89375000000
432+86875000000+83750000000+81250000000+78125000000+75625000000+74062500000
400+73125000000
##END=
