##TITLE=heptadecylbenzene
##JCAMP-DX=4.24
##DATA TYPE=INFRARED SPECTRUM
##DATE=10/06/2025
##SAMPLING PROCEDURE=ATR
##ORIGIN=SDBS
##XUNITS=1/CM
##YUNITS=TRANSMITTANCE
##RESOLUTION=5.2631578947368425
##FIRSTX=4000.0
##LASTX=400.0
##DELTAX=-5.2631578947368425
##MAXY=95.0
##MINY=0.0
##XFACTOR=1
##YFACTOR=1
##NPOINTS=685
##FIRSTY=0.0
##XYDATA=(X++(Y..Y))
4000+0+93125000000+93125000000+93437500000+93437500000+93437500000
3968+93437500000+93437500000+93437500000+93437500000+93437500000+93437500000
3937+93437500000+93750000000+93437500000+93437500000+93437500000+93437500000
3905+93437500000+93437500000+93437500000+93750000000+93750000000+93750000000
3874+93750000000+94062500000+94062500000+94062500000+94062500000+94062500000
3842+94062500000+94062500000+94062500000+94062500000+94062500000+94062500000
3811+94062500000+94062500000+94062500000+94062500000+94062500000+94062500000
3779+94062500000+94062500000+94062500000+94062500000+93750000000+93750000000
3747+93750000000+93750000000+93750000000+93750000000+94062500000+94062500000
3716+94062500000+94062500000+94062500000+94375000000+94375000000+94375000000
3684+94375000000+94375000000+94375000000+94375000000+94375000000+94375000000
3653+94375000000+94062500000+94062500000+94062500000+94062500000+94375000000
3621+94375000000+94375000000+94375000000+94375000000+94375000000+94375000000
3589+94375000000+94375000000+94375000000+94375000000+94375000000+94375000000
3558+94375000000+94687500000+94687500000+94687500000+94687500000+94687500000
3526+94687500000+94687500000+94687500000+94687500000+94687500000+94687500000
3495+94687500000+94687500000+94687500000+95000000000+95000000000+94687500000
3463+94687500000+94687500000+94375000000+94375000000+94375000000+94375000000
3432+94375000000+94375000000+94375000000+94375000000+94375000000+94375000000
3400+94375000000+94062500000+93750000000+92187500000+91562500000+91562500000
3368+85937500000+84375000000+87500000000+81250000000+80625000000+85312500000
3337+86250000000+80937500000+69375000000+69062500000+80625000000+85000000000
3305+84062500000+83750000000+80000000000+73125000000+57187500000+42500000000
3274+39687500000+29687500000+12812500000+5312500000+4687500000+5000000000
3242+12187500000+23125000000+31875000000+40312499999+51250000000+44687500000
3211+24687500000+11250000000+11250000000+32812500000+64375000000+75000000000
3179+81250000000+84062500000+86562500000+87812500000+89062500000+90000000000
3147+90937500000+91250000000+91875000000+91875000000+91875000000+91875000000
3116+91875000000+92187500000+92187500000+92187500000+91875000000+91250000000
3084+91250000000+91250000000+91250000000+91562500000+91875000000+92187500000
3053+92187500000+92187500000+92500000000+92500000000+92812500000+92812500000
3021+93125000000+93125000000+93437500000+93437500000+93750000000+93750000000
2989+93750000000+93750000000+93750000000+93750000000+94062500000+94062500000
2958+94062500000+94062500000+94062500000+94062500000+94062500000+94062500000
2926+94062500000+94062500000+94062500000+94062500000+94062500000+94062500000
2895+94062500000+94062500000+94062500000+94062500000+94062500000+94062500000
2863+93750000000+93750000000+93750000000+93750000000+93750000000+93750000000
2832+93750000000+93750000000+93750000000+93750000000+93750000000+94062500000
2800+94062500000+94062500000+94062500000+94062500000+94062500000+94062500000
2768+94062500000+94062500000+94062500000+93750000000+93750000000+93750000000
2737+93750000000+93750000000+93750000000+93750000000+93750000000+94062500000
2705+94062500000+94062500000+94062500000+94062500000+94062500000+94062500000
2674+94062500000+94062500000+94062500000+93750000000+93750000000+93750000000
2642+93750000000+93750000000+93750000000+93750000000+93750000000+93750000000
2611+93750000000+93750000000+93750000000+93750000000+93750000000+93750000000
2579+93750000000+93750000000+93750000000+93437500000+93125000000+92812500000
2547+92812500000+92812500000+92500000000+91875000000+90937500000+91250000000
2516+92500000000+93125000000+93437500000+93750000000+93750000000+93750000000
2484+93750000000+93750000000+93750000000+93437500000+93437500000+93125000000
2453+93125000000+92812500000+92812500000+92500000000+92500000000+92500000000
2421+92500000000+92812500000+92812500000+93125000000+93125000000+93437500000
2389+93437500000+93437500000+93437500000+93437500000+93437500000+93437500000
2358+93437500000+93125000000+93125000000+92500000000+91875000000+91562500000
2326+91562500000+92812500000+93125000000+93437500000+93437500000+93437500000
2295+93437500000+93437500000+93437500000+93437500000+93125000000+93125000000
2263+93125000000+92812500000+92812500000+92812500000+93125000000+93125000000
2232+93125000000+93125000000+93125000000+93125000000+93125000000+93125000000
2200+93125000000+93125000000+93125000000+93125000000+93125000000+93125000000
2168+92812500000+92812500000+92812500000+92812500000+92812500000+92812500000
2137+92812500000+92812500000+92812500000+92812500000+92812500000+92812500000
2105+92812500000+92812500000+92812500000+92500000000+92500000000+91875000000
2074+90937500000+84062500000+82812500000+85312500000+88750000000+90312500000
2042+90937500000+90000000000+90312500000+92187500000+92500000000+92500000000
2011+92812500000+92812500000+92812500000+92500000000+92500000000+92187500000
1979+92187500000+92187500000+91875000000+91875000000+91875000000+91875000000
1947+91875000000+91875000000+91875000000+90937500000+89062500000+82812500000
1916+66875000000+65937500000+79375000000+85000000000+87187500000+85625000000
1884+80312500000+64687500000+50625000000+50937500000+55937500000+55312500000
1853+53437500000+62812500000+70937500000+74687500000+77187500000+80000000000
1821+83750000000+87187500000+89062500000+90000000000+90937500000+91250000000
1789+91250000000+91562500000+91562500000+91250000000+90937500000+90312500000
1758+88125000000+83437500000+82500000000+85000000000+85000000000+85312500000
1726+86562500000+87187500000+86875000000+86875000000+87812500000+89062500000
1695+89062500000+90000000000+90312500000+90625000000+90625000000+90312500000
1663+89687500000+89375000000+89062500000+89062500000+89062500000+89375000000
1632+89687500000+90312500000+90625000000+90625000000+90937500000+90937500000
1600+91250000000+91562500000+91875000000+91875000000+91875000000+91875000000
1568+91875000000+91875000000+91875000000+92187500000+92187500000+92187500000
1537+92500000000+92500000000+92500000000+92500000000+92500000000+92500000000
1505+92500000000+92500000000+92187500000+92187500000+92187500000+92187500000
1474+92187500000+92187500000+92187500000+92500000000+92500000000+92500000000
1442+92187500000+92187500000+92812500000+92812500000+93125000000+93125000000
1411+93125000000+92812500000+92500000000+92187500000+91875000000+91875000000
1379+92187500000+92187500000+92187500000+92187500000+92187500000+91875000000
1347+91562500000+91250000000+90937500000+90625000000+90625000000+90625000000
1316+90937500000+90937500000+91562500000+92187500000+92500000000+92812500000
1284+92500000000+91875000000+88750000000+84375000000+86562500000+91562500000
1253+92187500000+93125000000+93125000000+93437500000+93437500000+93750000000
1221+93750000000+93750000000+93750000000+93750000000+93750000000+93437500000
1189+93437500000+93437500000+93437500000+93437500000+93437500000+93437500000
1158+93437500000+93437500000+93437500000+93437500000+93437500000+93125000000
1126+93125000000+93125000000+92812500000+92500000000+91875000000+90625000000
1095+90312500000+90625000000+90937500000+91562500000+91875000000+92500000000
1063+92500000000+92812500000+92812500000+93125000000+93125000000+93125000000
1032+93125000000+93125000000+93125000000+93125000000+93125000000+93125000000
1000+93125000000+92812500000+92812500000+93125000000+93125000000+93125000000
968+92812500000+92812500000+92500000000+92500000000+92500000000+92187500000
937+92187500000+92187500000+91875000000+91562500000+90312500000+89375000000
905+88750000000+88125000000+86250000000+82500000000+74687500000+65000000000
874+61875000000+62500000000+66875000000+71875000000+73437500000+71562500000
842+67187500000+67187500000+71250000000+76875000000+78125000000+70000000000
811+41562500000+35625000000+51250000000+80000000000+86875000000+90312500000
779+91875000000+92500000000+92812500000+93125000000+93125000000+93437500000
747+93750000000+93750000000+94062500000+94062500000+94062500000+94062500000
716+94062500000+94062500000+94062500000+94062500000+94062500000+94062500000
684+94062500000+93750000000+93437500000+93125000000+92812500000+92187500000
653+91562500000+91250000000+90937500000+90937500000+91250000000+91562500000
621+91875000000+92500000000+93125000000+93437500000+93750000000+93750000000
589+93437500000+93437500000+93125000000+92812500000+92500000000+92187500000
558+91875000000+91250000000+90937500000+90625000000+90312500000+90000000000
526+89687500000+89687500000+89687500000+89687500000+89687500000+90000000000
495+90312500000+90625000000+90937500000+91250000000+91562500000+91875000000
463+92187500000+92500000000+92500000000+91875000000+91562500000+90312500000
432+89062500000+87187500000+85625000000+83750000000+82187500000+80937500000
400+80625000000
##END=
