##TITLE=hexachloroethane
##JCAMP-DX=4.24
##DATA TYPE=INFRARED SPECTRUM
##DATE=10/06/2025
##SAMPLING PROCEDURE=ATR
##ORIGIN=SDBS
##XUNITS=1/CM
##YUNITS=TRANSMITTANCE
##RESOLUTION=5.2631578947368425
##FIRSTX=4000.0
##LASTX=400.0
##DELTAX=-5.2631578947368425
##MAXY=95.0
##MINY=0.0
##XFACTOR=1
##YFACTOR=1
##NPOINTS=685
##FIRSTY=0.0
##XYDATA=(X++(Y..Y))
4000+0+86250000000+86250000000+86250000000+86562500000+86562500000
3968+86875000000+86875000000+86875000000+86875000000+86875000000+86875000000
3937+86875000000+86875000000+86875000000+86875000000+86875000000+87187500000
3905+87187500000+87187500000+87187500000+87187500000+87187500000+87187500000
3874+87187500000+87187500000+87187500000+87500000000+87500000000+87812500000
3842+87812500000+87812500000+87812500000+87812500000+87812500000+88125000000
3811+88125000000+88125000000+88437500000+88437500000+88437500000+88437500000
3779+88437500000+88750000000+88750000000+88750000000+88750000000+88750000000
3747+88750000000+88750000000+88750000000+88750000000+89062500000+89062500000
3716+89062500000+89375000000+89375000000+89375000000+89375000000+89375000000
3684+89375000000+89375000000+89375000000+89062500000+89062500000+89062500000
3653+88750000000+88750000000+88437500000+88437500000+88437500000+88437500000
3621+88125000000+88125000000+87812500000+87500000000+87187500000+87187500000
3589+86875000000+86875000000+86875000000+86562500000+86562500000+86250000000
3558+86250000000+86250000000+86250000000+86250000000+86250000000+85937500000
3526+85937500000+85937500000+85625000000+85625000000+85312500000+85000000000
3495+85000000000+84687500000+84687500000+84687500000+84375000000+84375000000
3463+84375000000+84375000000+84062500000+84062500000+83750000000+83750000000
3432+83750000000+84062500000+84375000000+84375000000+84687500000+85000000000
3400+85312500000+85937500000+85937500000+86250000000+86562500000+86562500000
3368+86562500000+86562500000+86250000000+85937500000+85312500000+84375000000
3337+83437500000+82500000000+80625000000+78125000000+74687500000+70312500000
3305+63125000000+54062500000+40937500000+28750000000+16250000000+10625000000
3274+9375000000+9375000000+7500000000+5312500000+4687500000+5000000000
3242+7187500000+10312500000+12812500000+15937500000+17500000000+14687500000
3211+13125000000+11250000000+11562500000+18437500000+33437500000+49062500000
3179+59687500000+66250000000+71250000000+74375000000+77187500000+79687500000
3147+81875000000+83125000000+84062500000+84375000000+83750000000+82500000000
3116+81875000000+81875000000+82812500000+83750000000+84062500000+84062500000
3084+83750000000+83750000000+83750000000+84062500000+84687500000+85000000000
3053+85312500000+85625000000+85937500000+85937500000+86250000000+86562500000
3021+87187500000+87812500000+88437500000+89062500000+89375000000+90000000000
2989+90312500000+90625000000+90625000000+90937500000+91250000000+91562500000
2958+91562500000+91875000000+91875000000+92187500000+92187500000+92187500000
2926+92187500000+92187500000+92187500000+92187500000+92187500000+92187500000
2895+92187500000+92187500000+92187500000+92187500000+92187500000+92187500000
2863+92187500000+92187500000+92187500000+92187500000+92500000000+92500000000
2832+92500000000+92500000000+92500000000+92500000000+92500000000+92812500000
2800+92812500000+92812500000+92812500000+92812500000+93125000000+93125000000
2768+93125000000+93125000000+93437500000+93437500000+93437500000+93437500000
2737+93437500000+93437500000+93437500000+93437500000+93750000000+93750000000
2705+93750000000+93750000000+93750000000+94062500000+94062500000+94062500000
2674+94062500000+94062500000+94062500000+94062500000+94062500000+94062500000
2642+94062500000+94062500000+94062500000+94062500000+94375000000+94375000000
2611+94375000000+94375000000+94687500000+94687500000+94687500000+94687500000
2579+94687500000+94687500000+94687500000+94687500000+94687500000+94687500000
2547+94687500000+94687500000+94687500000+94687500000+94687500000+94687500000
2516+94687500000+94687500000+94687500000+94687500000+94687500000+94687500000
2484+94687500000+94687500000+94687500000+94687500000+94687500000+94687500000
2453+94687500000+94687500000+94687500000+94687500000+94687500000+94687500000
2421+94687500000+94687500000+94687500000+94687500000+94687500000+94687500000
2389+94687500000+94687500000+95000000000+95000000000+95000000000+94687500000
2358+94687500000+94687500000+94687500000+94687500000+94687500000+94687500000
2326+94687500000+94687500000+94687500000+94687500000+94687500000+94375000000
2295+94375000000+94375000000+94062500000+94062500000+94062500000+94062500000
2263+93750000000+93750000000+94062500000+94062500000+94062500000+94062500000
2232+94062500000+94062500000+94062500000+94062500000+93750000000+93750000000
2200+93750000000+93750000000+93750000000+93437500000+93437500000+93437500000
2168+93437500000+93437500000+93437500000+93437500000+93437500000+93437500000
2137+93437500000+93437500000+93125000000+93125000000+93125000000+93125000000
2105+93125000000+93125000000+93125000000+93125000000+93125000000+93125000000
2074+93437500000+93437500000+93437500000+93437500000+93750000000+93750000000
2042+93750000000+93750000000+93750000000+93750000000+93750000000+93437500000
2011+93437500000+93437500000+93437500000+93125000000+93125000000+92812500000
1979+92812500000+92500000000+92500000000+92187500000+92187500000+91875000000
1947+91562500000+90937500000+90625000000+90000000000+89687500000+88750000000
1916+87500000000+86250000000+84062500000+80937500000+76250000000+69062500000
1884+56875000000+42812500000+31875000000+30312500000+30312500000+30937500000
1853+32187500000+37500000000+42187500000+48437500000+55312500000+63437500000
1821+72500000000+79062500000+82500000000+84687500000+85937500000+86562500000
1789+86875000000+86562500000+85312500000+83750000000+78437500000+66562500000
1758+56250000000+45625000000+42812500000+44999999999+58437500000+60625000000
1726+64687500000+72500000000+75625000000+76562500000+77187500000+78125000000
1695+78750000000+80312500000+81875000000+83125000000+83437500000+83437500000
1663+83125000000+82812500000+82500000000+82500000000+82812500000+83125000000
1632+83750000000+84375000000+84687500000+85000000000+85312500000+85625000000
1600+85937500000+86250000000+86562500000+86875000000+87187500000+87187500000
1568+87500000000+87812500000+88125000000+88437500000+88437500000+88750000000
1537+88750000000+88437500000+88437500000+88437500000+88437500000+88750000000
1505+88750000000+89062500000+89375000000+89375000000+89687500000+89375000000
1474+89062500000+87812500000+86875000000+86875000000+86562500000+86562500000
1442+86875000000+86875000000+87187500000+87500000000+87812500000+88125000000
1411+88437500000+88437500000+88750000000+88750000000+89062500000+89062500000
1379+89375000000+89375000000+89375000000+89375000000+89375000000+89375000000
1347+89062500000+89062500000+89062500000+89062500000+89062500000+89062500000
1316+89062500000+89062500000+89062500000+89062500000+88750000000+88750000000
1284+88437500000+88125000000+87812500000+87500000000+87500000000+87500000000
1253+87187500000+87187500000+87500000000+87500000000+87812500000+88125000000
1221+88125000000+88125000000+88125000000+87812500000+87500000000+87500000000
1189+87500000000+87500000000+87500000000+87500000000+87500000000+87500000000
1158+87500000000+87500000000+87500000000+87812500000+87812500000+88125000000
1126+88125000000+88437500000+88750000000+89062500000+89375000000+89375000000
1095+89375000000+89687500000+89687500000+89687500000+90000000000+90000000000
1063+90000000000+90000000000+90000000000+90000000000+89687500000+89687500000
1032+89687500000+89687500000+90000000000+90000000000+90312500000+90625000000
1000+90937500000+90937500000+90937500000+90625000000+90312500000+89062500000
968+86250000000+84062500000+83750000000+83125000000+80000000000+74062500000
937+55312500000+19687500000+11562500000+11875000000+19687500000+40937500000
905+58750000000+66875000000+75312500000+80625000000+84062500000+85312500000
874+84687500000+83750000000+82812500000+82187500000+80937500000+78437500000
842+77187500000+77187500000+80000000000+83437500000+85000000000+86250000000
811+85625000000+82812500000+81875000000+82500000000+68437500000+49062500000
779+50312500000+75000000000+87187500000+90312500000+91562500000+92500000000
747+93125000000+93437500000+93750000000+93750000000+93750000000+93750000000
716+93750000000+93750000000+93750000000+94062500000+94062500000+93750000000
684+93750000000+93437500000+93437500000+93437500000+93437500000+93437500000
653+93437500000+93437500000+93125000000+93125000000+93125000000+93125000000
621+93125000000+93437500000+93437500000+93750000000+94062500000+94375000000
589+94687500000+94687500000+95000000000+94687500000+94687500000+94687500000
558+94687500000+94375000000+94375000000+94062500000+93750000000+93437500000
526+93125000000+93125000000+93125000000+93125000000+93125000000+93437500000
495+94062500000+94062500000+94062500000+94062500000+93750000000+93125000000
463+92500000000+91562500000+90312500000+89062500000+88437500000+87187500000
432+85625000000+83750000000+82187500000+80000000000+78437500000+77187500000
400+76875000000
##END=
