##TITLE=hexachloro-1,3-butadiene
##JCAMP-DX=4.24
##DATA TYPE=INFRARED SPECTRUM
##DATE=10/06/2025
##SAMPLING PROCEDURE=ATR
##ORIGIN=SDBS
##XUNITS=1/CM
##YUNITS=TRANSMITTANCE
##RESOLUTION=5.2631578947368425
##FIRSTX=4000.0
##LASTX=400.0
##DELTAX=-5.2631578947368425
##MAXY=95.0
##MINY=0.0
##XFACTOR=1
##YFACTOR=1
##NPOINTS=685
##FIRSTY=0.0
##XYDATA=(X++(Y..Y))
4000+0+92187500000+92187500000+92500000000+92812500000+92500000000
3968+92500000000+92500000000+92500000000+92500000000+92500000000+92500000000
3937+92500000000+92500000000+92187500000+92187500000+92187500000+92187500000
3905+92187500000+92187500000+92187500000+92187500000+92187500000+92500000000
3874+92500000000+92500000000+92500000000+92500000000+92500000000+92500000000
3842+92500000000+92500000000+92187500000+92187500000+92187500000+92187500000
3811+92500000000+92500000000+92500000000+92500000000+92500000000+92500000000
3779+92500000000+92500000000+92500000000+92500000000+92187500000+92187500000
3747+92187500000+92187500000+92187500000+92187500000+92187500000+92187500000
3716+92187500000+92187500000+92187500000+92187500000+92187500000+91875000000
3684+91875000000+91875000000+91875000000+91875000000+91875000000+91875000000
3653+91562500000+91562500000+91562500000+91250000000+91250000000+91250000000
3621+91250000000+91250000000+91250000000+91250000000+91250000000+91250000000
3589+91250000000+91250000000+90937500000+90937500000+90937500000+90937500000
3558+90937500000+90937500000+91250000000+91250000000+91250000000+91250000000
3526+91250000000+91250000000+91250000000+91250000000+91250000000+91250000000
3495+91250000000+91250000000+91562500000+91562500000+91562500000+91562500000
3463+91562500000+91875000000+91875000000+91875000000+91875000000+91875000000
3432+91875000000+91875000000+91875000000+91875000000+91875000000+91875000000
3400+91875000000+91875000000+91875000000+92187500000+92187500000+92187500000
3368+92187500000+91875000000+92187500000+92187500000+92187500000+92187500000
3337+92187500000+92187500000+92187500000+92500000000+92500000000+92500000000
3305+92500000000+92187500000+92187500000+91562500000+90312500000+89687500000
3274+89687500000+89687500000+88125000000+86562500000+85625000000+85625000000
3242+86875000000+88750000000+89375000000+90000000000+90312500000+90312500000
3211+89687500000+88125000000+87812500000+89375000000+90937500000+91250000000
3179+91875000000+91875000000+91875000000+91562500000+91562500000+91562500000
3147+91562500000+91875000000+91875000000+92187500000+92187500000+92187500000
3116+92187500000+92500000000+92812500000+92812500000+92812500000+92812500000
3084+92812500000+93125000000+93125000000+93125000000+93125000000+93125000000
3053+93125000000+93125000000+93125000000+93125000000+93125000000+93125000000
3021+93125000000+93125000000+93125000000+93125000000+93437500000+93125000000
2989+93125000000+93437500000+93437500000+93437500000+93437500000+93437500000
2958+93437500000+93437500000+93437500000+93437500000+93437500000+93437500000
2926+93437500000+93750000000+93750000000+93750000000+93437500000+93750000000
2895+93750000000+93750000000+93750000000+93750000000+93750000000+94062500000
2863+94062500000+94062500000+94062500000+94062500000+94062500000+94062500000
2832+94062500000+93750000000+93750000000+94062500000+94062500000+94062500000
2800+93125000000+92812500000+93125000000+93750000000+94062500000+94062500000
2768+94062500000+94062500000+94062500000+94062500000+94062500000+94062500000
2737+94062500000+94062500000+94062500000+94062500000+94062500000+94062500000
2705+94062500000+94062500000+94062500000+94375000000+94375000000+94375000000
2674+94375000000+94375000000+94375000000+94375000000+94375000000+94375000000
2642+94375000000+94375000000+94375000000+94375000000+94375000000+94062500000
2611+94062500000+94062500000+94062500000+94062500000+94062500000+94062500000
2579+94062500000+94062500000+94062500000+93750000000+93750000000+93750000000
2547+93750000000+93750000000+93750000000+93750000000+93437500000+93437500000
2516+93125000000+93125000000+93125000000+92812500000+93125000000+93125000000
2484+93437500000+93437500000+93750000000+93750000000+94062500000+94062500000
2453+94062500000+94062500000+94062500000+94375000000+94375000000+94375000000
2421+94375000000+94375000000+94375000000+94375000000+94375000000+94375000000
2389+94687500000+94687500000+94687500000+94687500000+95000000000+95000000000
2358+94687500000+94687500000+94375000000+94375000000+94062500000+94062500000
2326+94062500000+94062500000+94062500000+94062500000+94062500000+94062500000
2295+94062500000+94062500000+94062500000+94062500000+93750000000+93437500000
2263+93437500000+93125000000+92812500000+92812500000+92812500000+92812500000
2232+92812500000+92812500000+92812500000+92812500000+92812500000+92812500000
2200+92812500000+92812500000+92812500000+92812500000+92812500000+92812500000
2168+93125000000+93125000000+93125000000+93125000000+93125000000+92812500000
2137+92500000000+92187500000+91562500000+90937500000+90000000000+87500000000
2105+82187500000+82500000000+86562500000+85312500000+80937500000+65312500000
2074+58750000000+59375000000+66562500000+73437500000+78125000000+80937500000
2042+82812500000+81250000000+75000000000+61875000000+46250000000+31250000000
2011+25625000000+25625000000+29375000000+41562500000+56875000000+65625000000
1979+71250000000+75625000000+81562500000+85937500000+88437500000+89687500000
1947+90937500000+91562500000+91875000000+92187500000+92500000000+92812500000
1916+93125000000+93750000000+94062500000+94375000000+94062500000+94062500000
1884+93750000000+92812500000+92500000000+92187500000+92187500000+92187500000
1853+92187500000+92500000000+92500000000+92812500000+92812500000+93125000000
1821+93125000000+93125000000+92812500000+92500000000+92187500000+91875000000
1789+91875000000+91875000000+92187500000+92500000000+92812500000+92187500000
1758+90937500000+91875000000+91562500000+91562500000+91562500000+91875000000
1726+91875000000+92500000000+93125000000+93125000000+93437500000+93437500000
1695+93437500000+93437500000+93437500000+93125000000+93125000000+93125000000
1663+93125000000+93125000000+93125000000+93125000000+93125000000+93125000000
1632+93125000000+93125000000+92500000000+91562500000+90937500000+90937500000
1600+90937500000+90937500000+90937500000+90625000000+89375000000+88750000000
1568+87812500000+87500000000+87500000000+87500000000+86562500000+86562500000
1537+87812500000+88750000000+89062500000+89062500000+89062500000+87812500000
1505+87187500000+86250000000+82500000000+69062500000+55937500000+56250000000
1474+55000000000+51875000000+50312500000+50000000000+52500000000+59062500000
1442+69375000000+78125000000+82500000000+85625000000+86250000000+86250000000
1411+87187500000+90000000000+90937500000+91250000000+91250000000+90312500000
1379+91250000000+91250000000+91562500000+91875000000+91875000000+92187500000
1347+92187500000+92187500000+92187500000+92187500000+92187500000+91875000000
1316+91875000000+91875000000+91875000000+91250000000+90312500000+88437500000
1284+87500000000+86875000000+86250000000+85937500000+85937500000+85937500000
1253+85625000000+85625000000+85000000000+83750000000+81562500000+74687500000
1221+60312500000+38437500000+19375000000+10625000000+10000000000+10625000000
1189+15000000000+27187500000+47500000000+61250000000+67812500000+67500000000
1158+55312500000+34687500000+30625000000+30625000000+33437500000+44062500000
1126+60312500000+70937500000+74687500000+79687500000+85000000000+86875000000
1095+86250000000+84687500000+82187500000+79687500000+79687500000+80625000000
1063+82500000000+80937500000+77187500000+70937500000+62500000000+35937500000
1032+9375000000+4687500000+4687500000+6562500000+15937500000+36562500000
1000+56875000000+66875000000+71875000000+73750000000+70312500000+58125000000
968+42187500000+36562500000+36562500000+30000000000+19687500000+15625000000
937+15625000000+19687500000+30625000000+44375000000+56875000000+65937500000
905+72500000000+77187500000+80000000000+83750000000+85937500000+87812500000
874+89375000000+90937500000+91562500000+92500000000+93125000000+93437500000
842+93750000000+94062500000+94062500000+93750000000+93437500000+93125000000
811+92500000000+91875000000+89062500000+86875000000+86875000000+87500000000
779+85312500000+77187500000+74687500000+69687500000+45937500000+12187500000
747+10312500000+14062500000+41562500000+72187500000+82500000000+88125000000
716+90625000000+90937500000+91562500000+90937500000+90625000000+90000000000
684+89687500000+90000000000+90625000000+90312500000+89375000000+88437500000
653+87812500000+87187500000+86562500000+86250000000+85625000000+85312500000
621+85312500000+85000000000+85000000000+85312500000+85937500000+87187500000
589+89375000000+91562500000+92500000000+93437500000+94062500000+94062500000
558+94062500000+94062500000+94062500000+94062500000+93750000000+93125000000
526+92187500000+91562500000+90625000000+90000000000+89687500000+89375000000
495+89375000000+89687500000+89687500000+90312500000+90937500000+91562500000
463+92187500000+92812500000+92812500000+91875000000+90937500000+89062500000
432+86250000000+83125000000+80625000000+77812500000+75000000000+73437500000
400+72812500000
##END=
