##TITLE=hexylbenzene
##JCAMP-DX=4.24
##DATA TYPE=INFRARED SPECTRUM
##DATE=10/06/2025
##SAMPLING PROCEDURE=ATR
##ORIGIN=SDBS
##XUNITS=1/CM
##YUNITS=TRANSMITTANCE
##RESOLUTION=5.2631578947368425
##FIRSTX=4000.0
##LASTX=400.0
##DELTAX=-5.2631578947368425
##MAXY=95.0
##MINY=0.0
##XFACTOR=1
##YFACTOR=1
##NPOINTS=685
##FIRSTY=0.0
##XYDATA=(X++(Y..Y))
4000+0+91875000000+91875000000+91562500000+91562500000+91562500000
3968+91562500000+91875000000+91875000000+91875000000+91875000000+91875000000
3937+91875000000+91875000000+91875000000+91875000000+91875000000+91875000000
3905+91875000000+91875000000+92187500000+92187500000+92187500000+92187500000
3874+92187500000+92187500000+92500000000+92500000000+92500000000+92500000000
3842+92500000000+92187500000+92187500000+92187500000+92187500000+92187500000
3811+92500000000+92500000000+92500000000+92500000000+92812500000+92812500000
3779+92812500000+92812500000+92500000000+92187500000+92187500000+92187500000
3747+92187500000+92187500000+92187500000+92187500000+92500000000+92500000000
3716+92500000000+92812500000+92812500000+93125000000+93437500000+93437500000
3684+93437500000+93437500000+93125000000+93125000000+93125000000+93125000000
3653+93125000000+93125000000+93125000000+93125000000+93125000000+93125000000
3621+93125000000+93125000000+93125000000+93125000000+93125000000+93125000000
3589+93125000000+93125000000+93125000000+93125000000+93125000000+93125000000
3558+93125000000+93125000000+93125000000+93125000000+93125000000+93125000000
3526+93125000000+93125000000+93125000000+93125000000+93125000000+93125000000
3495+93125000000+92812500000+92812500000+92812500000+92812500000+92812500000
3463+92500000000+92500000000+92187500000+92187500000+92187500000+92187500000
3432+92187500000+91875000000+91875000000+91875000000+91875000000+91562500000
3400+91562500000+91250000000+90000000000+85625000000+84062500000+83750000000
3368+67812500000+65625000000+72812500000+57500000000+55937500000+67187500000
3337+71875000000+59062500000+36562500000+36250000000+57812500000+71562500000
3305+70000000000+71875000000+64062500000+49687499999+24687500000+13125000000
3274+12812500000+16562500000+8125000000+4687500000+4687500000+6562500000
3242+13437500000+21875000000+29687500000+36562500000+33437500000+26875000000
3211+16875000000+13125000000+16250000000+37187499999+62187500000+71875000000
3179+78437500000+81875000000+84062500000+85625000000+86875000000+88125000000
3147+89375000000+90312500000+90937500000+90937500000+90625000000+90312500000
3116+90312500000+90625000000+90937500000+91562500000+91562500000+91250000000
3084+90937500000+90937500000+90937500000+90937500000+91250000000+91250000000
3053+91562500000+91562500000+91875000000+92187500000+92187500000+92500000000
3021+92500000000+92812500000+92812500000+93125000000+93125000000+93437500000
2989+93437500000+93750000000+94062500000+94062500000+94062500000+94062500000
2958+94062500000+94062500000+94375000000+94375000000+94375000000+94375000000
2926+94375000000+94375000000+94375000000+94375000000+94375000000+94375000000
2895+94375000000+94375000000+94375000000+94375000000+94375000000+94375000000
2863+94375000000+94062500000+94062500000+94062500000+94062500000+94062500000
2832+94062500000+94062500000+94062500000+94062500000+94375000000+94375000000
2800+94375000000+94375000000+94375000000+94375000000+94375000000+94375000000
2768+94375000000+94375000000+94375000000+94375000000+94375000000+94375000000
2737+94375000000+94375000000+94375000000+94375000000+94687500000+94687500000
2705+94687500000+94687500000+95000000000+95000000000+94687500000+94687500000
2674+94687500000+94687500000+94687500000+94687500000+94687500000+94687500000
2642+94687500000+94687500000+94687500000+94687500000+94687500000+94687500000
2611+94687500000+94687500000+94687500000+94375000000+94375000000+94375000000
2579+94375000000+94062500000+93750000000+92812500000+91875000000+90937500000
2547+90937500000+90937500000+89375000000+87187500000+87187500000+88125000000
2516+90937500000+92812500000+93437500000+93750000000+94062500000+94375000000
2484+94375000000+94375000000+94062500000+93750000000+93125000000+92187500000
2453+91562500000+91562500000+91562500000+90937500000+89687500000+89375000000
2421+90000000000+91562500000+92500000000+93125000000+93437500000+93750000000
2389+94062500000+94062500000+94062500000+93750000000+93437500000+92812500000
2358+92500000000+92187500000+91562500000+90000000000+88437500000+88125000000
2326+89375000000+91562500000+93125000000+93750000000+93750000000+93750000000
2295+94062500000+94062500000+94062500000+93750000000+93125000000+92187500000
2263+91250000000+90937500000+91250000000+91875000000+92812500000+93125000000
2232+93437500000+93750000000+93750000000+93750000000+93750000000+93750000000
2200+93750000000+93750000000+93750000000+93750000000+93750000000+93750000000
2168+93750000000+93750000000+93750000000+93125000000+92812500000+92500000000
2137+92187500000+92187500000+92500000000+92500000000+92812500000+92812500000
2105+93125000000+93125000000+92812500000+92812500000+92187500000+90625000000
2074+86250000000+68750000000+64375000000+67812500000+78750000000+84687500000
2042+87187500000+84375000000+85000000000+90312500000+91562500000+92187500000
2011+92187500000+92500000000+92812500000+92500000000+92187500000+91562500000
1979+90937500000+90000000000+89687500000+90000000000+90625000000+91250000000
1947+90625000000+89687500000+88750000000+85937500000+80312500000+62187500000
1916+35625000000+35312500000+57812500000+71250000000+77500000000+78437500000
1884+71875000000+56562500000+41874999999+42187500000+40625000000+34062500000
1853+27500000000+40312499999+56250000000+63750000000+69062500000+73750000000
1821+79062500000+83125000000+85625000000+87187500000+88437500000+88750000000
1789+89062500000+89375000000+89375000000+89062500000+87812500000+85625000000
1758+79062500000+68437500000+67187500000+75312500000+82187500000+82812500000
1726+84687500000+84687500000+84062500000+84062500000+85625000000+85625000000
1695+85937500000+87187500000+87187500000+87187500000+88125000000+88750000000
1663+88125000000+87812500000+87500000000+87500000000+87500000000+88125000000
1632+88750000000+89375000000+89687500000+90000000000+90000000000+90000000000
1600+90000000000+90312500000+90312500000+90312500000+90312500000+90312500000
1568+90312500000+90625000000+90937500000+91875000000+92187500000+91875000000
1537+91875000000+91562500000+91250000000+90937500000+90937500000+90625000000
1505+90625000000+90312500000+90312500000+90000000000+89375000000+87500000000
1474+86250000000+86250000000+88437500000+90000000000+90312500000+90000000000
1442+88437500000+88437500000+90625000000+91562500000+91875000000+92187500000
1411+92500000000+92187500000+91250000000+89375000000+85625000000+83125000000
1379+83125000000+85000000000+86875000000+87187500000+88125000000+89375000000
1347+90312500000+90000000000+88437500000+85625000000+82187500000+77187500000
1316+76875000000+78125000000+82500000000+86250000000+88437500000+89062500000
1284+89687500000+87187500000+77187500000+66250000000+70625000000+84687500000
1253+87187500000+88437500000+89062500000+89375000000+89687500000+89687500000
1221+90000000000+90312500000+90312500000+90312500000+90625000000+90312500000
1189+90312500000+90312500000+90312500000+90625000000+91250000000+91562500000
1158+92187500000+92500000000+92500000000+92500000000+92187500000+91875000000
1126+91875000000+91562500000+91250000000+90625000000+88125000000+81250000000
1095+80625000000+84062500000+88437500000+88437500000+88125000000+87812500000
1063+88125000000+88750000000+89687500000+90000000000+90000000000+90000000000
1032+91250000000+91562500000+91875000000+90625000000+89687500000+89375000000
1000+89375000000+89687500000+90000000000+90000000000+90000000000+90312500000
968+90000000000+90000000000+89687500000+89375000000+88750000000+87812500000
937+86250000000+84375000000+83437500000+83750000000+85937500000+85937500000
905+84375000000+81250000000+74687500000+63437500000+44375000000+31562500000
874+30000000000+30937500000+35937500000+43125000000+48750000000+48124999999
842+48124999999+52812500000+59687500000+63437500000+55312500000+38437500000
811+11250000000+9062500000+17500000000+55937500000+75625000000+83125000000
779+87187500000+89687500000+90312500000+90625000000+90937500000+91250000000
747+91562500000+92812500000+93437500000+93750000000+94062500000+94062500000
716+93750000000+93750000000+93750000000+93750000000+93750000000+93750000000
684+93750000000+93437500000+92500000000+90312500000+86875000000+84687500000
653+84687500000+86250000000+86875000000+81875000000+78125000000+78437500000
621+85625000000+90312500000+92500000000+93750000000+94375000000+94687500000
589+94375000000+93125000000+91875000000+90625000000+90000000000+89687500000
558+88437500000+83125000000+80625000000+81250000000+80937500000+80937500000
526+80937500000+81250000000+81875000000+82187500000+82812500000+83125000000
495+84062500000+85312500000+86562500000+87812500000+89375000000+90937500000
463+91875000000+92500000000+93125000000+92812500000+92500000000+91562500000
432+89687500000+87500000000+85625000000+83125000000+80625000000+79062500000
400+78437500000
##END=
