##TITLE=hydantoin
##JCAMP-DX=4.24
##DATA TYPE=INFRARED SPECTRUM
##DATE=10/06/2025
##SAMPLING PROCEDURE=ATR
##ORIGIN=SDBS
##XUNITS=1/CM
##YUNITS=TRANSMITTANCE
##RESOLUTION=5.2631578947368425
##FIRSTX=4000.0
##LASTX=400.0
##DELTAX=-5.2631578947368425
##MAXY=94.6875
##MINY=0.0
##XFACTOR=1
##YFACTOR=1
##NPOINTS=685
##FIRSTY=0.0
##XYDATA=(X++(Y..Y))
4000+0+82500000000+82812500000+82812500000+82812500000+82812500000
3968+82812500000+82812500000+83125000000+83437500000+83750000000+83750000000
3937+84062500000+84375000000+84375000000+84375000000+84375000000+84687500000
3905+84687500000+85000000000+85000000000+85000000000+85312500000+85312500000
3874+85312500000+85312500000+85625000000+85937500000+85937500000+85937500000
3842+86250000000+86250000000+86250000000+86250000000+86250000000+86250000000
3811+86250000000+86562500000+86562500000+86875000000+86875000000+86875000000
3779+86875000000+86875000000+87187500000+87187500000+87187500000+87187500000
3747+87500000000+87500000000+87500000000+87812500000+87812500000+87812500000
3716+88125000000+88125000000+88437500000+88437500000+88437500000+88437500000
3684+88437500000+88125000000+88125000000+88125000000+87812500000+87500000000
3653+87187500000+87187500000+86875000000+86250000000+85625000000+84687500000
3621+83750000000+83125000000+82187500000+81562500000+80625000000+79375000000
3589+77500000000+75937500000+73437500000+71250000000+69375000000+67187500000
3558+63125000000+59375000000+55937500000+53750000000+51562500000+49687499999
3526+46250000000+43437499999+40937500000+38125000000+35312500000+32812500000
3495+30312500000+28750000000+28750000000+29062500000+29687500000+31250000000
3463+32500000000+33750000000+34375000000+34062500000+33437500000+32500000000
3432+30625000000+29062500000+27812500000+26875000000+26562500000+26562500000
3400+26875000000+27812500000+29375000000+31875000000+35000000000+37500000000
3368+39375000000+40625000000+36875000000+33437500000+32812500000+33437500000
3337+35625000000+37812500000+39687500000+41562500000+43125000000+44062500000
3305+44687500000+44375000000+40312499999+33437500000+25312500000+19062500000
3274+17500000000+17812500000+14062500000+9687500000+9062500000+9375000000
3242+15312500000+21250000000+26250000000+30937500000+33437500000+30000000000
3211+26250000000+21250000000+21875000000+35000000000+51562500000+59375000000
3179+63750000000+65937500000+67187500000+67187500000+66875000000+65312500000
3147+63125000000+60625000000+60000000000+60937500000+65000000000+69062500000
3116+72187500000+74062500000+75937500000+76875000000+77500000000+78125000000
3084+79375000000+80625000000+81250000000+82500000000+83125000000+83750000000
3053+83750000000+83750000000+83750000000+83750000000+83750000000+84062500000
3021+84687500000+85625000000+86562500000+87500000000+88125000000+88750000000
2989+89062500000+89062500000+89062500000+88750000000+88750000000+88750000000
2958+88750000000+88750000000+89062500000+89062500000+89375000000+89375000000
2926+89687500000+90000000000+90312500000+90312500000+90312500000+90312500000
2895+90000000000+90000000000+90000000000+90000000000+90000000000+90000000000
2863+90312500000+90625000000+90625000000+90937500000+90937500000+91250000000
2832+91562500000+91562500000+91562500000+91562500000+91562500000+91875000000
2800+92500000000+92812500000+93125000000+93750000000+93750000000+93750000000
2768+93750000000+93750000000+93750000000+93750000000+93750000000+94062500000
2737+94062500000+94062500000+94062500000+93750000000+93750000000+93750000000
2705+93437500000+93125000000+93125000000+93125000000+92812500000+92812500000
2674+92500000000+92500000000+92500000000+92187500000+92187500000+92500000000
2642+92812500000+93437500000+93750000000+94375000000+94687500000+94687500000
2611+94062500000+93437500000+92500000000+91875000000+91875000000+91875000000
2579+91875000000+91875000000+92187500000+92500000000+92812500000+92812500000
2547+93125000000+93125000000+93125000000+93437500000+93125000000+93125000000
2516+93125000000+93125000000+92812500000+92812500000+92500000000+92187500000
2484+91250000000+90625000000+89687500000+89375000000+89062500000+88750000000
2453+88750000000+88750000000+88437500000+88125000000+86875000000+85625000000
2421+84062500000+82187500000+80000000000+77812500000+76250000000+76250000000
2389+76250000000+76562500000+75937500000+75000000000+73125000000+70000000000
2358+66250000000+61250000000+52812500000+44062500000+42187500000+42500000000
2326+39375000000+32812500000+25312500000+18125000000+13437500000+12500000000
2295+14375000000+23437500000+34375000000+40312499999+41562500000+35625000000
2263+35312500000+37500000000+30937500000+23750000000+17812500000+12500000000
2232+9375000000+7187500000+5625000000+5312500000+5000000000+5000000000
2200+4687500000+4687500000+5000000000+5937500000+10000000000+15000000000
2168+19062500000+23125000000+27812500000+31250000000+34375000000+38125000000
2137+42187500000+45312500000+48124999999+50312500000+52500000000+54375000000
2105+56250000000+57500000000+59062500000+60312500000+61562500000+62500000000
2074+63750000000+65000000000+66562500000+67812500000+69062500000+70000000000
2042+70937500000+71875000000+72500000000+73125000000+73437500000+73750000000
2011+74375000000+74687500000+75312500000+75625000000+75937500000+75937500000
1979+76250000000+76250000000+76562500000+76562500000+76875000000+77500000000
1947+78437500000+79375000000+80000000000+80625000000+80937500000+81250000000
1916+81562500000+81562500000+81250000000+80312500000+78125000000+74687500000
1884+70000000000+61562500000+51562500000+47500000000+42812500000+38437500000
1853+32812500000+27812500000+27500000000+27187500000+24062500000+20625000000
1821+20312500000+21875000000+27500000000+35625000000+42812500000+45937500000
1789+43125000000+43125000000+44687500000+47500000000+46875000000+40312499999
1758+35625000000+35000000000+35000000000+39375000000+48124999999+51875000000
1726+55937500000+60000000000+62500000000+63750000000+64687500000+64687500000
1695+64062500000+63437500000+61875000000+60000000000+56875000000+53437500000
1663+49687499999+45625000000+40937500000+35625000000+31562500000+29687500000
1632+28750000000+28750000000+29687500000+36875000000+45625000000+53125000000
1600+58750000000+63750000000+67500000000+70312500000+71875000000+73437500000
1568+75000000000+76250000000+77500000000+78125000000+78750000000+78750000000
1537+76875000000+71875000000+61250000000+48437500000+30625000000+19375000000
1505+18750000000+21250000000+28125000000+36875000000+44687500000+50312500000
1474+54687500000+56875000000+60000000000+63437500000+65625000000+67812500000
1442+69062500000+70000000000+70937500000+72187500000+73125000000+73750000000
1411+74687500000+75312500000+75937500000+76250000000+76875000000+77812500000
1379+78750000000+79375000000+79687500000+79687500000+78750000000+72187500000
1347+65937500000+65312500000+60937500000+57500000000+58750000000+66562500000
1316+70937500000+73750000000+76250000000+77812500000+79062500000+79375000000
1284+79687500000+80000000000+80312500000+80625000000+80937500000+81250000000
1253+81250000000+80937500000+80000000000+77812500000+74687500000+66562500000
1221+54062500000+53125000000+59062500000+64375000000+74062500000+77500000000
1189+79375000000+80937500000+81875000000+82187500000+82812500000+83125000000
1158+83125000000+83125000000+83125000000+82812500000+82812500000+82500000000
1126+82187500000+81875000000+81562500000+81250000000+81250000000+79062500000
1095+69062500000+55937500000+58437500000+72500000000+76562500000+78437500000
1063+79687500000+80000000000+80625000000+80625000000+80625000000+80312500000
1032+80312500000+80000000000+80000000000+80000000000+79687500000+79375000000
1000+79062500000+78437500000+77812500000+76562500000+75625000000+74062500000
968+71875000000+70000000000+67812500000+65937500000+63437500000+61250000000
937+58750000000+58125000000+58437500000+61250000000+65000000000+71250000000
905+68437500000+57812500000+50937500000+50000000000+50000000000+50625000000
874+51562500000+49687499999+43125000000+39062500000+38125000000+35312500000
842+33437500000+34375000000+40937500000+50625000000+57812500000+62812500000
811+63750000000+61562500000+59375000000+59375000000+60312500000+63125000000
779+65312500000+66562500000+67500000000+68750000000+70312500000+71875000000
747+72187500000+68437500000+55937500000+38437500000+25625000000+25625000000
716+41562500000+56875000000+64062500000+69375000000+74062500000+76875000000
684+77500000000+78437500000+80000000000+81875000000+83125000000+83750000000
653+83437500000+81250000000+77500000000+78437500000+80625000000+80625000000
621+80937500000+82187500000+83750000000+85312500000+86562500000+88125000000
589+89375000000+90312500000+90625000000+90937500000+91250000000+91250000000
558+91562500000+91562500000+91562500000+91562500000+90937500000+90312500000
526+89687500000+89062500000+89062500000+89062500000+89375000000+90312500000
495+92187500000+93750000000+94687500000+92812500000+82187500000+72500000000
463+64375000000+55625000000+49375000000+45312500000+43750000000+43750000000
432+44062500000+45937500000+48750000000+51250000000+54375000000+57500000000
400+59062500000
##END=
