##TITLE=imidazole
##JCAMP-DX=4.24
##DATA TYPE=INFRARED SPECTRUM
##DATE=10/06/2025
##SAMPLING PROCEDURE=ATR
##ORIGIN=SDBS
##XUNITS=1/CM
##YUNITS=TRANSMITTANCE
##RESOLUTION=5.2631578947368425
##FIRSTX=4000.0
##LASTX=400.0
##DELTAX=-5.2631578947368425
##MAXY=94.375
##MINY=0.0
##XFACTOR=1
##YFACTOR=1
##NPOINTS=685
##FIRSTY=0.0
##XYDATA=(X++(Y..Y))
4000+0+70625000000+70625000000+71250000000+71562500000+71875000000
3968+72187500000+72187500000+72187500000+72500000000+72812500000+73125000000
3937+73437500000+73437500000+73750000000+73750000000+74062500000+74062500000
3905+74687500000+75000000000+75312500000+75625000000+76250000000+76250000000
3874+76562500000+76562500000+76875000000+77187500000+77500000000+77500000000
3842+78125000000+78125000000+78437500000+78437500000+78750000000+79062500000
3811+79062500000+79375000000+79687500000+80000000000+80312500000+80625000000
3779+80625000000+80625000000+80937500000+81250000000+81562500000+81875000000
3747+82187500000+82500000000+82812500000+83125000000+83125000000+83437500000
3716+83437500000+83750000000+84062500000+84375000000+84687500000+85000000000
3684+85312500000+85625000000+85625000000+85937500000+85937500000+85937500000
3653+86250000000+86562500000+86875000000+87187500000+87500000000+87500000000
3621+87812500000+88125000000+88125000000+88437500000+88750000000+89062500000
3589+89062500000+89375000000+89375000000+89687500000+90000000000+90000000000
3558+90312500000+90312500000+90312500000+90312500000+90312500000+90312500000
3526+90312500000+90000000000+89687500000+89062500000+88437500000+88125000000
3495+87812500000+87187500000+86562500000+85937500000+85000000000+84062500000
3463+82500000000+81250000000+80000000000+78750000000+77812500000+76250000000
3432+74687500000+72812500000+70625000000+68125000000+63750000000+60937500000
3400+57187500000+39687500000+31875000000+46250000000+44687500000+44687500000
3368+46250000000+50625000000+57812500000+60937500000+53750000000+46250000000
3337+41250000000+38749999999+35937500000+33750000000+33125000000+33437500000
3305+35000000000+38437500000+42187500000+38437500000+24375000000+15312500000
3274+13437500000+13437500000+8750000000+5000000000+4375000000+4375000000
3242+6562500000+10000000000+15625000000+21562500000+18750000000+14687500000
3211+11562500000+8750000000+8750000000+14375000000+21875000000+25312500000
3179+27187500000+28750000000+30000000000+29062500000+29062500000+30000000000
3147+31250000000+32187500000+32812500000+34687500000+36875000000+38749999999
3116+41562500000+35937500000+33750000000+30625000000+30625000000+31250000000
3084+31562500000+32187500000+33125000000+35312500000+38125000000+40625000000
3053+42187500000+33750000000+28437500000+27812500000+28750000000+30937500000
3021+32500000000+32812500000+33750000000+36250000000+38437500000+40625000000
2989+40312499999+40000000000+41874999999+43437499999+44062500000+45937500000
2958+46875000000+48124999999+50625000000+51562500000+50937500000+50937500000
2926+53437500000+53750000000+53750000000+55000000000+57500000000+58750000000
2895+60625000000+61562500000+63750000000+65000000000+65000000000+65312500000
2863+66250000000+67500000000+68437500000+69375000000+70625000000+71562500000
2832+72500000000+73437500000+74687500000+76250000000+75937500000+75625000000
2800+75625000000+77187500000+78437500000+79687500000+79687500000+80625000000
2768+81562500000+82187500000+82812500000+83125000000+83437500000+83437500000
2737+83750000000+85000000000+85312500000+85312500000+85937500000+86250000000
2705+86875000000+87187500000+87187500000+86875000000+87187500000+87187500000
2674+87187500000+87500000000+87500000000+87812500000+87812500000+87812500000
2642+87500000000+87187500000+86562500000+86250000000+86250000000+85937500000
2611+85937500000+85937500000+85625000000+85625000000+85625000000+85625000000
2579+85312500000+85312500000+85312500000+85000000000+85000000000+84687500000
2547+84687500000+84375000000+84375000000+84062500000+83750000000+83750000000
2516+83437500000+83125000000+83125000000+82812500000+82812500000+82500000000
2484+82187500000+81875000000+81250000000+80937500000+80625000000+80000000000
2453+79687500000+79375000000+79062500000+78750000000+78750000000+78750000000
2421+78750000000+78750000000+78750000000+78437500000+78125000000+77187500000
2389+75625000000+74062500000+73750000000+73750000000+74062500000+75000000000
2358+75625000000+76250000000+76875000000+78125000000+79687500000+80625000000
2326+81250000000+82187500000+82500000000+82187500000+82187500000+82187500000
2295+82187500000+82187500000+82500000000+82500000000+83125000000+83437500000
2263+84062500000+85000000000+85937500000+86250000000+86875000000+86875000000
2232+87187500000+87500000000+87812500000+88125000000+88437500000+88750000000
2200+89062500000+89375000000+89062500000+88437500000+87812500000+86875000000
2168+85000000000+82500000000+79375000000+78750000000+79687500000+83125000000
2137+85625000000+87187500000+88437500000+89062500000+89687500000+90000000000
2105+90625000000+90937500000+91562500000+91562500000+91875000000+91875000000
2074+91562500000+91250000000+90937500000+90000000000+88437500000+85937500000
2042+83750000000+80000000000+76562500000+73437500000+73437500000+75000000000
2011+79062500000+81562500000+82500000000+80312500000+75000000000+66875000000
1979+65312500000+68125000000+75625000000+84375000000+89375000000+91562500000
1947+93125000000+94375000000+94062500000+89375000000+80937500000+67187500000
1916+63750000000+64062500000+68437500000+69062500000+61562500000+57500000000
1884+62500000000+65312500000+56875000000+55312500000+52187500000+46562499999
1853+33437500000+27500000000+30312500000+46250000000+57812500000+67500000000
1821+75312500000+80312500000+83125000000+85000000000+86250000000+87500000000
1789+88125000000+88437500000+89062500000+89375000000+87500000000+83437500000
1758+78750000000+72812500000+71562500000+74375000000+81250000000+82500000000
1726+84375000000+87500000000+89062500000+90000000000+90625000000+90937500000
1695+91562500000+89687500000+63125000000+44687500000+55625000000+56562500000
1663+70312500000+82500000000+86562500000+88437500000+89687500000+90625000000
1632+91250000000+91562500000+91875000000+92187500000+92500000000+91875000000
1600+85312500000+49375000000+37500000000+51250000000+70000000000+79375000000
1568+78437500000+69375000000+77812500000+85000000000+87812500000+89062500000
1537+89687500000+90312500000+90937500000+91562500000+91875000000+91875000000
1505+92187500000+92187500000+92500000000+92187500000+92187500000+92187500000
1474+92187500000+92500000000+92500000000+92812500000+92812500000+92500000000
1442+90312500000+83437500000+55000000000+54687500000+74062500000+77812500000
1411+85625000000+89062500000+90937500000+90937500000+91250000000+91562500000
1379+90625000000+86875000000+62500000000+59062500000+72500000000+87500000000
1347+89062500000+88125000000+85937500000+83125000000+77500000000+66875000000
1316+53750000000+31250000000+11875000000+10625000000+24062500000+43437499999
1284+58125000000+65937500000+71250000000+73750000000+75625000000+77187500000
1253+78125000000+78750000000+79375000000+80000000000+80937500000+81250000000
1221+81875000000+81875000000+81875000000+81875000000+81562500000+81250000000
1189+80937500000+80000000000+79062500000+77500000000+75625000000+72812500000
1158+66875000000+55312500000+38125000000+19687500000+17812500000+23750000000
1126+37812500000+49062500000+52187500000+62812500000+68750000000+73125000000
1095+74375000000+65312500000+61250000000+61875000000+66250000000+69687500000
1063+72812500000+74375000000+75937500000+77187500000+78437500000+79375000000
1032+80000000000+79062500000+76250000000+63125000000+44687500000+44375000000
1000+51562500000+64062500000+57812500000+58437500000+74687500000+78437500000
968+80625000000+82187500000+82812500000+83125000000+83437500000+83437500000
937+83125000000+82812500000+82187500000+80937500000+79687500000+77500000000
905+71562500000+57500000000+37500000000+35937500000+41874999999+58437500000
874+68437500000+56875000000+44375000000+53125000000+71250000000+78125000000
842+79375000000+79687500000+81250000000+83750000000+84687500000+85937500000
811+86250000000+86875000000+87187500000+87187500000+87187500000+86875000000
779+86562500000+86250000000+78437500000+55937500000+23125000000+21250000000
747+53750000000+76250000000+84687500000+85625000000+85625000000+85625000000
716+87500000000+85625000000+62500000000+51250000000+72187500000+82500000000
684+85937500000+86250000000+86562500000+87187500000+86875000000+86562500000
653+86562500000+86250000000+86250000000+86250000000+86250000000+86250000000
621+86562500000+86562500000+86875000000+86875000000+86875000000+87187500000
589+87187500000+87187500000+87500000000+87500000000+87187500000+87187500000
558+86875000000+86562500000+86250000000+85937500000+85625000000+85000000000
526+84687500000+84687500000+84687500000+84687500000+84687500000+84375000000
495+84375000000+84687500000+84687500000+85000000000+85625000000+86250000000
463+86562500000+86250000000+85000000000+82500000000+80000000000+76562500000
432+73437500000+71562500000+70937500000+70625000000+70937500000+70937500000
400+71250000000
##END=
