##TITLE=indan
##JCAMP-DX=4.24
##DATA TYPE=INFRARED SPECTRUM
##DATE=10/06/2025
##SAMPLING PROCEDURE=ATR
##ORIGIN=SDBS
##XUNITS=1/CM
##YUNITS=TRANSMITTANCE
##RESOLUTION=5.2631578947368425
##FIRSTX=4000.0
##LASTX=400.0
##DELTAX=-5.2631578947368425
##MAXY=94.6875
##MINY=0.0
##XFACTOR=1
##YFACTOR=1
##NPOINTS=685
##FIRSTY=0.0
##XYDATA=(X++(Y..Y))
4000+0+94687500000+94687500000+94687500000+94375000000+94375000000
3968+94375000000+94375000000+94375000000+94375000000+94062500000+93750000000
3937+93437500000+93125000000+93125000000+92812500000+92812500000+92812500000
3905+92812500000+93125000000+93125000000+93125000000+93125000000+93437500000
3874+93437500000+93437500000+93437500000+93437500000+93437500000+93125000000
3842+93125000000+93125000000+93125000000+93125000000+93437500000+93437500000
3811+93750000000+93750000000+94062500000+94062500000+94062500000+94062500000
3779+94062500000+93750000000+93750000000+93437500000+93437500000+93125000000
3747+93125000000+93125000000+92812500000+92500000000+92187500000+91875000000
3716+91562500000+91250000000+90937500000+90937500000+91250000000+91562500000
3684+91875000000+92187500000+92187500000+92500000000+92500000000+92500000000
3653+92187500000+92187500000+91875000000+91875000000+91562500000+91562500000
3621+91562500000+91250000000+90937500000+90937500000+90625000000+90625000000
3589+90312500000+90312500000+90312500000+90312500000+90312500000+90000000000
3558+90000000000+90000000000+90000000000+90000000000+89687500000+89687500000
3526+89375000000+89375000000+89062500000+88750000000+88750000000+88437500000
3495+88125000000+88125000000+87812500000+87812500000+87812500000+87812500000
3463+87812500000+87812500000+87812500000+87812500000+88125000000+88125000000
3432+88125000000+88125000000+88125000000+88125000000+88125000000+88437500000
3400+88750000000+89062500000+88750000000+88125000000+84375000000+73437500000
3368+72187500000+72812500000+48124999999+44062500000+50000000000+59687500000
3337+49687499999+50000000000+50000000000+31875000000+33437500000+56875000000
3305+64687500000+70312500000+61250000000+45937500000+25312500000+15937500000
3274+12500000000+12500000000+12500000000+15312500000+21875000000+26562500000
3242+31875000000+34062500000+32812500000+33125000000+39687500000+38437500000
3211+37500000000+37812500000+18125000000+18125000000+40000000000+65625000000
3179+79375000000+85312500000+88125000000+89375000000+90312500000+90937500000
3147+91250000000+91562500000+91875000000+91875000000+92187500000+92187500000
3116+92812500000+93125000000+93750000000+94062500000+94062500000+94062500000
3084+94062500000+94062500000+94062500000+94062500000+94062500000+94062500000
3053+94062500000+93750000000+93437500000+93125000000+92812500000+92812500000
3021+92812500000+92812500000+93125000000+93750000000+94062500000+94375000000
2989+94687500000+94687500000+94375000000+94375000000+94375000000+94375000000
2958+94375000000+94375000000+94375000000+94375000000+94375000000+94375000000
2926+94062500000+93750000000+93750000000+93750000000+93750000000+94062500000
2895+94687500000+94687500000+94687500000+94687500000+94375000000+94062500000
2863+93750000000+93437500000+93125000000+92500000000+92187500000+91875000000
2832+91562500000+91562500000+91562500000+91875000000+92187500000+92812500000
2800+93750000000+94062500000+94062500000+94062500000+93750000000+93437500000
2768+93437500000+93437500000+93437500000+93750000000+93750000000+94062500000
2737+94062500000+94062500000+94062500000+94062500000+94062500000+94062500000
2705+94062500000+94062500000+94062500000+94375000000+94375000000+94062500000
2674+94062500000+93750000000+93750000000+93750000000+93750000000+93750000000
2642+94062500000+94375000000+94062500000+94062500000+93750000000+93750000000
2611+94062500000+94062500000+94062500000+94062500000+94062500000+94062500000
2579+94062500000+94062500000+93750000000+93437500000+92812500000+91875000000
2547+90625000000+89375000000+88437500000+88437500000+88750000000+90000000000
2516+91250000000+92500000000+92500000000+91875000000+90937500000+89062500000
2484+85937500000+84062500000+83437500000+83437500000+85000000000+87812500000
2453+89687500000+90937500000+91562500000+91562500000+90625000000+90000000000
2421+89687500000+89687500000+90312500000+91250000000+92187500000+92187500000
2389+91250000000+90000000000+89062500000+88750000000+88750000000+89062500000
2358+90000000000+90937500000+91562500000+91562500000+90937500000+90000000000
2326+88750000000+87500000000+87500000000+87500000000+88437500000+89687500000
2295+90625000000+91250000000+91562500000+91875000000+92187500000+92187500000
2263+92187500000+91875000000+91562500000+91562500000+90937500000+89375000000
2232+86562500000+82500000000+80625000000+81562500000+85000000000+87500000000
2200+88750000000+89375000000+89687500000+89687500000+89687500000+89687500000
2168+89687500000+90000000000+90000000000+90312500000+90625000000+90937500000
2137+90937500000+90937500000+90937500000+90625000000+90625000000+90312500000
2105+90312500000+90000000000+90000000000+89687500000+89375000000+88125000000
2074+85312500000+78125000000+74687500000+76250000000+82187500000+84375000000
2042+84687500000+80937500000+80937500000+87500000000+90312500000+90937500000
2011+91250000000+91875000000+92187500000+92187500000+92500000000+92500000000
1979+92187500000+92187500000+91875000000+91875000000+91562500000+91562500000
1947+91250000000+90937500000+90000000000+88437500000+87187500000+85312500000
1916+83437500000+77187500000+63750000000+34687500000+20312500000+23750000000
1884+46875000000+50000000000+49375000000+44687500000+18125000000+23750000000
1853+44375000000+60312500000+63125000000+49375000000+41874999999+45937500000
1821+65937500000+77500000000+82812500000+85312500000+86562500000+86875000000
1789+87500000000+87812500000+86562500000+86250000000+84687500000+83750000000
1758+84687500000+87500000000+88750000000+89687500000+89687500000+89375000000
1726+88125000000+88125000000+88125000000+89062500000+89687500000+90000000000
1695+89375000000+88750000000+87500000000+85000000000+78750000000+75625000000
1663+76250000000+64375000000+65000000000+79687500000+83437500000+85000000000
1632+86250000000+86250000000+85625000000+83750000000+79687500000+76875000000
1600+74687500000+70000000000+69375000000+75000000000+80625000000+84375000000
1568+85937500000+86875000000+87500000000+88125000000+87187500000+85937500000
1537+82187500000+75625000000+75625000000+79687500000+84375000000+85625000000
1505+85625000000+86875000000+88125000000+89375000000+89062500000+88750000000
1474+87812500000+87187500000+86875000000+86250000000+83437500000+77500000000
1442+76250000000+78750000000+80312500000+84375000000+86562500000+87187500000
1411+86250000000+85937500000+85937500000+86875000000+87812500000+88750000000
1379+89375000000+89687500000+89375000000+89062500000+88437500000+86875000000
1347+80625000000+67812500000+68437500000+80625000000+85625000000+88125000000
1316+88125000000+87500000000+87187500000+86562500000+85937500000+83437500000
1284+78437500000+72812500000+73437500000+76875000000+61562500000+57187500000
1253+75937500000+81875000000+84687500000+86250000000+85937500000+85000000000
1221+85000000000+85625000000+87812500000+89687500000+90312500000+90625000000
1189+90625000000+90625000000+90937500000+90937500000+90937500000+90937500000
1158+90937500000+90312500000+89375000000+87187500000+81250000000+75625000000
1126+76562500000+84375000000+88437500000+89687500000+88750000000+84062500000
1095+82500000000+86250000000+88437500000+89687500000+90000000000+90312500000
1063+90312500000+90000000000+89687500000+89062500000+88125000000+85312500000
1032+82500000000+82187500000+82187500000+83750000000+85625000000+87187500000
1000+86250000000+84687500000+84687500000+87187500000+88750000000+89062500000
968+89375000000+89375000000+89375000000+89062500000+88750000000+88437500000
937+87812500000+86875000000+85312500000+83750000000+81250000000+77187500000
905+67187500000+56250000000+36562500000+13437500000+5000000000+4687500000
874+5937500000+10312500000+8750000000+9375000000+21250000000+47812500000
842+67187500000+77500000000+81562500000+85625000000+87500000000+88437500000
811+89062500000+89687500000+90312500000+90625000000+90625000000+90937500000
779+91250000000+91562500000+91875000000+92187500000+92187500000+92500000000
747+92500000000+92500000000+92187500000+91875000000+91562500000+91250000000
716+90625000000+90312500000+89375000000+87500000000+86562500000+86562500000
684+87500000000+90312500000+90625000000+90937500000+90937500000+90625000000
653+90312500000+90000000000+90000000000+90312500000+90625000000+90937500000
621+91562500000+92187500000+92812500000+93437500000+94062500000+94375000000
589+94687500000+94375000000+93750000000+92812500000+91250000000+90000000000
558+85937500000+86875000000+89687500000+89687500000+89687500000+89687500000
526+89687500000+89375000000+89062500000+89062500000+88750000000+88750000000
495+88750000000+89062500000+89375000000+89687500000+90000000000+89687500000
463+89375000000+88437500000+87187500000+85625000000+84375000000+82187500000
432+79687500000+76875000000+74062500000+70937500000+68437500000+66562500000
400+65625000000
##END=
