##TITLE=indole
##JCAMP-DX=4.24
##DATA TYPE=INFRARED SPECTRUM
##DATE=10/06/2025
##SAMPLING PROCEDURE=ATR
##ORIGIN=SDBS
##XUNITS=1/CM
##YUNITS=TRANSMITTANCE
##RESOLUTION=5.2631578947368425
##FIRSTX=4000.0
##LASTX=400.0
##DELTAX=-5.2631578947368425
##MAXY=95.0
##MINY=0.0
##XFACTOR=1
##YFACTOR=1
##NPOINTS=685
##FIRSTY=0.0
##XYDATA=(X++(Y..Y))
4000+0+85000000000+85312500000+85312500000+85312500000+85312500000
3968+85312500000+85312500000+85000000000+85000000000+85000000000+84375000000
3937+84062500000+83437500000+83125000000+83125000000+83125000000+83125000000
3905+83437500000+83750000000+84062500000+84062500000+84062500000+84062500000
3874+84062500000+84062500000+84062500000+84375000000+84375000000+84375000000
3842+84375000000+84375000000+84375000000+84375000000+84375000000+84375000000
3811+84687500000+84687500000+85000000000+85000000000+85312500000+85312500000
3779+85312500000+85312500000+85312500000+85312500000+85625000000+85625000000
3747+85937500000+85625000000+85625000000+85937500000+86250000000+86250000000
3716+86562500000+86562500000+86875000000+86875000000+87187500000+87187500000
3684+87187500000+87187500000+87187500000+87187500000+87187500000+86562500000
3653+81250000000+77812500000+78125000000+82812500000+85000000000+84687500000
3621+82500000000+79062500000+73750000000+68437500000+56562500000+42187500000
3589+32500000000+29375000000+29375000000+33437500000+42812500000+51250000000
3558+56562500000+61250000000+64062500000+65937500000+67500000000+68437500000
3526+69375000000+70000000000+70312500000+70312500000+70625000000+70625000000
3495+70937500000+70937500000+71250000000+71562500000+71562500000+71875000000
3463+72187500000+72187500000+72500000000+72500000000+72500000000+72812500000
3432+72812500000+73125000000+73437500000+74062500000+74375000000+75000000000
3400+75625000000+76250000000+76562500000+76562500000+76250000000+76250000000
3368+76250000000+76250000000+76250000000+76250000000+75625000000+68750000000
3337+68437500000+69062500000+69375000000+67812500000+65937500000+62812500000
3305+56875000000+49062500000+37187499999+25937500000+14062500000+9687500000
3274+8437500000+8750000000+7187500000+5000000000+4687500000+5000000000
3242+7500000000+10312500000+13125000000+16250000000+17812500000+15000000000
3211+13437500000+11562500000+11875000000+20000000000+38125000000+55937500000
3179+66562500000+72500000000+76875000000+80000000000+82187500000+84062500000
3147+85937500000+86250000000+86875000000+86562500000+85625000000+84375000000
3116+84375000000+84375000000+84687500000+84687500000+84687500000+84375000000
3084+84375000000+84375000000+84375000000+84687500000+85312500000+85625000000
3053+85937500000+85937500000+85937500000+85937500000+86250000000+86562500000
3021+86875000000+87187500000+87812500000+88437500000+89062500000+89375000000
2989+89687500000+89687500000+89687500000+89687500000+89375000000+89375000000
2958+89687500000+89687500000+90000000000+90312500000+90625000000+90625000000
2926+90625000000+90937500000+90937500000+90937500000+90625000000+90625000000
2895+90625000000+90625000000+90625000000+90625000000+90625000000+90625000000
2863+90625000000+90625000000+90625000000+90625000000+90625000000+90937500000
2832+90937500000+90937500000+90937500000+91250000000+91562500000+91562500000
2800+91562500000+91562500000+91562500000+91562500000+91562500000+91562500000
2768+91562500000+91875000000+91875000000+91875000000+92187500000+92187500000
2737+92500000000+92812500000+92812500000+92812500000+92812500000+92812500000
2705+92812500000+92812500000+93125000000+93125000000+93125000000+93125000000
2674+93437500000+93437500000+93437500000+93437500000+93437500000+93750000000
2642+93750000000+93437500000+93437500000+93750000000+93750000000+93750000000
2611+93750000000+94062500000+94062500000+94062500000+94375000000+94375000000
2579+94375000000+94375000000+94375000000+94375000000+94375000000+94375000000
2547+94375000000+94375000000+94375000000+94062500000+94062500000+94062500000
2516+94062500000+94062500000+94062500000+94062500000+93750000000+93437500000
2484+93125000000+93125000000+93125000000+93125000000+93125000000+93437500000
2453+93437500000+93437500000+93750000000+93750000000+93750000000+94062500000
2421+94062500000+94375000000+94375000000+94375000000+94687500000+94687500000
2389+94687500000+95000000000+94687500000+94687500000+94687500000+94687500000
2358+94687500000+94687500000+94687500000+94375000000+94062500000+93750000000
2326+93437500000+93125000000+93125000000+93125000000+93125000000+93437500000
2295+93437500000+93437500000+93750000000+94062500000+94062500000+94062500000
2263+94062500000+94375000000+94375000000+94375000000+94062500000+94062500000
2232+93437500000+93125000000+92500000000+92187500000+92187500000+91875000000
2200+91875000000+91875000000+91875000000+91875000000+92187500000+92500000000
2168+92812500000+92812500000+93125000000+93437500000+93750000000+94062500000
2137+94375000000+94375000000+94687500000+94375000000+94062500000+93437500000
2105+93125000000+92500000000+91875000000+90625000000+87500000000+85937500000
2074+86562500000+88125000000+89687500000+90312500000+90625000000+90937500000
2042+91562500000+91562500000+90312500000+86875000000+87500000000+89375000000
2011+91250000000+92187500000+92812500000+93125000000+93437500000+93750000000
1979+94062500000+94062500000+94375000000+94375000000+94375000000+94062500000
1947+93125000000+91875000000+91250000000+84687500000+78437500000+80312500000
1916+85625000000+85000000000+74687500000+72812500000+76250000000+70000000000
1884+58750000000+44062500000+32812500000+29375000000+23437500000+20000000000
1853+20625000000+34062500000+41250000000+49062500000+55937500000+64062500000
1821+74375000000+81250000000+84375000000+61562500000+60312500000+68437500000
1789+75000000000+80000000000+83125000000+83125000000+79062500000+68125000000
1758+58437500000+47812500000+45312500000+47812500000+61875000000+62500000000
1726+65937500000+68750000000+43437499999+46875000000+67187500000+65625000000
1695+56250000000+56562500000+65625000000+73125000000+78437500000+81250000000
1663+82187500000+83125000000+83437500000+83750000000+84062500000+84687500000
1632+85937500000+87187500000+87187500000+79687500000+77500000000+78125000000
1600+82812500000+86562500000+87812500000+89062500000+87500000000+71250000000
1568+65000000000+67187500000+75625000000+82500000000+84687500000+85937500000
1537+86875000000+87812500000+89062500000+90312500000+88437500000+81875000000
1505+83750000000+88750000000+89062500000+89687500000+89687500000+90000000000
1474+90000000000+89687500000+89375000000+89062500000+88750000000+88437500000
1442+88125000000+88125000000+88125000000+88750000000+89687500000+90312500000
1411+91250000000+91250000000+89375000000+83437500000+83125000000+87187500000
1379+90625000000+90937500000+88437500000+80625000000+72500000000+64062500000
1347+64375000000+72500000000+80625000000+84375000000+86250000000+88125000000
1316+78750000000+71562500000+72187500000+80937500000+83437500000+83125000000
1284+82500000000+82187500000+82187500000+81875000000+81562500000+81562500000
1253+81250000000+79687500000+77500000000+75937500000+75625000000+77812500000
1221+82500000000+84062500000+85000000000+85625000000+85625000000+85937500000
1189+86250000000+86562500000+86875000000+87187500000+87812500000+88437500000
1158+88750000000+89062500000+88750000000+86875000000+79687500000+72500000000
1126+77812500000+87500000000+89062500000+90000000000+90625000000+90937500000
1095+90937500000+85937500000+79375000000+82812500000+90000000000+90625000000
1063+90000000000+89062500000+88125000000+86562500000+86250000000+86250000000
1032+86250000000+86875000000+87187500000+87812500000+88437500000+89375000000
1000+90000000000+90625000000+91250000000+91562500000+91875000000+91875000000
968+92187500000+92187500000+92187500000+92187500000+91875000000+91562500000
937+90937500000+90000000000+88437500000+86875000000+83125000000+73750000000
905+55000000000+48750000000+58125000000+49062500000+38749999999+30625000000
874+21875000000+21875000000+44375000000+44375000000+39062500000+36562500000
842+34375000000+35937500000+46562499999+64375000000+75312500000+80937500000
811+84375000000+86250000000+88125000000+89687500000+90937500000+91875000000
779+92812500000+93125000000+93437500000+93437500000+93750000000+94062500000
747+94375000000+94687500000+94687500000+94687500000+93750000000+92187500000
716+90625000000+90000000000+85625000000+74062500000+65625000000+65625000000
684+65625000000+66875000000+78750000000+87812500000+91562500000+92500000000
653+92187500000+92500000000+92500000000+92500000000+92812500000+93125000000
621+93750000000+94062500000+94375000000+94687500000+94375000000+93437500000
589+92187500000+90625000000+87812500000+83750000000+77187500000+71562500000
558+66875000000+63750000000+61250000000+60312500000+60312500000+61250000000
526+62500000000+64687500000+66875000000+70000000000+73125000000+75625000000
495+78437500000+81250000000+84375000000+87187500000+90000000000+91250000000
463+88750000000+83437500000+77187500000+70937500000+66250000000+62187500000
432+58750000000+55937500000+53750000000+51562500000+50000000000+48750000000
400+48124999999
##END=
