##TITLE=iodoethane
##JCAMP-DX=4.24
##DATA TYPE=INFRARED SPECTRUM
##DATE=10/06/2025
##SAMPLING PROCEDURE=ATR
##ORIGIN=SDBS
##XUNITS=1/CM
##YUNITS=TRANSMITTANCE
##RESOLUTION=5.2631578947368425
##FIRSTX=4000.0
##LASTX=400.0
##DELTAX=-5.2631578947368425
##MAXY=95.0
##MINY=0.0
##XFACTOR=1
##YFACTOR=1
##NPOINTS=685
##FIRSTY=0.0
##XYDATA=(X++(Y..Y))
4000+0+88437500000+88750000000+89375000000+89687500000+89687500000
3968+90000000000+90312500000+90625000000+90625000000+90625000000+90625000000
3937+90625000000+90625000000+90937500000+90937500000+90937500000+90937500000
3905+90937500000+90937500000+91250000000+91250000000+91250000000+91562500000
3874+91562500000+91562500000+91562500000+91875000000+91875000000+91875000000
3842+91875000000+91875000000+91875000000+91875000000+91875000000+91875000000
3811+91875000000+91562500000+91875000000+91875000000+91875000000+91875000000
3779+91875000000+91875000000+92187500000+92187500000+92500000000+92500000000
3747+92812500000+92812500000+92500000000+92500000000+92500000000+92500000000
3716+92812500000+92500000000+92500000000+92812500000+92812500000+92812500000
3684+92812500000+92812500000+93125000000+93125000000+93437500000+93750000000
3653+94062500000+94062500000+94062500000+94062500000+94062500000+94062500000
3621+94062500000+94062500000+93750000000+93437500000+93125000000+92500000000
3589+92187500000+92187500000+91875000000+91875000000+91562500000+91562500000
3558+91562500000+91562500000+91562500000+91875000000+91875000000+91875000000
3526+91562500000+91562500000+91562500000+91250000000+91250000000+91562500000
3495+91250000000+91250000000+90937500000+90625000000+90000000000+89375000000
3463+89062500000+89062500000+89062500000+89375000000+89687500000+89687500000
3432+90000000000+90000000000+90312500000+90937500000+90937500000+91250000000
3400+91250000000+91562500000+91562500000+91562500000+91250000000+90937500000
3368+90937500000+90937500000+90937500000+90625000000+90312500000+89375000000
3337+87500000000+84687500000+81875000000+74062500000+69375000000+70312500000
3305+69375000000+57500000000+36562500000+24687500000+24062500000+40625000000
3274+57500000000+69062500000+69687500000+61250000000+44687500000+40312499999
3242+44062500000+62500000000+72187500000+74375000000+74062500000+65625000000
3211+55625000000+55625000000+74062500000+83437500000+88125000000+89062500000
3179+89375000000+90312500000+91562500000+92500000000+93437500000+93750000000
3147+94062500000+94062500000+94062500000+93750000000+92500000000+89062500000
3116+89062500000+93125000000+94062500000+94062500000+94062500000+94062500000
3084+93750000000+93437500000+93125000000+92812500000+92812500000+92500000000
3053+92812500000+92812500000+93750000000+94062500000+94375000000+94375000000
3021+94375000000+94375000000+94375000000+94687500000+94687500000+94687500000
2989+95000000000+95000000000+95000000000+94687500000+94687500000+94375000000
2958+94375000000+94375000000+94375000000+94375000000+94375000000+94062500000
2926+93750000000+93437500000+92812500000+91875000000+87812500000+87500000000
2895+90937500000+92812500000+93437500000+94062500000+94375000000+94375000000
2863+94375000000+94375000000+94375000000+94375000000+94375000000+94375000000
2832+94375000000+94687500000+94687500000+94687500000+94687500000+94375000000
2800+94375000000+94062500000+94062500000+94062500000+94062500000+94062500000
2768+93750000000+93437500000+93125000000+92812500000+92812500000+92500000000
2737+91875000000+90937500000+89062500000+88750000000+88750000000+90312500000
2705+92187500000+93437500000+93750000000+94062500000+94062500000+94375000000
2674+94375000000+94375000000+94687500000+94687500000+94687500000+94375000000
2642+94375000000+94375000000+94375000000+94375000000+94375000000+94062500000
2611+94062500000+94062500000+94062500000+94062500000+93750000000+93750000000
2579+93750000000+93437500000+93437500000+93437500000+93437500000+93437500000
2547+93437500000+93437500000+93437500000+93437500000+93437500000+93437500000
2516+93437500000+93437500000+93437500000+93437500000+93125000000+93125000000
2484+93125000000+93125000000+93125000000+93125000000+93125000000+93437500000
2453+93437500000+93750000000+94062500000+94062500000+94062500000+94375000000
2421+94375000000+94375000000+94375000000+94375000000+94687500000+94375000000
2389+94375000000+94375000000+94375000000+94375000000+94375000000+94375000000
2358+94375000000+94375000000+94375000000+94375000000+94375000000+94375000000
2326+94375000000+94375000000+94375000000+94375000000+94375000000+94375000000
2295+94375000000+94062500000+94062500000+94062500000+94062500000+94062500000
2263+93750000000+93750000000+93437500000+93437500000+93437500000+93437500000
2232+93125000000+93125000000+93125000000+92812500000+92812500000+92812500000
2200+92812500000+92812500000+92500000000+92500000000+92500000000+92812500000
2168+92812500000+92812500000+92812500000+92812500000+93125000000+93125000000
2137+93125000000+93125000000+93125000000+93125000000+93125000000+93437500000
2105+93437500000+93437500000+93437500000+93750000000+93750000000+93750000000
2074+93437500000+93437500000+93437500000+93437500000+93437500000+93437500000
2042+93437500000+93437500000+93437500000+93125000000+93125000000+93125000000
2011+93125000000+93125000000+92812500000+92812500000+92812500000+92500000000
1979+92500000000+92187500000+91875000000+91562500000+91562500000+91250000000
1947+90625000000+90312500000+90000000000+89375000000+88750000000+88125000000
1916+87187500000+85937500000+84687500000+83125000000+81250000000+79375000000
1884+79062500000+78437500000+76250000000+72812500000+67187500000+61562500000
1853+57500000000+53437500000+44687500000+40312499999+40312499999+45937500000
1821+53125000000+59687500000+67187500000+72500000000+76250000000+78437500000
1789+79687500000+80312500000+80312500000+79687500000+77812500000+74687500000
1758+68437500000+60000000000+53750000000+54062500000+67812500000+79375000000
1726+85000000000+88125000000+89375000000+90312500000+90937500000+91250000000
1695+91562500000+91875000000+92187500000+92187500000+92187500000+92500000000
1663+92500000000+92500000000+92500000000+92500000000+92500000000+92187500000
1632+91875000000+91562500000+91250000000+90937500000+90625000000+90312500000
1600+89687500000+88750000000+87500000000+86250000000+85000000000+83125000000
1568+80937500000+78437500000+74687500000+69687500000+63750000000+57500000000
1537+48437500000+36875000000+24687500000+17500000000+12187500000+6250000000
1505+4687500000+5625000000+13750000000+31875000000+50937500000+64062500000
1474+68750000000+75937500000+79375000000+81250000000+83437500000+86250000000
1442+88125000000+88750000000+88750000000+89062500000+89687500000+90625000000
1411+91562500000+91875000000+92187500000+92500000000+92500000000+92812500000
1379+92812500000+92812500000+92812500000+92500000000+92500000000+92187500000
1347+92187500000+92187500000+92187500000+92187500000+92187500000+92187500000
1316+92187500000+92187500000+91875000000+91875000000+91875000000+91875000000
1284+91875000000+91875000000+91875000000+91875000000+91562500000+91250000000
1253+90625000000+89687500000+88125000000+85625000000+83437500000+81875000000
1221+81875000000+82187500000+82812500000+83437500000+83750000000+83437500000
1189+82187500000+80625000000+77500000000+71875000000+60937500000+41562500000
1158+31875000000+34375000000+54062500000+63125000000+70312500000+78750000000
1126+84687500000+87500000000+89687500000+90937500000+91875000000+92187500000
1095+92812500000+93125000000+93125000000+93437500000+93750000000+93750000000
1063+94062500000+94062500000+94062500000+94062500000+94062500000+94062500000
1032+94062500000+94062500000+94062500000+94062500000+94062500000+93750000000
1000+93750000000+93750000000+93750000000+93750000000+93750000000+93750000000
968+93437500000+93437500000+93437500000+93125000000+93125000000+93125000000
937+92812500000+92500000000+91875000000+91562500000+90625000000+89687500000
905+88125000000+86250000000+83750000000+79375000000+74062500000+69062500000
874+63750000000+61875000000+62500000000+70000000000+77500000000+83125000000
842+85937500000+87812500000+89062500000+90000000000+90625000000+91250000000
811+91562500000+91875000000+91875000000+91562500000+88750000000+83750000000
779+83750000000+88750000000+92187500000+93750000000+94062500000+94375000000
747+94375000000+94687500000+94687500000+94375000000+94375000000+94375000000
716+94375000000+94375000000+94375000000+94375000000+94375000000+94687500000
684+94687500000+94687500000+94687500000+94687500000+94687500000+94687500000
653+94687500000+94687500000+95000000000+95000000000+94687500000+94687500000
621+94687500000+94375000000+94375000000+94062500000+94062500000+93750000000
589+93750000000+93437500000+93125000000+92500000000+91875000000+90937500000
558+89375000000+85937500000+79687500000+68750000000+48437500000+45312500000
526+49687499999+66875000000+77500000000+83437500000+86250000000+88437500000
495+89375000000+89062500000+88437500000+87812500000+87187500000+86562500000
463+85937500000+85000000000+84062500000+82812500000+81875000000+80312500000
432+78437500000+76562500000+75000000000+73437500000+72187500000+71250000000
400+70937500000
##END=
