##TITLE=iodoform
##JCAMP-DX=4.24
##DATA TYPE=INFRARED SPECTRUM
##DATE=10/06/2025
##SAMPLING PROCEDURE=ATR
##ORIGIN=SDBS
##XUNITS=1/CM
##YUNITS=TRANSMITTANCE
##RESOLUTION=5.2631578947368425
##FIRSTX=4000.0
##LASTX=400.0
##DELTAX=-5.2631578947368425
##MAXY=94.6875
##MINY=0.0
##XFACTOR=1
##YFACTOR=1
##NPOINTS=685
##FIRSTY=0.0
##XYDATA=(X++(Y..Y))
4000+0+61875000000+61875000000+61875000000+62187500000+62187500000
3968+62187500000+61875000000+61875000000+61875000000+62187500000+62187500000
3937+62187500000+62187500000+62187500000+62187500000+62187500000+62187500000
3905+62500000000+62500000000+62812500000+62812500000+62812500000+62812500000
3874+62812500000+62500000000+62500000000+62500000000+62812500000+62812500000
3842+62812500000+63125000000+63437500000+63125000000+63125000000+63125000000
3811+63125000000+63125000000+63125000000+63437500000+63750000000+63750000000
3779+63750000000+63437500000+63437500000+63437500000+63437500000+63437500000
3747+63437500000+63437500000+63125000000+63125000000+63125000000+63125000000
3716+63437500000+63437500000+63437500000+63437500000+63750000000+63750000000
3684+63750000000+63437500000+63125000000+63125000000+63125000000+63125000000
3653+63125000000+63125000000+62812500000+62812500000+62812500000+62812500000
3621+63125000000+63125000000+63125000000+63125000000+63125000000+63125000000
3589+62812500000+62812500000+62812500000+62812500000+62812500000+62812500000
3558+62812500000+62812500000+62812500000+62812500000+62812500000+62812500000
3526+62812500000+62812500000+63125000000+63125000000+63125000000+63125000000
3495+63125000000+63125000000+62812500000+62500000000+62500000000+62812500000
3463+62812500000+62812500000+62812500000+62812500000+62812500000+62812500000
3432+62812500000+62812500000+62812500000+63125000000+63125000000+63437500000
3400+63437500000+63437500000+63437500000+63750000000+63750000000+63750000000
3368+63750000000+63437500000+63437500000+63125000000+62500000000+62187500000
3337+61250000000+60937500000+59687500000+58750000000+56562500000+53750000000
3305+50625000000+45937500000+38125000000+22500000000+15000000000+10312500000
3274+9062500000+9375000000+6875000000+5000000000+4687500000+5312500000
3242+8750000000+12812500000+16875000000+21250000000+22500000000+18750000000
3211+16562500000+14375000000+15312500000+27187500000+47187500000+60937500000
3179+67500000000+70312500000+72187500000+73437500000+74062500000+74687500000
3147+75312500000+75625000000+75937500000+75625000000+75312500000+74687500000
3116+74687500000+74687500000+74687500000+74687500000+74687500000+74687500000
3084+74687500000+74687500000+74687500000+74687500000+74687500000+75000000000
3053+75312500000+75625000000+75625000000+75937500000+76250000000+76250000000
3021+76562500000+76562500000+76875000000+77187500000+77500000000+77500000000
2989+77812500000+77812500000+77812500000+78125000000+78125000000+78125000000
2958+78437500000+78750000000+78750000000+78750000000+78750000000+79062500000
2926+79062500000+79062500000+79375000000+79375000000+79375000000+79375000000
2895+79375000000+79375000000+79687500000+79687500000+79687500000+80000000000
2863+80000000000+80000000000+80000000000+80000000000+80312500000+80312500000
2832+80312500000+80312500000+80625000000+80625000000+80625000000+80937500000
2800+80937500000+80937500000+80937500000+80937500000+80937500000+81250000000
2768+81250000000+81562500000+81562500000+81562500000+81562500000+81875000000
2737+81875000000+81875000000+81875000000+82187500000+82500000000+82500000000
2705+82500000000+82812500000+82812500000+82812500000+82812500000+82812500000
2674+82812500000+83125000000+83125000000+83125000000+83125000000+83437500000
2642+83437500000+83437500000+83437500000+83750000000+83750000000+84062500000
2611+84062500000+84375000000+84375000000+84375000000+84375000000+84375000000
2579+84375000000+84375000000+84375000000+84375000000+84375000000+84375000000
2547+84375000000+84687500000+84687500000+84687500000+84687500000+85000000000
2516+85000000000+85000000000+85000000000+85000000000+85000000000+85000000000
2484+85000000000+85000000000+85000000000+85000000000+85312500000+85312500000
2453+85312500000+85312500000+85312500000+85312500000+85312500000+85312500000
2421+85312500000+85312500000+85625000000+85625000000+85625000000+85625000000
2389+85625000000+85937500000+85937500000+85937500000+85937500000+85937500000
2358+85937500000+85937500000+85937500000+85937500000+85937500000+85937500000
2326+85937500000+86250000000+86250000000+86250000000+86250000000+86250000000
2295+86250000000+86250000000+86562500000+86562500000+86562500000+86562500000
2263+86562500000+86562500000+86562500000+86562500000+86562500000+86562500000
2232+86250000000+86250000000+86250000000+86250000000+86250000000+86250000000
2200+86250000000+86250000000+86250000000+86250000000+86250000000+86250000000
2168+86250000000+86250000000+86250000000+86250000000+86250000000+85937500000
2137+85937500000+85937500000+85625000000+85625000000+85625000000+85937500000
2105+85937500000+86250000000+86250000000+86562500000+86562500000+86562500000
2074+86875000000+86875000000+87187500000+87187500000+87187500000+87500000000
2042+87500000000+87500000000+87187500000+87187500000+87187500000+87187500000
2011+87187500000+87187500000+86875000000+86875000000+86875000000+86875000000
1979+86875000000+86562500000+86562500000+86562500000+86250000000+86250000000
1947+85937500000+85625000000+85625000000+85000000000+84687500000+84375000000
1916+84062500000+83437500000+82187500000+80625000000+78125000000+73750000000
1884+66250000000+55000000000+44687500000+43750000000+43750000000+44999999999
1853+46875000000+52812500000+57812500000+63750000000+69375000000+74375000000
1821+80000000000+83437500000+85000000000+85625000000+86250000000+86250000000
1789+86250000000+85937500000+85000000000+84062500000+81562500000+75625000000
1758+69687500000+60625000000+58437500000+60937500000+71875000000+73125000000
1726+75937500000+80625000000+82187500000+82812500000+83125000000+83437500000
1695+84062500000+84687500000+85312500000+85937500000+86250000000+85937500000
1663+85937500000+85937500000+85937500000+85937500000+85937500000+86250000000
1632+86250000000+86562500000+86562500000+86875000000+86875000000+87187500000
1600+87187500000+87500000000+87500000000+87500000000+87812500000+87812500000
1568+88125000000+88437500000+88437500000+88750000000+88750000000+89062500000
1537+89062500000+89062500000+89062500000+89062500000+89375000000+89375000000
1505+89687500000+89687500000+90000000000+89687500000+89375000000+88750000000
1474+88437500000+87812500000+87500000000+87500000000+87500000000+87500000000
1442+87812500000+88125000000+88437500000+88750000000+89375000000+89687500000
1411+90312500000+90625000000+90937500000+91250000000+91250000000+91250000000
1379+91250000000+91562500000+91875000000+92187500000+92812500000+93125000000
1347+93437500000+93750000000+93750000000+84062500000+51250000000+31562500000
1316+31562500000+39062500000+53125000000+66562500000+74375000000+78125000000
1284+80937500000+82187500000+82812500000+83437500000+84375000000+84687500000
1253+85000000000+85625000000+85937500000+86250000000+86875000000+87187500000
1221+87500000000+87500000000+87500000000+87500000000+87500000000+87500000000
1189+87500000000+87500000000+87500000000+87812500000+87812500000+88125000000
1158+88125000000+88125000000+88125000000+88437500000+88437500000+88437500000
1126+88750000000+88750000000+89062500000+89375000000+89375000000+89687500000
1095+89687500000+89687500000+89687500000+89375000000+89375000000+89375000000
1063+89375000000+89375000000+89687500000+89687500000+90000000000+90312500000
1032+90312500000+90625000000+90937500000+90937500000+91250000000+91250000000
1000+91562500000+91562500000+91562500000+91250000000+91250000000+90937500000
968+90937500000+91250000000+91250000000+91250000000+91562500000+91562500000
937+91562500000+91562500000+91562500000+91562500000+91562500000+91562500000
905+91562500000+91562500000+91562500000+91250000000+90937500000+90312500000
874+89687500000+88750000000+87812500000+87187500000+86562500000+85937500000
842+85937500000+86250000000+88125000000+90312500000+91562500000+92187500000
811+92812500000+93125000000+93125000000+93125000000+93437500000+93437500000
779+93125000000+93125000000+93125000000+93125000000+93125000000+93437500000
747+93437500000+93437500000+93437500000+93437500000+93437500000+93437500000
716+93125000000+93125000000+93125000000+93125000000+93125000000+93437500000
684+93750000000+94062500000+94375000000+94687500000+94375000000+91562500000
653+77187500000+64062500000+50625000000+33125000000+30937500000+41250000000
621+58125000000+70625000000+76875000000+80937500000+84062500000+86562500000
589+87812500000+88125000000+88437500000+88750000000+89375000000+90000000000
558+90625000000+90937500000+90625000000+90000000000+89687500000+89375000000
526+89375000000+89375000000+89375000000+89375000000+89375000000+89687500000
495+90000000000+90312500000+90625000000+90625000000+90937500000+91562500000
463+92500000000+92812500000+93125000000+93750000000+94375000000+93437500000
432+90625000000+85312500000+79375000000+71875000000+65312500000+60625000000
400+58750000000
##END=
