##TITLE=isopentyl 2-furoate
##JCAMP-DX=4.24
##DATA TYPE=INFRARED SPECTRUM
##DATE=10/06/2025
##SAMPLING PROCEDURE=ATR
##ORIGIN=SDBS
##XUNITS=1/CM
##YUNITS=TRANSMITTANCE
##RESOLUTION=5.2631578947368425
##FIRSTX=4000.0
##LASTX=400.0
##DELTAX=-5.2631578947368425
##MAXY=95.0
##MINY=0.0
##XFACTOR=1
##YFACTOR=1
##NPOINTS=685
##FIRSTY=0.0
##XYDATA=(X++(Y..Y))
4000+0+93125000000+93125000000+93437500000+93750000000+93750000000
3968+93750000000+93750000000+93437500000+93125000000+93125000000+93125000000
3937+93125000000+93125000000+93437500000+93125000000+92812500000+92812500000
3905+92812500000+92812500000+92812500000+93125000000+93437500000+93750000000
3874+93437500000+93437500000+93437500000+93437500000+93437500000+93750000000
3842+93437500000+93125000000+93125000000+92812500000+92812500000+92812500000
3811+93125000000+92812500000+92812500000+92500000000+91875000000+91562500000
3779+90625000000+90000000000+89687500000+89062500000+88437500000+87500000000
3747+86875000000+86250000000+85312500000+84687500000+84062500000+83437500000
3716+82500000000+81250000000+80000000000+78750000000+78125000000+77500000000
3684+77187500000+76562500000+75937500000+75625000000+75312500000+75312500000
3653+75000000000+75000000000+74687500000+74687500000+74375000000+74062500000
3621+73750000000+73750000000+73750000000+73750000000+73750000000+73750000000
3589+74062500000+74687500000+75000000000+75312500000+75312500000+75625000000
3558+75312500000+75312500000+75000000000+75000000000+75000000000+74687500000
3526+74375000000+73750000000+73437500000+73125000000+72812500000+72500000000
3495+72187500000+71875000000+71562500000+71562500000+71250000000+70937500000
3463+70312500000+70000000000+69687500000+69687500000+69375000000+69375000000
3432+68750000000+68437500000+64687500000+64062500000+60625000000+60312500000
3400+60312500000+61875000000+61875000000+65000000000+69687500000+72500000000
3368+74062500000+74687500000+75000000000+75000000000+74687500000+74375000000
3337+74375000000+74062500000+73437500000+72500000000+70312500000+66562500000
3305+60625000000+51562500000+38125000000+25625000000+13750000000+10937500000
3274+11250000000+16875000000+23437500000+23750000000+25000000000+29687500000
3242+32187500000+33125000000+36562500000+39687500000+31875000000+30937500000
3211+37187499999+51250000000+61250000000+65937500000+70000000000+74062500000
3179+76562500000+77187500000+79375000000+80000000000+80937500000+81562500000
3147+81875000000+82187500000+83750000000+84687500000+84687500000+84687500000
3116+84687500000+84687500000+85000000000+85312500000+85625000000+85625000000
3084+85625000000+85625000000+84687500000+83750000000+83750000000+83750000000
3053+85000000000+85937500000+86250000000+86250000000+85937500000+85937500000
3021+86250000000+86875000000+87187500000+87187500000+86875000000+86875000000
2989+87187500000+87500000000+88125000000+88125000000+88125000000+88125000000
2958+88125000000+88437500000+88750000000+89062500000+89062500000+89062500000
2926+89687500000+90625000000+90937500000+90625000000+90312500000+90312500000
2895+90312500000+90625000000+90937500000+91562500000+91875000000+92187500000
2863+92187500000+92187500000+92500000000+92500000000+92500000000+92500000000
2832+92812500000+92812500000+93125000000+93125000000+93437500000+93437500000
2800+93750000000+94062500000+93750000000+93437500000+93437500000+93437500000
2768+93437500000+93750000000+94062500000+94062500000+94375000000+94375000000
2737+94687500000+95000000000+94687500000+94687500000+94375000000+94375000000
2705+94375000000+94062500000+93437500000+93125000000+92812500000+92812500000
2674+92812500000+92812500000+93125000000+93437500000+93750000000+94062500000
2642+94062500000+93750000000+93750000000+93437500000+93437500000+93437500000
2611+93437500000+93437500000+93437500000+93437500000+93437500000+93437500000
2579+93437500000+93437500000+93437500000+93437500000+93125000000+93125000000
2547+93125000000+93125000000+92812500000+92812500000+92812500000+92812500000
2516+92812500000+92812500000+92812500000+92812500000+92812500000+92812500000
2484+92812500000+92812500000+92500000000+92500000000+92187500000+92187500000
2453+91875000000+91562500000+91562500000+91562500000+91562500000+91250000000
2421+91250000000+91250000000+91250000000+91250000000+90937500000+90937500000
2389+90312500000+89687500000+89062500000+88125000000+87187500000+85937500000
2358+84375000000+82500000000+80000000000+76875000000+73437500000+69687500000
2326+66250000000+63750000000+61875000000+60937500000+58437500000+56875000000
2295+54687500000+51562500000+48437500000+43750000000+38125000000+30312500000
2263+21250000000+13750000000+9375000000+6562500000+5625000000+5312500000
2232+5312500000+5625000000+5937500000+6562500000+8437500000+11250000000
2200+15937500000+20625000000+25312500000+28437500000+32500000000+38125000000
2168+44375000000+49687499999+55312500000+60000000000+63750000000+66562500000
2137+68750000000+70937500000+71875000000+72500000000+73125000000+74062500000
2105+75000000000+75625000000+75937500000+76562500000+76875000000+77187500000
2074+77812500000+78125000000+78437500000+77500000000+76250000000+71875000000
2042+61250000000+35625000000+29062500000+35625000000+45625000000+41562500000
2011+50312500000+71250000000+81250000000+84375000000+86250000000+86875000000
1979+86250000000+85312500000+83125000000+81875000000+80937500000+80000000000
1947+79687500000+79687500000+80000000000+80312500000+80312500000+78750000000
1916+75937500000+68437500000+53750000000+31562500000+20625000000+15625000000
1884+14062500000+14375000000+17812500000+25000000000+32500000000+40937500000
1853+47187500000+54375000000+60937500000+66562500000+68437500000+66562500000
1821+65937500000+65937500000+65312500000+63125000000+58437500000+51250000000
1789+39687500000+29375000000+26875000000+29062500000+35625000000+36250000000
1758+36562500000+41874999999+48437500000+46562499999+41250000000+44375000000
1726+52812500000+54687500000+57500000000+55312500000+53125000000+53437500000
1695+51562500000+50000000000+50000000000+48750000000+41562500000+32187500000
1663+21875000000+14687500000+10000000000+6875000000+5000000000+4687500000
1632+5312500000+9375000000+16875000000+26562500000+33437500000+36562500000
1600+39062500000+42812500000+45625000000+47187500000+47812500000+47500000000
1568+46250000000+44687500000+40625000000+31562500000+22187500000+22187500000
1537+32500000000+42187500000+46875000000+47812500000+47187500000+45625000000
1505+40625000000+34062500000+25625000000+17812500000+10312500000+8125000000
1474+8437500000+11250000000+12500000000+13437500000+19062500000+29375000000
1442+38749999999+43437499999+44687500000+45312500000+41562500000+33125000000
1411+24062500000+15937500000+10937500000+9062500000+9062500000+10312500000
1379+16875000000+27500000000+41874999999+51875000000+57812500000+60312500000
1347+60000000000+50625000000+37812500000+36562500000+42500000000+55000000000
1316+58437500000+58125000000+57812500000+57500000000+57812500000+58750000000
1284+60312500000+62500000000+64375000000+63125000000+57187500000+47500000000
1253+34687500000+27187500000+27187500000+37187499999+52500000000+59687500000
1221+65000000000+67187500000+66250000000+65000000000+62500000000+57500000000
1189+54062500000+50937500000+48750000000+48437500000+48124999999+48124999999
1158+48124999999+49062500000+52500000000+57812500000+61875000000+62500000000
1126+62500000000+63125000000+64375000000+68437500000+71250000000+71562500000
1095+74687500000+77812500000+79687500000+77187500000+69062500000+37500000000
1063+40000000000+70000000000+77187500000+81250000000+84375000000+84687500000
1032+84375000000+83437500000+82187500000+80625000000+79375000000+78750000000
1000+78750000000+78125000000+77812500000+77187500000+77187500000+76562500000
968+75312500000+74062500000+73125000000+73125000000+75312500000+75937500000
937+71875000000+65625000000+56562500000+47500000000+36250000000+25625000000
905+18437500000+17500000000+17812500000+23437500000+35000000000+47500000000
874+62500000000+74375000000+80937500000+84062500000+85000000000+85937500000
842+85625000000+85625000000+85625000000+86562500000+88437500000+91562500000
811+91250000000+91250000000+92812500000+93750000000+94062500000+94687500000
779+94687500000+94687500000+94375000000+94375000000+94375000000+94375000000
747+94687500000+94687500000+94687500000+94687500000+94375000000+93437500000
716+91875000000+89375000000+82500000000+72500000000+68125000000+68750000000
684+72812500000+79062500000+69375000000+54687500000+54687500000+75937500000
653+85625000000+88125000000+89062500000+89375000000+90625000000+91562500000
621+92187500000+92500000000+93125000000+93125000000+93125000000+92500000000
589+91875000000+91562500000+90937500000+90625000000+90625000000+90625000000
558+90312500000+89687500000+89062500000+88125000000+87187500000+86250000000
526+85937500000+85625000000+85312500000+85000000000+84687500000+84687500000
495+85000000000+85937500000+87187500000+88437500000+89687500000+90937500000
463+92187500000+92812500000+92812500000+92187500000+91250000000+89687500000
432+86875000000+83437500000+80312500000+76250000000+72812500000+70625000000
400+69687500000
##END=
