##TITLE=L-leucine
##JCAMP-DX=4.24
##DATA TYPE=INFRARED SPECTRUM
##DATE=10/06/2025
##SAMPLING PROCEDURE=ATR
##ORIGIN=SDBS
##XUNITS=1/CM
##YUNITS=TRANSMITTANCE
##RESOLUTION=5.2631578947368425
##FIRSTX=4000.0
##LASTX=400.0
##DELTAX=-5.2631578947368425
##MAXY=95.0
##MINY=0.0
##XFACTOR=1
##YFACTOR=1
##NPOINTS=685
##FIRSTY=0.0
##XYDATA=(X++(Y..Y))
4000+0+92187500000+92187500000+92500000000+92500000000+92500000000
3968+92500000000+92500000000+92812500000+92812500000+92812500000+92812500000
3937+92812500000+92812500000+92812500000+92812500000+92812500000+92500000000
3905+92812500000+92812500000+93125000000+93125000000+93125000000+93125000000
3874+93125000000+93125000000+93125000000+93437500000+93437500000+93437500000
3842+93750000000+93750000000+93750000000+93750000000+93750000000+93750000000
3811+93750000000+94062500000+94062500000+94375000000+94375000000+94062500000
3779+94062500000+94062500000+94062500000+94062500000+94062500000+94062500000
3747+94062500000+94062500000+94062500000+94062500000+94062500000+94062500000
3716+94375000000+94375000000+94062500000+94062500000+94062500000+94375000000
3684+94375000000+94062500000+93750000000+93750000000+93437500000+93437500000
3653+93125000000+93125000000+92812500000+92812500000+92812500000+92812500000
3621+92812500000+92812500000+92812500000+92812500000+92812500000+93125000000
3589+93125000000+93437500000+93437500000+93437500000+93437500000+93437500000
3558+93437500000+93437500000+93437500000+93750000000+93750000000+93750000000
3526+93437500000+93437500000+93125000000+93125000000+92812500000+92812500000
3495+92812500000+92500000000+92500000000+92187500000+91875000000+91250000000
3463+90625000000+90000000000+89375000000+88437500000+87812500000+87187500000
3432+86250000000+85000000000+84062500000+83125000000+81875000000+80312500000
3400+78750000000+78125000000+76250000000+74687500000+73437500000+72187500000
3368+70625000000+69687500000+68750000000+67812500000+67187500000+66875000000
3337+65937500000+65625000000+64687500000+62812500000+60625000000+57812500000
3305+53125000000+47812500000+37812500000+26875000000+14375000000+9375000000
3274+8125000000+8437500000+7500000000+5312500000+4687500000+4687500000
3242+6875000000+9375000000+12187500000+15000000000+16250000000+13750000000
3211+12812500000+10937500000+11250000000+18750000000+35000000000+49375000000
3179+57812500000+62500000000+65937500000+68437500000+70312500000+72187500000
3147+74375000000+75625000000+76250000000+75625000000+75312500000+74687500000
3116+74375000000+74687500000+75000000000+75625000000+75937500000+76250000000
3084+76875000000+77500000000+78125000000+78437500000+78125000000+77500000000
3053+76875000000+76562500000+76562500000+76562500000+77187500000+77500000000
3021+78125000000+78750000000+79375000000+80312500000+81250000000+81875000000
2989+82500000000+83125000000+83750000000+84375000000+85312500000+85937500000
2958+86875000000+87500000000+88125000000+88437500000+88750000000+89062500000
2926+89062500000+89375000000+89375000000+89687500000+90000000000+90312500000
2895+90625000000+90937500000+91250000000+91562500000+91875000000+91875000000
2863+91875000000+91875000000+91875000000+92187500000+92187500000+92187500000
2832+92187500000+92187500000+92500000000+92500000000+92812500000+92812500000
2800+92812500000+93125000000+93125000000+93125000000+93125000000+93125000000
2768+93125000000+93125000000+93125000000+93125000000+92812500000+92500000000
2737+92187500000+91875000000+91562500000+91250000000+90937500000+90625000000
2705+90312500000+90312500000+90312500000+90625000000+90937500000+91562500000
2674+91875000000+92187500000+92812500000+93125000000+93125000000+93437500000
2642+93750000000+94062500000+94062500000+94375000000+94375000000+94375000000
2611+94375000000+94375000000+94687500000+94687500000+94687500000+94687500000
2579+94687500000+94687500000+94687500000+94687500000+94687500000+94687500000
2547+94687500000+94687500000+94687500000+94687500000+94687500000+94687500000
2516+95000000000+95000000000+94687500000+94687500000+94687500000+94687500000
2484+94687500000+94687500000+94687500000+94687500000+94687500000+94687500000
2453+94687500000+94687500000+94687500000+94687500000+94375000000+94375000000
2421+94375000000+94375000000+94375000000+94375000000+94375000000+94687500000
2389+94687500000+94687500000+94687500000+94687500000+94687500000+94687500000
2358+94687500000+94687500000+94687500000+94375000000+94375000000+94375000000
2326+94375000000+94375000000+94375000000+94375000000+94375000000+94375000000
2295+94375000000+94062500000+94062500000+94062500000+93750000000+93750000000
2263+93750000000+93437500000+93437500000+93437500000+93437500000+93437500000
2232+93125000000+93125000000+93125000000+92812500000+92812500000+92812500000
2200+92812500000+92812500000+92500000000+92500000000+92187500000+91875000000
2168+91562500000+91250000000+90937500000+90312500000+90000000000+89375000000
2137+88750000000+88125000000+86250000000+84062500000+81250000000+78125000000
2105+75937500000+72812500000+69375000000+67812500000+66250000000+62187500000
2074+58750000000+58750000000+60625000000+62500000000+58125000000+52812500000
2042+48750000000+44999999999+44687500000+45312500000+49687499999+55000000000
2011+60312500000+63125000000+63125000000+63437500000+66875000000+71250000000
1979+74375000000+76250000000+76562500000+74062500000+70312500000+64687500000
1947+58125000000+53125000000+52812500000+53750000000+59687500000+65312500000
1916+69062500000+71875000000+74062500000+75000000000+73125000000+67812500000
1884+57812500000+45312500000+35312500000+33750000000+33750000000+33750000000
1853+34375000000+40937500000+46250000000+52187500000+55937500000+64375000000
1821+73437500000+78125000000+76875000000+69062500000+59062500000+55312500000
1789+54062500000+56875000000+66875000000+73437500000+72812500000+60000000000
1758+56562500000+49062500000+46250000000+47812500000+57812500000+56562500000
1726+57187500000+62812500000+69062500000+70000000000+69375000000+69375000000
1695+70625000000+74687500000+78750000000+80937500000+79375000000+76562500000
1663+74375000000+74062500000+78437500000+81250000000+77812500000+73125000000
1632+74062500000+81562500000+84375000000+85625000000+86250000000+86875000000
1600+87187500000+87500000000+87812500000+88125000000+88125000000+88125000000
1568+87500000000+85937500000+84687500000+84687500000+87500000000+88437500000
1537+89062500000+89375000000+89375000000+89687500000+89375000000+89375000000
1505+89062500000+88437500000+86875000000+84375000000+84375000000+84687500000
1474+84375000000+84687500000+84687500000+85625000000+85937500000+86562500000
1442+85937500000+85625000000+85000000000+84375000000+84375000000+84062500000
1411+84375000000+84687500000+86250000000+87187500000+88437500000+89375000000
1379+90000000000+90312500000+90625000000+90312500000+90000000000+90000000000
1347+89687500000+89687500000+89375000000+89375000000+89687500000+89687500000
1316+90000000000+90000000000+90312500000+90312500000+90000000000+89687500000
1284+89375000000+89375000000+89375000000+89375000000+89375000000+89062500000
1253+89062500000+89062500000+89062500000+89062500000+89062500000+89375000000
1221+89687500000+90000000000+90000000000+90000000000+90000000000+90000000000
1189+90000000000+89687500000+89687500000+89687500000+89375000000+89062500000
1158+89062500000+88750000000+88750000000+88750000000+88437500000+88125000000
1126+88125000000+88125000000+88125000000+88437500000+89375000000+90000000000
1095+90625000000+91562500000+91875000000+92187500000+92500000000+92812500000
1063+92812500000+93125000000+93125000000+93125000000+93125000000+92812500000
1032+92187500000+90937500000+87812500000+82812500000+83125000000+89062500000
1000+88125000000+86875000000+89687500000+93125000000+93437500000+93750000000
968+93750000000+93750000000+93750000000+93750000000+93750000000+93750000000
937+93437500000+92812500000+91875000000+91562500000+91250000000+90625000000
905+90625000000+91250000000+91562500000+91562500000+91875000000+91562500000
874+90937500000+90312500000+89375000000+88437500000+86562500000+85312500000
842+85000000000+85312500000+87812500000+90625000000+92187500000+93437500000
811+94062500000+94375000000+94687500000+94687500000+94375000000+93437500000
779+91250000000+86250000000+84375000000+84375000000+88750000000+91875000000
747+93125000000+94062500000+94375000000+94687500000+94687500000+94375000000
716+94375000000+94375000000+94375000000+94687500000+94687500000+94687500000
684+94687500000+94687500000+94375000000+94375000000+94375000000+94062500000
653+94062500000+94062500000+94062500000+94062500000+94062500000+94375000000
621+94687500000+94687500000+94687500000+94062500000+92500000000+88437500000
589+84687500000+84062500000+84062500000+85937500000+87187500000+88125000000
558+89375000000+90625000000+91562500000+92187500000+92812500000+93125000000
526+92812500000+92812500000+92500000000+92500000000+92187500000+92187500000
495+92187500000+92187500000+91875000000+91875000000+91562500000+90937500000
463+90625000000+90625000000+90625000000+90625000000+90937500000+91250000000
432+90937500000+89062500000+87500000000+85312500000+83125000000+81562500000
400+81250000000
##END=
