##TITLE=L-proline
##JCAMP-DX=4.24
##DATA TYPE=INFRARED SPECTRUM
##DATE=10/06/2025
##SAMPLING PROCEDURE=ATR
##ORIGIN=SDBS
##XUNITS=1/CM
##YUNITS=TRANSMITTANCE
##RESOLUTION=5.2631578947368425
##FIRSTX=4000.0
##LASTX=400.0
##DELTAX=-5.2631578947368425
##MAXY=95.0
##MINY=0.0
##XFACTOR=1
##YFACTOR=1
##NPOINTS=685
##FIRSTY=0.0
##XYDATA=(X++(Y..Y))
4000+0+94375000000+94375000000+94375000000+94375000000+94375000000
3968+94375000000+94375000000+94375000000+94375000000+94375000000+94375000000
3937+94375000000+94375000000+94375000000+94687500000+94687500000+94687500000
3905+94687500000+94687500000+94687500000+94687500000+94687500000+94687500000
3874+94687500000+94687500000+94687500000+94687500000+94687500000+94687500000
3842+94687500000+94687500000+94687500000+95000000000+95000000000+95000000000
3811+94687500000+94687500000+94687500000+94687500000+94375000000+94375000000
3779+94375000000+94375000000+94062500000+93750000000+93437500000+92812500000
3747+92500000000+92187500000+91562500000+90937500000+90625000000+90000000000
3716+89375000000+88437500000+87812500000+86875000000+86250000000+85312500000
3684+84375000000+83437500000+82500000000+81875000000+80937500000+80312500000
3653+79375000000+78750000000+78125000000+77500000000+76875000000+76250000000
3621+75937500000+75625000000+75312500000+75000000000+75000000000+75000000000
3589+75000000000+75000000000+75000000000+75000000000+75312500000+75625000000
3558+75937500000+76250000000+76562500000+77187500000+77500000000+78125000000
3526+78750000000+79062500000+79375000000+79375000000+79687500000+79687500000
3495+79687500000+79687500000+79375000000+79062500000+78750000000+78437500000
3463+77812500000+77187500000+76250000000+75312500000+74062500000+73125000000
3432+71562500000+70312500000+69375000000+68125000000+66562500000+64687500000
3400+62812500000+60937500000+58125000000+54687500000+50937500000+47187500000
3368+42500000000+37500000000+32812500000+29687500000+28437500000+28437500000
3337+29375000000+31875000000+34687500000+37812500000+38749999999+37500000000
3305+38437500000+37187499999+28437500000+31562500000+40000000000+42500000000
3274+41562500000+43437499999+47187500000+49687499999+51250000000+53125000000
3242+54375000000+54687500000+55937500000+56562500000+56562500000+57187500000
3211+58750000000+59375000000+60000000000+59687500000+59375000000+57812500000
3179+55937500000+55000000000+54687500000+53750000000+52812500000+52812500000
3147+52812500000+54062500000+55625000000+56875000000+57812500000+58437500000
3116+58437500000+58750000000+58437500000+57812500000+57187500000+56250000000
3084+55625000000+55000000000+55000000000+54687500000+54687500000+54375000000
3053+54375000000+54375000000+54375000000+54375000000+54375000000+54375000000
3021+54375000000+54375000000+54687500000+54687500000+54687500000+54375000000
2989+54062500000+52812500000+52187500000+50937500000+50000000000+49687499999
2958+49687499999+50312500000+50937500000+51562500000+51875000000+51875000000
2926+52500000000+52500000000+51250000000+50000000000+48437500000+46875000000
2895+45937500000+45312500000+45312500000+45312500000+45625000000+46875000000
2863+48437500000+50000000000+51875000000+53125000000+54687500000+56250000000
2832+57812500000+59062500000+60625000000+62187500000+63750000000+65000000000
2800+66562500000+68125000000+69062500000+70625000000+71875000000+72812500000
2768+73750000000+75000000000+75625000000+76250000000+77187500000+78437500000
2737+79687500000+80937500000+81875000000+82500000000+83437500000+84062500000
2705+85000000000+85937500000+86875000000+87500000000+87812500000+88437500000
2674+88750000000+89062500000+89375000000+89687500000+90312500000+90937500000
2642+91250000000+91562500000+91875000000+91875000000+91875000000+91562500000
2611+91562500000+91562500000+91562500000+91562500000+91562500000+91562500000
2579+91562500000+91875000000+91875000000+91875000000+92187500000+92187500000
2547+92500000000+92812500000+92812500000+93125000000+93125000000+93437500000
2516+93437500000+93437500000+93750000000+93750000000+93750000000+94062500000
2484+94062500000+94062500000+94375000000+94375000000+94375000000+94375000000
2453+94687500000+94687500000+94687500000+94687500000+94687500000+94687500000
2421+94687500000+94687500000+94687500000+94687500000+94687500000+94687500000
2389+94375000000+94375000000+94375000000+94375000000+94375000000+94375000000
2358+94375000000+94375000000+94375000000+94375000000+94375000000+94375000000
2326+94062500000+94062500000+94062500000+94062500000+93750000000+93750000000
2295+93437500000+93437500000+93125000000+93125000000+92812500000+92812500000
2263+92812500000+92500000000+92187500000+92187500000+91875000000+91562500000
2232+91250000000+90937500000+90312500000+90000000000+89687500000+89062500000
2200+88437500000+87500000000+86562500000+85625000000+84375000000+83125000000
2168+81875000000+80312500000+78750000000+76875000000+74687500000+71875000000
2137+68437500000+63437500000+58437500000+51562500000+43125000000+33125000000
2105+23125000000+11875000000+7187500000+6875000000+6875000000+6562500000
2074+7187500000+11875000000+20625000000+28437500000+34375000000+36562500000
2042+33437500000+28125000000+21562500000+14375000000+9687500000+5937500000
2011+4687500000+4687500000+6250000000+9375000000+15000000000+22812500000
1979+31250000000+38437500000+46250000000+52500000000+58125000000+62187500000
1947+65937500000+69062500000+71250000000+72500000000+73437500000+73750000000
1916+74062500000+73750000000+73125000000+72187500000+69062500000+60312500000
1884+56250000000+57500000000+59375000000+57187500000+50937500000+44999999999
1853+37187499999+36250000000+41562500000+42812500000+43125000000+45312500000
1821+47500000000+46562499999+39687500000+30312500000+22812500000+20937500000
1789+20937500000+22187500000+26250000000+29375000000+25937500000+18750000000
1758+11875000000+10312500000+10625000000+17500000000+30937500000+42500000000
1726+50625000000+56875000000+62187500000+65937500000+68125000000+70625000000
1695+71250000000+70937500000+70625000000+70312500000+66562500000+62187500000
1663+62812500000+71250000000+74687500000+73125000000+62500000000+39687500000
1632+40937500000+48124999999+57500000000+67812500000+75625000000+79375000000
1600+81562500000+80312500000+78750000000+72812500000+71562500000+75625000000
1568+82500000000+84687500000+85625000000+86250000000+87187500000+87812500000
1537+88437500000+89375000000+90312500000+91250000000+91562500000+91875000000
1505+91875000000+91875000000+91875000000+91562500000+90937500000+90000000000
1474+88125000000+81875000000+74375000000+75312500000+81875000000+84687500000
1442+88125000000+90000000000+91250000000+91875000000+92500000000+92812500000
1411+92812500000+93125000000+93125000000+93125000000+92812500000+92500000000
1379+92187500000+91875000000+90937500000+90000000000+88125000000+81875000000
1347+73125000000+72812500000+80937500000+87500000000+90000000000+90312500000
1316+89375000000+86562500000+83437500000+82812500000+82500000000+81875000000
1284+76875000000+69375000000+67812500000+71875000000+83125000000+87812500000
1253+90000000000+90937500000+91875000000+91875000000+91562500000+90625000000
1221+89375000000+87500000000+84687500000+82500000000+82500000000+84375000000
1189+89062500000+92187500000+93125000000+92500000000+91250000000+86250000000
1158+80312500000+79062500000+82500000000+88437500000+91250000000+91250000000
1126+90625000000+88750000000+85000000000+81250000000+78750000000+84687500000
1095+85625000000+84375000000+87500000000+91562500000+90937500000+90000000000
1063+89687500000+90000000000+89687500000+88437500000+83750000000+80000000000
1032+79687500000+71875000000+64062500000+63750000000+67812500000+74375000000
1000+78437500000+80937500000+81875000000+83125000000+85625000000+87812500000
968+89062500000+89687500000+87812500000+82500000000+75625000000+75312500000
937+77500000000+77812500000+79375000000+84687500000+87812500000+90625000000
905+91562500000+92500000000+93437500000+94062500000+94375000000+94687500000
874+94687500000+94687500000+94687500000+94375000000+94062500000+93750000000
842+93125000000+92500000000+91562500000+90625000000+88750000000+85937500000
811+83750000000+82812500000+82812500000+83125000000+83125000000+82187500000
779+80625000000+79687500000+79062500000+79062500000+78750000000+77812500000
747+73750000000+66562500000+60000000000+58750000000+60937500000+68437500000
716+76562500000+82187500000+85000000000+87812500000+89062500000+90000000000
684+90937500000+91562500000+91875000000+92187500000+92187500000+91875000000
653+91562500000+91562500000+91562500000+91562500000+91562500000+91562500000
621+91875000000+92187500000+92187500000+92500000000+92812500000+92812500000
589+93125000000+93125000000+93125000000+93125000000+93125000000+93125000000
558+93125000000+92812500000+92812500000+92500000000+92187500000+92187500000
526+91875000000+91875000000+91250000000+90625000000+90000000000+88437500000
495+85937500000+82500000000+77187500000+67500000000+64062500000+71250000000
463+72500000000+74062500000+77187500000+81250000000+85312500000+87500000000
432+89687500000+90937500000+90312500000+89062500000+87500000000+86250000000
400+85937500000
##END=
