##TITLE=L-serine
##JCAMP-DX=4.24
##DATA TYPE=INFRARED SPECTRUM
##DATE=10/06/2025
##SAMPLING PROCEDURE=ATR
##ORIGIN=SDBS
##XUNITS=1/CM
##YUNITS=TRANSMITTANCE
##RESOLUTION=5.2631578947368425
##FIRSTX=4000.0
##LASTX=400.0
##DELTAX=-5.2631578947368425
##MAXY=95.0
##MINY=0.0
##XFACTOR=1
##YFACTOR=1
##NPOINTS=685
##FIRSTY=0.0
##XYDATA=(X++(Y..Y))
4000+0+92500000000+92500000000+92500000000+92812500000+92812500000
3968+92812500000+93125000000+93125000000+93125000000+93125000000+93125000000
3937+93125000000+93125000000+93437500000+93437500000+93437500000+93437500000
3905+93437500000+93750000000+93750000000+93437500000+93437500000+93750000000
3874+93750000000+93750000000+93750000000+93750000000+93750000000+93750000000
3842+93437500000+93437500000+93437500000+93437500000+93750000000+93750000000
3811+93750000000+93437500000+93437500000+93437500000+93437500000+93437500000
3779+93437500000+93125000000+93125000000+92812500000+92500000000+92187500000
3747+91875000000+91250000000+90937500000+90000000000+89375000000+88437500000
3716+87187500000+85937500000+84375000000+82187500000+79687500000+77187500000
3684+74062500000+70625000000+67812500000+65312500000+62812500000+60625000000
3653+58750000000+57500000000+56250000000+55000000000+54687500000+54062500000
3621+54062500000+54062500000+54062500000+54062500000+54375000000+54687500000
3589+55312500000+56250000000+57187500000+58437500000+60000000000+61562500000
3558+63125000000+65000000000+66562500000+68125000000+69375000000+70625000000
3526+71875000000+72500000000+73125000000+73437500000+73125000000+72500000000
3495+71250000000+70000000000+68437500000+67187500000+65625000000+64062500000
3463+62500000000+60937500000+60000000000+59062500000+58437500000+57187500000
3432+55000000000+52187500000+48750000000+45312500000+41562500000+38125000000
3400+34687500000+32500000000+30625000000+29062500000+28125000000+27812500000
3368+27812500000+27812500000+27812500000+27812500000+27812500000+27812500000
3337+27812500000+27812500000+28125000000+28125000000+28125000000+27812500000
3305+26250000000+25625000000+23437500000+19375000000+13437500000+10000000000
3274+9375000000+9687500000+7812500000+5312500000+4687500000+5000000000
3242+7812500000+10937500000+14062500000+17500000000+20000000000+18750000000
3211+17187500000+14375000000+14687500000+24062500000+35312500000+42187500000
3179+45937500000+48750000000+50625000000+52500000000+53750000000+54687500000
3147+54687500000+55312500000+55625000000+55000000000+54375000000+53750000000
3116+53437500000+54062500000+55625000000+56875000000+58437500000+59062500000
3084+60000000000+61562500000+63125000000+64062500000+64687500000+65312500000
3053+65625000000+65625000000+65312500000+64375000000+64062500000+64062500000
3021+64687500000+65625000000+67500000000+69062500000+70625000000+71875000000
2989+73750000000+75312500000+76875000000+78125000000+79062500000+79687500000
2958+80312500000+80625000000+80937500000+81250000000+81562500000+81562500000
2926+81875000000+82187500000+82812500000+83437500000+84062500000+84687500000
2895+85625000000+86250000000+86875000000+87500000000+88125000000+88437500000
2863+88750000000+89062500000+89375000000+89375000000+89687500000+90000000000
2832+90312500000+90312500000+90625000000+90625000000+90937500000+90937500000
2800+90625000000+90937500000+90937500000+91250000000+91562500000+91562500000
2768+91875000000+91875000000+92187500000+92187500000+92187500000+92500000000
2737+92187500000+92187500000+92187500000+91875000000+91562500000+91250000000
2705+91250000000+90937500000+90625000000+90625000000+90000000000+89687500000
2674+89375000000+89062500000+88437500000+88125000000+87500000000+86875000000
2642+86562500000+86562500000+86875000000+87500000000+88125000000+89062500000
2611+90000000000+90625000000+90937500000+91250000000+91875000000+91875000000
2579+92187500000+92500000000+92812500000+93125000000+93125000000+93437500000
2547+93750000000+93750000000+93750000000+94062500000+94062500000+94062500000
2516+94062500000+94062500000+94062500000+94375000000+94375000000+94375000000
2484+94375000000+94375000000+94687500000+94687500000+94687500000+94687500000
2453+94687500000+94687500000+94687500000+94687500000+94687500000+94687500000
2421+94687500000+94687500000+94687500000+94687500000+94687500000+94687500000
2389+94687500000+95000000000+95000000000+94687500000+94687500000+94687500000
2358+94687500000+94687500000+94375000000+94375000000+94375000000+94062500000
2326+94062500000+94062500000+93750000000+93750000000+93437500000+93125000000
2295+92812500000+92500000000+92187500000+91875000000+91562500000+90937500000
2263+90625000000+90000000000+89687500000+89062500000+88750000000+88125000000
2232+87500000000+86875000000+86250000000+85625000000+85000000000+84375000000
2200+83750000000+82812500000+81875000000+80312500000+79062500000+76875000000
2168+75000000000+71875000000+68750000000+64062500000+59375000000+55000000000
2137+50625000000+44062500000+36875000000+27500000000+21562500000+21250000000
2105+21875000000+18750000000+16562500000+15312500000+15312500000+15312500000
2074+14375000000+12187500000+10937500000+10312500000+10312500000+10937500000
2042+12812500000+15312500000+18750000000+22500000000+25937500000+29062500000
2011+33750000000+39062500000+44062500000+47812500000+51875000000+55312500000
1979+58750000000+60625000000+62812500000+64375000000+65625000000+65937500000
1947+65000000000+62187500000+59062500000+55937500000+53750000000+52500000000
1916+52500000000+53437500000+55312500000+50937500000+46562499999+44062500000
1884+35937500000+21875000000+20312500000+25937500000+36250000000+40625000000
1853+44375000000+49687499999+52187500000+52187500000+49687499999+47812500000
1821+46875000000+46250000000+45937500000+44687500000+41874999999+40937500000
1789+41562500000+47187500000+52187500000+51875000000+48124999999+42812500000
1758+40625000000+39375000000+39062500000+43437499999+51562500000+53437500000
1726+53750000000+49687499999+45937500000+44375000000+41874999999+40937500000
1695+41250000000+47187500000+54062500000+59687500000+64062500000+67500000000
1663+56562500000+52187500000+52187500000+44375000000+44999999999+58437500000
1632+70312500000+76875000000+80000000000+82812500000+84375000000+85312500000
1600+85625000000+85937500000+86250000000+86562500000+86562500000+85312500000
1568+84687500000+85312500000+86250000000+85000000000+83437500000+82500000000
1537+82187500000+81562500000+81562500000+82187500000+84375000000+86250000000
1505+87812500000+89062500000+89687500000+89375000000+88437500000+87187500000
1474+87187500000+87500000000+87500000000+87500000000+87187500000+87187500000
1442+86250000000+84375000000+83125000000+80000000000+75625000000+66562500000
1411+58750000000+54687500000+53437500000+54687500000+62812500000+70937500000
1379+76562500000+79062500000+79375000000+75625000000+70937500000+64687500000
1347+60312500000+60625000000+66875000000+74687500000+80312500000+84062500000
1316+85625000000+86250000000+86562500000+86875000000+86250000000+85312500000
1284+84062500000+81875000000+76250000000+73750000000+72812500000+63437500000
1253+49062500000+40625000000+40000000000+46562499999+60625000000+69375000000
1221+76562500000+80937500000+83125000000+83437500000+83437500000+82187500000
1189+80625000000+78750000000+78750000000+80312500000+84687500000+87812500000
1158+89687500000+90937500000+91562500000+90937500000+89687500000+86875000000
1126+81562500000+68125000000+55000000000+55000000000+66250000000+76250000000
1095+82187500000+85000000000+86250000000+88125000000+89687500000+90000000000
1063+90312500000+90625000000+90625000000+90312500000+89687500000+87812500000
1032+82812500000+70312500000+69375000000+76875000000+85312500000+89062500000
1000+90312500000+91562500000+92187500000+92500000000+92812500000+92812500000
968+92187500000+90937500000+77500000000+71250000000+82812500000+90312500000
937+91250000000+92500000000+93125000000+93750000000+94062500000+94375000000
905+94375000000+94375000000+94375000000+94375000000+94062500000+93750000000
874+93125000000+92500000000+91562500000+90937500000+89687500000+88750000000
842+88437500000+88750000000+90625000000+92812500000+93437500000+94062500000
811+94375000000+94687500000+94687500000+94687500000+94687500000+94687500000
779+94687500000+94375000000+94375000000+94062500000+93437500000+93125000000
747+92812500000+92187500000+91250000000+90312500000+89375000000+87812500000
716+85937500000+83125000000+78437500000+70312500000+63437500000+58750000000
684+58437500000+61562500000+71250000000+78125000000+82812500000+85625000000
653+85937500000+85312500000+85000000000+84062500000+83437500000+82812500000
621+82187500000+81250000000+80625000000+79687500000+78125000000+75312500000
589+69687500000+63437500000+56250000000+51562500000+50937500000+52500000000
558+55937500000+62187500000+67500000000+71250000000+73750000000+75312500000
526+77187500000+78750000000+80000000000+81250000000+82187500000+82812500000
495+83125000000+83750000000+84062500000+84375000000+84062500000+83750000000
463+83125000000+81875000000+80625000000+78750000000+76875000000+74687500000
432+73125000000+71250000000+70000000000+68750000000+67812500000+67187500000
400+66875000000
##END=
