##TITLE=L-valine
##JCAMP-DX=4.24
##DATA TYPE=INFRARED SPECTRUM
##DATE=10/06/2025
##SAMPLING PROCEDURE=ATR
##ORIGIN=SDBS
##XUNITS=1/CM
##YUNITS=TRANSMITTANCE
##RESOLUTION=5.2631578947368425
##FIRSTX=4000.0
##LASTX=400.0
##DELTAX=-5.2631578947368425
##MAXY=95.0
##MINY=0.0
##XFACTOR=1
##YFACTOR=1
##NPOINTS=685
##FIRSTY=0.0
##XYDATA=(X++(Y..Y))
4000+0+86875000000+86875000000+86875000000+86875000000+87187500000
3968+87500000000+87500000000+87500000000+87500000000+87500000000+87812500000
3937+87812500000+87812500000+87812500000+88125000000+88125000000+88125000000
3905+88125000000+88437500000+88437500000+88437500000+88750000000+88750000000
3874+88750000000+88750000000+88750000000+89062500000+89375000000+89375000000
3842+89687500000+89687500000+90000000000+90000000000+90000000000+90000000000
3811+90312500000+90312500000+90312500000+90312500000+90312500000+90312500000
3779+90312500000+90312500000+90312500000+90312500000+90625000000+90625000000
3747+90625000000+90625000000+90625000000+90937500000+90937500000+90937500000
3716+91250000000+91250000000+91250000000+91250000000+91562500000+91562500000
3684+91562500000+91562500000+91250000000+91250000000+91250000000+91250000000
3653+90937500000+90937500000+90937500000+90625000000+90625000000+90625000000
3621+90625000000+90625000000+90625000000+90625000000+90625000000+90625000000
3589+90625000000+90625000000+90625000000+90625000000+90937500000+90625000000
3558+90625000000+90625000000+90625000000+90625000000+90312500000+90312500000
3526+90000000000+89375000000+89062500000+88437500000+88125000000+87500000000
3495+86875000000+86250000000+85625000000+84687500000+84062500000+82812500000
3463+81562500000+80000000000+78125000000+75625000000+72812500000+70625000000
3432+68125000000+65937500000+63750000000+62500000000+62187500000+62187500000
3400+62500000000+63750000000+64062500000+63437500000+62500000000+61562500000
3368+60625000000+59375000000+57812500000+56250000000+54687500000+53750000000
3337+52812500000+52187500000+50625000000+48750000000+45625000000+42187500000
3305+36875000000+30312500000+22812500000+15937500000+10312500000+7500000000
3274+6875000000+6875000000+5937500000+5000000000+4687500000+5000000000
3242+5937500000+7500000000+9062500000+10625000000+11875000000+10312500000
3211+9687500000+8750000000+9062500000+13125000000+22500000000+32500000000
3179+39062500000+43437499999+46875000000+49375000000+51562500000+54062500000
3147+55625000000+55937500000+56250000000+56562500000+56562500000+56250000000
3116+56250000000+56250000000+56875000000+57500000000+57500000000+57500000000
3084+57812500000+59062500000+60312500000+60625000000+60000000000+57812500000
3053+55937500000+55625000000+55937500000+56875000000+57812500000+58125000000
3021+58750000000+59062500000+60000000000+60625000000+62500000000+64375000000
2989+66250000000+67187500000+68437500000+70000000000+71562500000+73125000000
2958+74375000000+75000000000+75937500000+76562500000+76875000000+77187500000
2926+77500000000+78750000000+79687500000+80000000000+80000000000+80000000000
2895+80312500000+80625000000+81562500000+82500000000+83125000000+83750000000
2863+84062500000+84375000000+85000000000+85312500000+85625000000+85937500000
2832+86562500000+86875000000+86875000000+86875000000+86875000000+87187500000
2800+87500000000+88125000000+88437500000+88750000000+89062500000+89062500000
2768+89375000000+89687500000+89687500000+90000000000+90312500000+90000000000
2737+89687500000+89375000000+88750000000+88125000000+87500000000+86562500000
2705+85625000000+84687500000+84375000000+84062500000+84062500000+84062500000
2674+84687500000+85625000000+86562500000+87500000000+88125000000+89062500000
2642+89687500000+90312500000+90625000000+91250000000+91562500000+91875000000
2611+92500000000+92812500000+92812500000+93125000000+93125000000+93437500000
2579+93437500000+93437500000+93750000000+93750000000+93750000000+94062500000
2547+94062500000+94062500000+94062500000+94062500000+94062500000+94062500000
2516+94062500000+94375000000+94375000000+94375000000+94375000000+94375000000
2484+94375000000+94375000000+94687500000+94687500000+94687500000+94687500000
2453+94687500000+94687500000+94687500000+94687500000+94687500000+94687500000
2421+94687500000+94687500000+94687500000+94687500000+95000000000+95000000000
2389+95000000000+95000000000+95000000000+94687500000+94687500000+94687500000
2358+94687500000+94687500000+94687500000+94687500000+94687500000+94687500000
2326+94687500000+94375000000+94375000000+94375000000+94375000000+94062500000
2295+94062500000+93750000000+93437500000+93125000000+92812500000+92187500000
2263+91875000000+91562500000+91250000000+90937500000+90937500000+90937500000
2232+90625000000+90312500000+89687500000+89062500000+88437500000+87812500000
2200+87187500000+86562500000+86250000000+85937500000+85000000000+84375000000
2168+83750000000+82500000000+81250000000+79062500000+76562500000+74687500000
2137+73750000000+72187500000+69375000000+64375000000+59062500000+52812500000
2105+49062500000+46875000000+45937500000+44062500000+41562500000+37812500000
2074+36875000000+37812500000+40625000000+40937500000+37500000000+31562500000
2042+27500000000+26875000000+28437500000+34687500000+36875000000+34062500000
2011+33125000000+33437500000+37187499999+43750000000+51562500000+57812500000
1979+63750000000+66250000000+67187500000+63125000000+56250000000+45937500000
1947+38749999999+33750000000+29687500000+26875000000+26562500000+27187500000
1916+31875000000+37187499999+42812500000+46250000000+48437500000+44999999999
1884+35312500000+27812500000+22500000000+21875000000+21875000000+22187500000
1853+22812500000+27500000000+30937500000+35625000000+40312499999+46250000000
1821+48437500000+47812500000+49062500000+55000000000+58750000000+62812500000
1789+65312500000+55312500000+36562500000+34062500000+37500000000+39687500000
1758+39687500000+34062500000+32187500000+33750000000+43750000000+48437500000
1726+52500000000+49687499999+45937500000+44687500000+48437500000+53750000000
1695+55312500000+51250000000+35312500000+35312500000+45625000000+51562500000
1663+53125000000+60625000000+65000000000+67187500000+69062500000+70937500000
1632+72187500000+73125000000+74375000000+75000000000+74375000000+67500000000
1600+61875000000+65937500000+73750000000+76562500000+77812500000+78750000000
1568+79687500000+80000000000+80625000000+81250000000+81562500000+82187500000
1537+82500000000+82812500000+82500000000+82500000000+82187500000+82187500000
1505+82187500000+81875000000+76562500000+72187500000+75000000000+76250000000
1474+70000000000+70000000000+73750000000+73437500000+75937500000+78750000000
1442+79062500000+77812500000+74375000000+71250000000+70625000000+70937500000
1411+74062500000+78125000000+80937500000+81875000000+83125000000+84062500000
1379+84375000000+83437500000+83437500000+85000000000+85937500000+86250000000
1347+86250000000+86250000000+85937500000+84687500000+80625000000+69375000000
1316+66875000000+70312500000+79687500000+83125000000+84687500000+85000000000
1284+83125000000+75937500000+74375000000+75000000000+75937500000+78437500000
1253+82812500000+84687500000+85625000000+86250000000+86875000000+86875000000
1221+86875000000+86875000000+86562500000+85937500000+85312500000+85000000000
1189+84687500000+84687500000+84687500000+84687500000+85000000000+83750000000
1158+74375000000+73125000000+78750000000+82500000000+83750000000+83437500000
1126+82812500000+82500000000+82812500000+85000000000+86562500000+86250000000
1095+78125000000+75000000000+78437500000+81875000000+77187500000+78750000000
1063+85312500000+87187500000+88437500000+89062500000+89687500000+90000000000
1032+90000000000+89375000000+87187500000+85625000000+86875000000+89062500000
1000+89687500000+89687500000+88125000000+82500000000+82812500000+87500000000
968+90625000000+91250000000+91562500000+91562500000+91562500000+90937500000
937+90625000000+90000000000+88750000000+83437500000+66875000000+71562500000
905+84375000000+86562500000+87187500000+84062500000+80312500000+81562500000
874+85000000000+84687500000+83437500000+82500000000+80625000000+77500000000
842+72500000000+61562500000+56562500000+69062500000+82812500000+87812500000
811+90000000000+91875000000+92812500000+93437500000+93750000000+93750000000
779+93125000000+91875000000+87187500000+81875000000+81875000000+86875000000
747+90000000000+92500000000+93750000000+94062500000+94062500000+94375000000
716+94375000000+94375000000+94375000000+94375000000+94062500000+94062500000
684+94062500000+94062500000+94062500000+93750000000+93750000000+93750000000
653+93750000000+93750000000+93750000000+93437500000+93125000000+92187500000
621+90937500000+88750000000+84375000000+76875000000+62812500000+56875000000
589+56562500000+60937500000+73750000000+83125000000+87500000000+90000000000
558+91562500000+92812500000+92812500000+92812500000+92500000000+92187500000
526+91875000000+91562500000+91250000000+91562500000+91562500000+92187500000
495+92812500000+93750000000+94375000000+94687500000+94375000000+93125000000
463+91562500000+89375000000+86875000000+85000000000+83437500000+81875000000
432+80625000000+78750000000+77500000000+75625000000+74062500000+73125000000
400+72500000000
##END=
