##TITLE=m-chlorobenzaldehyde
##JCAMP-DX=4.24
##DATA TYPE=INFRARED SPECTRUM
##DATE=10/06/2025
##SAMPLING PROCEDURE=ATR
##ORIGIN=SDBS
##XUNITS=1/CM
##YUNITS=TRANSMITTANCE
##RESOLUTION=5.2631578947368425
##FIRSTX=4000.0
##LASTX=400.0
##DELTAX=-5.2631578947368425
##MAXY=94.6875
##MINY=0.0
##XFACTOR=1
##YFACTOR=1
##NPOINTS=685
##FIRSTY=0.0
##XYDATA=(X++(Y..Y))
4000+0+90312500000+90312500000+90312500000+90000000000+90000000000
3968+90000000000+90312500000+90312500000+90000000000+90000000000+90000000000
3937+89687500000+89687500000+89375000000+89375000000+89687500000+89687500000
3905+89375000000+89062500000+88750000000+88437500000+88437500000+88437500000
3874+88750000000+88750000000+88437500000+88125000000+88125000000+87812500000
3842+87500000000+87500000000+87812500000+88125000000+88437500000+88750000000
3811+88750000000+88750000000+88437500000+88125000000+88125000000+88125000000
3779+88437500000+88750000000+89062500000+89062500000+89375000000+89062500000
3747+89062500000+89062500000+88750000000+88750000000+89062500000+89062500000
3716+89687500000+90000000000+90312500000+90312500000+90312500000+90312500000
3684+90000000000+89687500000+89062500000+89062500000+88750000000+88750000000
3653+88437500000+88437500000+88125000000+88125000000+87812500000+87500000000
3621+87187500000+86562500000+85937500000+85625000000+85000000000+85000000000
3589+84687500000+84375000000+84062500000+83750000000+83750000000+83437500000
3558+83125000000+82812500000+82500000000+81875000000+81250000000+80625000000
3526+79687500000+78750000000+78125000000+77812500000+77187500000+76562500000
3495+75625000000+74687500000+73750000000+73125000000+72187500000+71562500000
3463+70937500000+70625000000+70000000000+69687500000+69062500000+68437500000
3432+67500000000+66875000000+66250000000+65937500000+65625000000+65312500000
3400+65000000000+64687500000+63750000000+63125000000+60000000000+57500000000
3368+56875000000+53750000000+53437500000+54375000000+57812500000+58437500000
3337+57187500000+56250000000+54687500000+53125000000+50937500000+49062500000
3305+46875000000+41874999999+35312500000+26562500000+16562500000+11562500000
3274+10937500000+11562500000+8437500000+5312500000+4687500000+5000000000
3242+8125000000+11562500000+15312500000+18125000000+19375000000+17500000000
3211+14062500000+11250000000+11875000000+22187500000+35937500000+44999999999
3179+50000000000+52812500000+55625000000+57812500000+60625000000+63437500000
3147+65000000000+65937500000+68437500000+69062500000+68750000000+67812500000
3116+66875000000+65000000000+64062500000+64062500000+65000000000+65625000000
3084+65000000000+62187500000+60312500000+60312500000+60625000000+61250000000
3053+63437500000+65625000000+66875000000+67500000000+65625000000+64062500000
3021+64687500000+67812500000+70312500000+70000000000+65312500000+60937500000
2989+61250000000+64687500000+68125000000+69687500000+70625000000+71250000000
2958+72500000000+73437500000+74687500000+75937500000+77187500000+77812500000
2926+78437500000+79375000000+80312500000+80625000000+81250000000+81875000000
2895+82500000000+82500000000+83125000000+83437500000+84062500000+84375000000
2863+85000000000+85312500000+85625000000+85625000000+85937500000+86250000000
2832+86562500000+86875000000+87187500000+87500000000+87500000000+87812500000
2800+88125000000+88437500000+88750000000+89062500000+89375000000+89687500000
2768+90000000000+90312500000+90312500000+90625000000+90625000000+90625000000
2737+90937500000+90937500000+90625000000+90312500000+90312500000+90625000000
2705+91250000000+91875000000+92187500000+92187500000+92187500000+92500000000
2674+92500000000+92812500000+93125000000+93125000000+93750000000+94062500000
2642+94375000000+94375000000+93750000000+93437500000+93437500000+93437500000
2611+93437500000+93437500000+93437500000+93437500000+93125000000+93125000000
2579+92812500000+92500000000+92500000000+92500000000+92500000000+92812500000
2547+93125000000+93437500000+93437500000+94062500000+94375000000+94687500000
2516+94687500000+94687500000+94375000000+93750000000+93437500000+92812500000
2484+92812500000+92812500000+92812500000+93125000000+93125000000+93437500000
2453+93750000000+94062500000+94375000000+94375000000+94062500000+93750000000
2421+93437500000+93437500000+93125000000+93125000000+93125000000+93125000000
2389+93125000000+93125000000+93125000000+93125000000+93437500000+93437500000
2358+93750000000+93750000000+93437500000+92500000000+92187500000+90937500000
2326+90937500000+91875000000+93125000000+93750000000+94062500000+94375000000
2295+94687500000+94687500000+94687500000+94687500000+94062500000+93125000000
2263+91562500000+89687500000+88437500000+87187500000+84687500000+79375000000
2232+70312500000+60937500000+59375000000+49062500000+37812500000+26250000000
2200+20625000000+18437500000+17812500000+17812500000+18437500000+21562500000
2168+24062500000+25937500000+30000000000+36250000000+43750000000+49062500000
2137+53750000000+57500000000+60937500000+63750000000+65625000000+67187500000
2105+68437500000+70000000000+71875000000+73437500000+75312500000+76875000000
2074+79687500000+80937500000+81875000000+67812500000+53750000000+63750000000
2042+78437500000+79375000000+72187500000+42812500000+40000000000+48750000000
2011+59687500000+66250000000+70937500000+75625000000+78750000000+80625000000
1979+82812500000+83750000000+84062500000+84375000000+84375000000+84375000000
1947+84062500000+83750000000+83437500000+82812500000+82187500000+81875000000
1916+81250000000+78437500000+72187500000+70937500000+70312500000+66562500000
1884+60937500000+52812500000+45625000000+45312500000+46250000000+48750000000
1853+50937500000+57812500000+61875000000+60625000000+50625000000+49375000000
1821+38749999999+38437500000+43125000000+36562500000+37187499999+48750000000
1789+56875000000+62187500000+65625000000+69687500000+72187500000+69687500000
1758+66250000000+59687500000+58125000000+60312500000+69687500000+71562500000
1726+74687500000+79375000000+80000000000+80312500000+80625000000+81250000000
1695+81562500000+81562500000+79375000000+72812500000+55000000000+37500000000
1663+36250000000+30625000000+24687500000+24375000000+25937500000+31875000000
1632+38749999999+39062500000+44375000000+54375000000+62187500000+66250000000
1600+55312500000+28125000000+27812500000+36562500000+47812500000+58437500000
1568+64687500000+69687500000+72187500000+73125000000+74375000000+75937500000
1537+77187500000+78750000000+80312500000+81562500000+83125000000+83750000000
1505+81562500000+81875000000+82812500000+83750000000+85312500000+86250000000
1474+85625000000+85000000000+84375000000+84375000000+85000000000+85937500000
1442+86875000000+85312500000+69375000000+58125000000+64375000000+63125000000
1411+76250000000+82187500000+84062500000+85625000000+87500000000+88125000000
1379+87500000000+83437500000+80937500000+82500000000+85625000000+85000000000
1347+79687500000+82812500000+82187500000+68437500000+69687500000+82187500000
1316+85937500000+87500000000+88437500000+89062500000+89375000000+89062500000
1284+89062500000+89062500000+89375000000+89375000000+90000000000+90312500000
1253+90625000000+90937500000+90625000000+88437500000+84375000000+88437500000
1221+90000000000+90312500000+90312500000+90625000000+90625000000+90625000000
1189+90625000000+90625000000+90312500000+90000000000+89687500000+89062500000
1158+88437500000+87812500000+87187500000+85625000000+83750000000+81562500000
1126+78437500000+74062500000+72500000000+72500000000+73437500000+75000000000
1095+77812500000+66562500000+58437500000+73125000000+80625000000+83437500000
1063+85625000000+86562500000+87500000000+88437500000+89375000000+89375000000
1032+86562500000+76562500000+65937500000+66875000000+80000000000+84375000000
1000+86875000000+89062500000+90000000000+90312500000+90625000000+90625000000
968+88750000000+80312500000+79375000000+87187500000+90000000000+90625000000
937+90937500000+91562500000+91562500000+91250000000+90937500000+90312500000
905+89687500000+88750000000+85937500000+76250000000+47500000000+42187500000
874+53125000000+80000000000+84687500000+85937500000+81562500000+73437500000
842+43125000000+34687500000+47500000000+71250000000+82187500000+86250000000
811+87500000000+89375000000+90937500000+91875000000+92187500000+91250000000
779+90000000000+87500000000+77187500000+76562500000+88125000000+90312500000
747+67812500000+67187500000+90937500000+91875000000+92187500000+92187500000
716+92500000000+92500000000+92812500000+93125000000+93437500000+93750000000
684+94062500000+94062500000+94375000000+94375000000+94687500000+94687500000
653+94687500000+94062500000+92812500000+90625000000+88125000000+85937500000
621+82812500000+79687500000+76562500000+74375000000+73125000000+73125000000
589+75937500000+82187500000+87500000000+90937500000+92187500000+93125000000
558+93750000000+93750000000+93125000000+92812500000+92187500000+91875000000
526+91562500000+91562500000+91562500000+91562500000+91875000000+91562500000
495+91562500000+91250000000+91250000000+90937500000+90937500000+90312500000
463+89687500000+88125000000+85312500000+80937500000+76250000000+70625000000
432+65937500000+62812500000+61250000000+60937500000+60937500000+61250000000
400+61250000000
##END=
