##TITLE=m-terphenyl
##JCAMP-DX=4.24
##DATA TYPE=INFRARED SPECTRUM
##DATE=10/06/2025
##SAMPLING PROCEDURE=ATR
##ORIGIN=SDBS
##XUNITS=1/CM
##YUNITS=TRANSMITTANCE
##RESOLUTION=5.2631578947368425
##FIRSTX=4000.0
##LASTX=400.0
##DELTAX=-5.2631578947368425
##MAXY=94.375
##MINY=0.0
##XFACTOR=1
##YFACTOR=1
##NPOINTS=685
##FIRSTY=0.0
##XYDATA=(X++(Y..Y))
4000+0+73750000000+73750000000+73750000000+74062500000+74375000000
3968+74375000000+74375000000+74375000000+74375000000+74062500000+74062500000
3937+74062500000+74062500000+74062500000+73750000000+73437500000+73437500000
3905+73437500000+73125000000+73125000000+73125000000+73125000000+73125000000
3874+73125000000+73437500000+73437500000+73437500000+73437500000+73125000000
3842+72812500000+72500000000+72500000000+72500000000+72500000000+72500000000
3811+72187500000+72187500000+71875000000+71875000000+72187500000+72500000000
3779+72812500000+72500000000+71875000000+71250000000+71250000000+71250000000
3747+71250000000+71250000000+71250000000+71250000000+70937500000+70937500000
3716+70937500000+70937500000+70937500000+70937500000+70937500000+70937500000
3684+70937500000+70937500000+70625000000+70625000000+70312500000+70000000000
3653+69687500000+69687500000+69687500000+69687500000+69687500000+70000000000
3621+69687500000+69687500000+69687500000+70000000000+70000000000+69687500000
3589+69687500000+69687500000+69687500000+69687500000+69375000000+69375000000
3558+69375000000+69687500000+70000000000+70000000000+70000000000+70000000000
3526+69687500000+69687500000+70000000000+70000000000+70000000000+70312500000
3495+70312500000+70312500000+70625000000+70625000000+70937500000+70937500000
3463+70937500000+70937500000+70937500000+70937500000+70937500000+71250000000
3432+71250000000+71250000000+71562500000+71562500000+71562500000+71562500000
3400+71562500000+71875000000+71875000000+71562500000+71250000000+70312500000
3368+68750000000+68437500000+68125000000+61250000000+51875000000+53125000000
3337+56562500000+54687500000+48437500000+48437500000+55937500000+57500000000
3305+55625000000+52812500000+48750000000+40625000000+31562500000+26875000000
3274+26250000000+27187500000+23125000000+18437500000+18125000000+19687500000
3242+26562500000+31562500000+36562500000+41562500000+41874999999+39375000000
3211+35625000000+31562500000+32187500000+46250000000+64687500000+73125000000
3179+77187500000+78750000000+79687500000+80312500000+80937500000+81562500000
3147+81875000000+81875000000+81875000000+81562500000+81250000000+81250000000
3116+80937500000+81250000000+81250000000+81250000000+81250000000+81250000000
3084+81250000000+81250000000+81250000000+81250000000+81562500000+81562500000
3053+81562500000+81875000000+81875000000+81875000000+81875000000+81875000000
3021+82187500000+82500000000+82500000000+82812500000+83125000000+83125000000
2989+83437500000+83750000000+83750000000+83750000000+83750000000+83750000000
2958+83750000000+84062500000+84062500000+84062500000+84375000000+84375000000
2926+84375000000+84375000000+84687500000+84687500000+84687500000+84687500000
2895+84687500000+84687500000+84687500000+85000000000+85000000000+85000000000
2863+85000000000+85000000000+85312500000+85312500000+85312500000+85312500000
2832+85625000000+85625000000+85625000000+85625000000+85937500000+85937500000
2800+86250000000+86250000000+86250000000+86250000000+86250000000+86250000000
2768+86250000000+86250000000+86562500000+86875000000+86875000000+87187500000
2737+87187500000+87187500000+87187500000+87187500000+87187500000+87500000000
2705+87500000000+87812500000+88125000000+88125000000+88125000000+88125000000
2674+88125000000+88125000000+88125000000+88125000000+88437500000+88437500000
2642+88437500000+88437500000+88750000000+88437500000+88437500000+88437500000
2611+88437500000+88437500000+88750000000+88750000000+89062500000+89375000000
2579+89375000000+89062500000+88437500000+87812500000+86875000000+85937500000
2547+82812500000+82500000000+82500000000+84062500000+85625000000+87812500000
2516+88437500000+89062500000+89375000000+89375000000+89687500000+89375000000
2484+89062500000+88437500000+87812500000+87187500000+86875000000+86562500000
2453+86562500000+86562500000+86562500000+86562500000+86875000000+87500000000
2421+88125000000+88437500000+89062500000+89375000000+89687500000+89687500000
2389+90000000000+89687500000+89375000000+89062500000+88437500000+88125000000
2358+87812500000+87500000000+87500000000+87500000000+87500000000+88125000000
2326+88750000000+89375000000+89375000000+89375000000+88437500000+88125000000
2295+87812500000+87500000000+87500000000+87812500000+88125000000+88437500000
2263+89062500000+89375000000+89687500000+90000000000+90000000000+90312500000
2232+90312500000+90312500000+90312500000+89687500000+89375000000+88125000000
2200+88125000000+88750000000+88750000000+88750000000+88437500000+88437500000
2168+88125000000+88125000000+87812500000+87812500000+87812500000+88125000000
2137+88437500000+88750000000+89062500000+89375000000+89375000000+89375000000
2105+89687500000+89687500000+90000000000+90312500000+90312500000+90312500000
2074+89687500000+88750000000+85312500000+75625000000+69687500000+66250000000
2042+74375000000+80625000000+83750000000+79062500000+76875000000+67187500000
2011+66250000000+79375000000+84687500000+86250000000+86562500000+86875000000
1979+87187500000+88125000000+89062500000+89375000000+89687500000+90000000000
1947+90937500000+91250000000+91250000000+89375000000+85000000000+83125000000
1916+79687500000+77500000000+77187500000+83750000000+81562500000+81250000000
1884+45625000000+32812500000+36250000000+47500000000+47500000000+48750000000
1853+55312500000+65000000000+67812500000+60312500000+64687500000+75312500000
1821+80937500000+84062500000+85312500000+84687500000+83437500000+80625000000
1789+61875000000+58125000000+70312500000+80000000000+78437500000+74687500000
1758+72500000000+68125000000+67187500000+70625000000+78125000000+79375000000
1726+81562500000+84687500000+85625000000+86250000000+86875000000+86250000000
1695+82500000000+82187500000+84375000000+86250000000+85625000000+84375000000
1663+83750000000+83750000000+86250000000+86875000000+87812500000+88437500000
1632+89375000000+89687500000+90000000000+89687500000+86875000000+88437500000
1600+90625000000+91562500000+91875000000+91562500000+90937500000+90625000000
1568+90312500000+90312500000+90312500000+90937500000+91875000000+92500000000
1537+92812500000+92812500000+92812500000+93125000000+93125000000+93125000000
1505+93437500000+93437500000+93125000000+88125000000+86562500000+86250000000
1474+91562500000+91250000000+81250000000+88437500000+84062500000+76875000000
1442+90312500000+91562500000+92187500000+92500000000+92500000000+92500000000
1411+92500000000+92500000000+92187500000+91875000000+91250000000+90625000000
1379+90625000000+90937500000+87500000000+85625000000+89375000000+92187500000
1347+91562500000+86250000000+68437500000+68437500000+80937500000+87812500000
1316+90312500000+90312500000+90937500000+91562500000+91875000000+92500000000
1284+92812500000+92812500000+92187500000+86250000000+76875000000+83437500000
1253+88750000000+90312500000+81562500000+84062500000+78750000000+78437500000
1221+90312500000+91562500000+92187500000+85937500000+87500000000+86562500000
1189+86562500000+87812500000+89375000000+90937500000+91562500000+91562500000
1158+91875000000+92187500000+92187500000+92187500000+91875000000+91562500000
1126+91250000000+89375000000+83437500000+83437500000+88750000000+90625000000
1095+90312500000+88125000000+84062500000+54062500000+63125000000+63125000000
1063+87187500000+91562500000+92812500000+93125000000+93750000000+93750000000
1032+93437500000+91875000000+82500000000+82812500000+89062500000+86562500000
1000+85000000000+91250000000+93750000000+93750000000+93437500000+92812500000
968+91875000000+88125000000+66562500000+77812500000+86562500000+89375000000
937+89687500000+90937500000+89687500000+87812500000+83125000000+79687500000
905+76875000000+55937500000+54687500000+25625000000+18125000000+5000000000
874+4687500000+11562500000+54375000000+74687500000+81562500000+82812500000
842+82812500000+82812500000+82500000000+49375000000+44687500000+39687500000
811+13437500000+13437500000+30312500000+34375000000+64375000000+80000000000
779+87187500000+88125000000+87187500000+87500000000+89375000000+90000000000
747+90000000000+92187500000+94375000000+94375000000+94375000000+94062500000
716+94062500000+93750000000+89375000000+92812500000+92500000000+60625000000
684+63125000000+85625000000+92187500000+93125000000+93750000000+93750000000
653+93437500000+93125000000+92812500000+92187500000+91875000000+91875000000
621+91875000000+91875000000+92187500000+92187500000+92812500000+93125000000
589+93125000000+93125000000+92812500000+86562500000+78437500000+74375000000
558+70937500000+86250000000+87187500000+89062500000+90312500000+90312500000
526+90000000000+90000000000+89687500000+89687500000+89687500000+89687500000
495+89062500000+88125000000+86562500000+84687500000+83125000000+81875000000
463+80937500000+80625000000+80625000000+80625000000+80937500000+80937500000
432+80312500000+78750000000+76875000000+74687500000+72187500000+70625000000
400+70312500000
##END=
