##TITLE=maleic acid
##JCAMP-DX=4.24
##DATA TYPE=INFRARED SPECTRUM
##DATE=10/06/2025
##SAMPLING PROCEDURE=ATR
##ORIGIN=SDBS
##XUNITS=1/CM
##YUNITS=TRANSMITTANCE
##RESOLUTION=5.2631578947368425
##FIRSTX=4000.0
##LASTX=400.0
##DELTAX=-5.2631578947368425
##MAXY=94.375
##MINY=0.0
##XFACTOR=1
##YFACTOR=1
##NPOINTS=685
##FIRSTY=0.0
##XYDATA=(X++(Y..Y))
4000+0+64687500000+65000000000+65312500000+65625000000+65937500000
3968+66250000000+66562500000+66875000000+66875000000+67187500000+68125000000
3937+68437500000+68750000000+68750000000+68750000000+69062500000+69375000000
3905+69375000000+69687500000+70000000000+70312500000+70312500000+70312500000
3874+70625000000+70937500000+71250000000+71562500000+71875000000+72500000000
3842+73125000000+73437500000+73437500000+73750000000+73750000000+74062500000
3811+74687500000+75000000000+75625000000+75937500000+75937500000+76250000000
3779+76562500000+76875000000+77187500000+77500000000+78125000000+78125000000
3747+78125000000+78125000000+78125000000+78437500000+78750000000+79375000000
3716+79687500000+80000000000+80625000000+80937500000+81250000000+81562500000
3684+81875000000+81875000000+81875000000+81875000000+82187500000+82187500000
3653+82500000000+82812500000+82812500000+82812500000+82812500000+83125000000
3621+83437500000+83437500000+83437500000+83437500000+83437500000+83750000000
3589+83750000000+83750000000+83750000000+84062500000+84375000000+84375000000
3558+84687500000+84375000000+84062500000+84062500000+84062500000+84062500000
3526+83750000000+83437500000+82500000000+82187500000+81562500000+81250000000
3495+80937500000+80625000000+80312500000+79687500000+78750000000+77812500000
3463+76875000000+75937500000+74687500000+73750000000+73125000000+72500000000
3432+71250000000+69687500000+68437500000+68125000000+67500000000+66250000000
3400+65312500000+65000000000+64375000000+63125000000+61875000000+61875000000
3368+60937500000+59375000000+57812500000+52812500000+41250000000+41562500000
3337+50000000000+51562500000+50312500000+48437500000+45312500000+43437499999
3305+38437500000+33125000000+25312500000+16875000000+10937500000+8750000000
3274+8437500000+8437500000+7500000000+5312500000+4687500000+5000000000
3242+6875000000+8125000000+8750000000+9687500000+10937500000+10000000000
3211+9375000000+7812500000+7812500000+10625000000+20000000000+29687500000
3179+36875000000+40625000000+42812500000+44687500000+46562499999+49062500000
3147+51875000000+55000000000+56562500000+57812500000+57500000000+55937500000
3116+55000000000+55000000000+56250000000+57187500000+55625000000+53750000000
3084+53750000000+54375000000+55937500000+58437500000+59062500000+59687500000
3053+60000000000+57187500000+53125000000+50625000000+50312500000+50937500000
3021+52812500000+53125000000+53437500000+55000000000+56250000000+57187500000
2989+57500000000+57812500000+57500000000+56562500000+55000000000+55000000000
2958+55000000000+55937500000+56875000000+57812500000+58437500000+59062500000
2926+59375000000+58750000000+58125000000+57812500000+57500000000+57500000000
2895+57500000000+57187500000+57187500000+57187500000+57187500000+57187500000
2863+57500000000+58125000000+58437500000+59062500000+59375000000+60000000000
2832+60312500000+60625000000+61250000000+61875000000+62812500000+64062500000
2800+65625000000+67812500000+69062500000+69687500000+70000000000+70312500000
2768+71250000000+71875000000+72187500000+71875000000+71562500000+71250000000
2737+70000000000+69375000000+69375000000+69375000000+70000000000+71250000000
2705+72500000000+74062500000+75000000000+75625000000+76250000000+77500000000
2674+79062500000+80000000000+80625000000+81250000000+81875000000+81562500000
2642+80625000000+80625000000+82500000000+84687500000+85937500000+86875000000
2611+87500000000+87812500000+88125000000+88437500000+88437500000+88750000000
2579+88750000000+88437500000+88437500000+88125000000+87812500000+87500000000
2547+87187500000+86562500000+85937500000+85000000000+84062500000+83437500000
2516+82500000000+81875000000+81250000000+81250000000+80937500000+80625000000
2484+80312500000+80000000000+79687500000+79375000000+79062500000+79062500000
2453+79062500000+79687500000+80312500000+80937500000+81250000000+81875000000
2421+82500000000+82812500000+83437500000+84062500000+85000000000+85937500000
2389+86562500000+87500000000+88125000000+88750000000+89062500000+88750000000
2358+88437500000+88437500000+88437500000+89062500000+90000000000+90625000000
2326+91250000000+91562500000+91562500000+91875000000+92187500000+92187500000
2295+91875000000+91250000000+90625000000+89375000000+87812500000+85312500000
2263+82187500000+78437500000+74687500000+70625000000+67812500000+64687500000
2232+61250000000+56250000000+50312500000+42500000000+33750000000+26875000000
2200+26875000000+38437500000+54375000000+65312500000+73750000000+78437500000
2168+80000000000+77812500000+74687500000+70000000000+65937500000+61875000000
2137+56875000000+52187500000+48124999999+42187500000+36562500000+33750000000
2105+33750000000+35000000000+37500000000+40312499999+42500000000+42812500000
2074+40312499999+36250000000+32187500000+28437500000+25312500000+23125000000
2042+22187500000+22187500000+23750000000+25000000000+22187500000+20625000000
2011+20625000000+21250000000+23437500000+25625000000+28125000000+30312500000
1979+33125000000+35312500000+38125000000+40625000000+42812500000+44375000000
1947+46250000000+48124999999+49687499999+50625000000+51562500000+53125000000
1916+54375000000+55625000000+57812500000+55625000000+49062500000+40000000000
1884+30625000000+22187500000+16562500000+14687500000+14062500000+14062500000
1853+15312500000+18437500000+20312500000+20625000000+20000000000+20000000000
1821+22812500000+28125000000+32812500000+37187499999+40937500000+44062500000
1789+46562499999+48750000000+50625000000+51562500000+50000000000+44062500000
1758+39687500000+33125000000+31875000000+34687500000+44999999999+46250000000
1726+50000000000+56875000000+59687500000+61875000000+64062500000+65937500000
1695+67500000000+69375000000+70625000000+70625000000+71250000000+72187500000
1663+72187500000+71562500000+70625000000+69062500000+66875000000+63437500000
1632+60312500000+57187500000+52500000000+47187500000+40937500000+35312500000
1600+29062500000+23750000000+22812500000+23750000000+26250000000+30000000000
1568+33125000000+36250000000+38749999999+41874999999+44687500000+45312500000
1537+37812500000+33437500000+33750000000+39375000000+43125000000+45625000000
1505+47812500000+48750000000+49375000000+50312500000+51875000000+52812500000
1474+53437500000+53750000000+54062500000+54687500000+55625000000+56562500000
1442+56875000000+57812500000+58750000000+60000000000+60937500000+61562500000
1411+62500000000+63125000000+63437500000+63750000000+64375000000+64687500000
1379+65625000000+65937500000+66562500000+66875000000+67500000000+67812500000
1347+67812500000+68125000000+68125000000+68437500000+68437500000+68750000000
1316+69062500000+69375000000+69687500000+70000000000+70312500000+70000000000
1284+70000000000+69687500000+69687500000+69375000000+69062500000+68750000000
1253+68437500000+67812500000+66562500000+65312500000+64062500000+63125000000
1221+62500000000+62500000000+62500000000+62812500000+63437500000+64062500000
1189+64687500000+65625000000+66875000000+67812500000+67500000000+63125000000
1158+53437500000+52812500000+55625000000+57812500000+58125000000+58125000000
1126+57812500000+57812500000+58437500000+59375000000+61562500000+63437500000
1095+65625000000+67500000000+69062500000+70312500000+71562500000+72187500000
1063+68437500000+55625000000+53750000000+55312500000+52812500000+41562500000
1032+43437499999+55625000000+62187500000+65312500000+68125000000+70625000000
1000+73125000000+74687500000+75937500000+77500000000+78437500000+79375000000
968+80000000000+80625000000+81250000000+81875000000+83125000000+84062500000
937+77187500000+66875000000+66875000000+73437500000+75625000000+76875000000
905+77812500000+78750000000+79687500000+80000000000+80625000000+80312500000
874+79687500000+79062500000+78125000000+77500000000+76250000000+73750000000
842+71250000000+71562500000+75625000000+80625000000+83437500000+85937500000
811+87812500000+89062500000+90000000000+90625000000+91562500000+92500000000
779+93437500000+93437500000+94062500000+94375000000+94062500000+90312500000
747+89375000000+86875000000+82500000000+78125000000+70937500000+60000000000
716+59375000000+64375000000+73125000000+67500000000+62812500000+59062500000
684+56875000000+56875000000+59687500000+64687500000+67187500000+70312500000
653+74062500000+77812500000+79687500000+81250000000+82500000000+83125000000
621+83750000000+84062500000+84375000000+84687500000+85000000000+85625000000
589+86250000000+86875000000+87187500000+87812500000+88437500000+89062500000
558+89687500000+90312500000+90625000000+90312500000+90000000000+89687500000
526+89687500000+89375000000+89375000000+89375000000+89687500000+89687500000
495+89687500000+90000000000+90625000000+91250000000+91875000000+92187500000
463+92812500000+93125000000+93125000000+92812500000+91875000000+90000000000
432+87500000000+84687500000+82187500000+79375000000+76875000000+75312500000
400+74687500000
##END=
