##TITLE=maleic hydrazide
##JCAMP-DX=4.24
##DATA TYPE=INFRARED SPECTRUM
##DATE=10/06/2025
##SAMPLING PROCEDURE=ATR
##ORIGIN=SDBS
##XUNITS=1/CM
##YUNITS=TRANSMITTANCE
##RESOLUTION=5.2631578947368425
##FIRSTX=4000.0
##LASTX=400.0
##DELTAX=-5.2631578947368425
##MAXY=95.0
##MINY=0.0
##XFACTOR=1
##YFACTOR=1
##NPOINTS=685
##FIRSTY=0.0
##XYDATA=(X++(Y..Y))
4000+0+78437500000+78750000000+78750000000+79062500000+79062500000
3968+79062500000+79375000000+79375000000+79375000000+79375000000+79375000000
3937+79062500000+79062500000+79062500000+79062500000+79062500000+79375000000
3905+79375000000+79687500000+79687500000+79687500000+79687500000+79687500000
3874+80000000000+80000000000+80000000000+80312500000+80312500000+80625000000
3842+80625000000+80937500000+81250000000+81250000000+81250000000+81250000000
3811+81250000000+81250000000+81250000000+81562500000+81562500000+81562500000
3779+81562500000+81562500000+81562500000+81562500000+81875000000+82187500000
3747+82187500000+82187500000+82187500000+82187500000+82500000000+82812500000
3716+83125000000+83125000000+83437500000+83437500000+83750000000+83750000000
3684+84062500000+84375000000+84375000000+84375000000+84375000000+84375000000
3653+84687500000+84687500000+84687500000+84687500000+84687500000+85000000000
3621+85000000000+85000000000+85312500000+85312500000+85625000000+85625000000
3589+85937500000+85937500000+85937500000+85625000000+85625000000+85000000000
3558+84687500000+83750000000+82500000000+81250000000+79687500000+78125000000
3526+76250000000+75000000000+73125000000+70937500000+69375000000+68125000000
3495+66875000000+65937500000+65625000000+65312500000+65312500000+65312500000
3463+65312500000+65312500000+65000000000+65000000000+65000000000+64687500000
3432+64687500000+65000000000+65312500000+65937500000+66562500000+67187500000
3400+67500000000+68125000000+68125000000+68125000000+67500000000+66875000000
3368+66250000000+65312500000+61562500000+60312500000+60312500000+60625000000
3337+60000000000+58750000000+57187500000+55000000000+52187500000+48750000000
3305+42812500000+36562500000+28437500000+20312500000+12812500000+9062500000
3274+8125000000+8125000000+6875000000+5000000000+4687500000+5000000000
3242+6875000000+9062500000+10625000000+12500000000+13437500000+11875000000
3211+10937500000+9687500000+10000000000+14687500000+25000000000+35937500000
3179+43750000000+48437500000+52500000000+54687500000+56250000000+58437500000
3147+60312500000+61875000000+63437500000+64375000000+64062500000+61875000000
3116+60312500000+60000000000+61250000000+62812500000+64062500000+63750000000
3084+63125000000+61562500000+60312500000+60000000000+60000000000+59687500000
3053+59062500000+58750000000+58437500000+58437500000+58125000000+58125000000
3021+58125000000+58437500000+59375000000+60312500000+60937500000+61250000000
2989+60312500000+60000000000+59687500000+59687500000+60000000000+60625000000
2958+61250000000+60937500000+60000000000+59687500000+59687500000+59687500000
2926+59687500000+60312500000+60625000000+61250000000+61562500000+61875000000
2895+62187500000+62187500000+62500000000+62812500000+63437500000+64062500000
2863+64687500000+65000000000+65625000000+66250000000+66875000000+67187500000
2832+67812500000+68437500000+69375000000+70000000000+70312500000+70625000000
2800+71562500000+72187500000+72812500000+73437500000+74375000000+75000000000
2768+75312500000+75625000000+76562500000+77187500000+78125000000+78437500000
2737+79375000000+80000000000+80312500000+80937500000+81875000000+82500000000
2705+83125000000+83750000000+84062500000+84687500000+85000000000+85312500000
2674+85937500000+86562500000+86875000000+87187500000+87812500000+88125000000
2642+88437500000+88750000000+89375000000+89687500000+90000000000+90625000000
2611+90937500000+91250000000+91562500000+91562500000+91562500000+91562500000
2579+91562500000+91562500000+91562500000+91562500000+91562500000+91875000000
2547+92187500000+92187500000+92500000000+92812500000+92812500000+93125000000
2516+93125000000+93437500000+93437500000+93437500000+93750000000+93750000000
2484+94062500000+94062500000+94062500000+94375000000+94375000000+94687500000
2453+94687500000+94687500000+95000000000+94687500000+94687500000+94375000000
2421+94062500000+93437500000+93125000000+92187500000+92187500000+92500000000
2389+92500000000+92500000000+92812500000+92812500000+93125000000+93125000000
2358+93437500000+93437500000+93437500000+93437500000+93750000000+93750000000
2326+93750000000+94062500000+94062500000+94062500000+94062500000+94062500000
2295+94062500000+94062500000+93750000000+93437500000+93437500000+93125000000
2263+92500000000+92187500000+91875000000+91562500000+91250000000+90937500000
2232+90937500000+90625000000+90000000000+89062500000+88437500000+87187500000
2200+85312500000+83125000000+80000000000+74687500000+67187500000+62500000000
2168+61250000000+59687500000+58125000000+58125000000+61562500000+65000000000
2137+68125000000+72187500000+74375000000+76250000000+78125000000+79687500000
2105+80625000000+80937500000+80000000000+78750000000+77187500000+75312500000
2074+72500000000+69062500000+65312500000+61250000000+56875000000+52500000000
2042+49062500000+44999999999+41562500000+40312499999+40625000000+41250000000
2011+35625000000+29687500000+25625000000+22500000000+20937500000+20625000000
1979+20937500000+21875000000+24062500000+27500000000+32500000000+36562500000
1947+41562500000+45625000000+49687499999+52500000000+55312500000+57812500000
1916+58750000000+59062500000+59687500000+59062500000+56562500000+50312500000
1884+40625000000+30312500000+23125000000+21875000000+21875000000+21875000000
1853+22812500000+25625000000+27812500000+30625000000+33125000000+35937500000
1821+39375000000+39687500000+34375000000+28750000000+25000000000+23750000000
1789+23750000000+24687500000+28125000000+31875000000+34687500000+33125000000
1758+30312500000+26562500000+25625000000+27500000000+36250000000+38749999999
1726+42500000000+49687499999+52812500000+54687500000+56875000000+59062500000
1695+60937500000+64062500000+66562500000+68750000000+67187500000+62187500000
1663+62187500000+65000000000+65937500000+63125000000+57812500000+50937500000
1632+43437499999+38749999999+32187500000+27187500000+24062500000+24062500000
1600+25000000000+29687500000+34687500000+39375000000+43437499999+47500000000
1568+50625000000+53437500000+55312500000+57812500000+60000000000+61875000000
1537+63437500000+64062500000+50937500000+50625000000+51875000000+54375000000
1505+57500000000+60000000000+61562500000+62812500000+64375000000+65000000000
1474+65937500000+65937500000+65937500000+66250000000+66562500000+66875000000
1442+67500000000+68125000000+69375000000+70625000000+72187500000+69375000000
1411+63750000000+56562500000+55625000000+56875000000+62500000000+66250000000
1379+68437500000+70625000000+71875000000+72812500000+73437500000+73750000000
1347+74062500000+74375000000+74687500000+75000000000+75312500000+75625000000
1316+75937500000+76250000000+76562500000+77187500000+77500000000+77812500000
1284+78437500000+79062500000+79375000000+80000000000+80625000000+80937500000
1253+79687500000+68750000000+46875000000+31562500000+39687500000+55625000000
1221+65000000000+68125000000+69687500000+70625000000+70937500000+70937500000
1189+71250000000+71562500000+71875000000+71875000000+72187500000+72187500000
1158+72187500000+72187500000+72187500000+71875000000+71875000000+71875000000
1126+71875000000+71875000000+72187500000+72187500000+71875000000+71875000000
1095+71250000000+70937500000+70312500000+70000000000+69375000000+68750000000
1063+67812500000+66875000000+65937500000+65937500000+65937500000+65937500000
1032+66562500000+65625000000+56875000000+47187500000+46250000000+46562499999
1000+53125000000+60625000000+64375000000+60312500000+51875000000+50937500000
968+51562500000+55937500000+60312500000+63125000000+64375000000+65312500000
937+65625000000+65625000000+65312500000+65000000000+64687500000+64375000000
905+64375000000+64375000000+64687500000+65000000000+65937500000+68750000000
874+61875000000+60312500000+60312500000+60000000000+59062500000+58437500000
842+58437500000+59375000000+63437500000+68437500000+71875000000+75000000000
811+76875000000+78437500000+79375000000+80625000000+81562500000+82500000000
779+83125000000+83437500000+83750000000+84375000000+84687500000+85312500000
747+85625000000+85000000000+76250000000+76875000000+84062500000+86250000000
716+86562500000+86562500000+86875000000+86875000000+87187500000+87187500000
684+87500000000+87500000000+87500000000+87500000000+87500000000+87500000000
653+87812500000+87812500000+87812500000+88125000000+88125000000+88125000000
621+87812500000+86562500000+81875000000+71562500000+66562500000+66875000000
589+68437500000+61250000000+61562500000+74062500000+67500000000+40000000000
558+32500000000+42812500000+65312500000+73125000000+76250000000+79375000000
526+81250000000+83125000000+84375000000+85312500000+85937500000+86250000000
495+86875000000+87500000000+88437500000+89375000000+90312500000+91875000000
463+93125000000+93750000000+94375000000+94687500000+94687500000+93750000000
432+91250000000+86875000000+81875000000+75625000000+70000000000+65937500000
400+64375000000
##END=
