##TITLE=methyl 8-chloro-1-naphthoate
##JCAMP-DX=4.24
##DATA TYPE=INFRARED SPECTRUM
##DATE=10/06/2025
##SAMPLING PROCEDURE=ATR
##ORIGIN=SDBS
##XUNITS=1/CM
##YUNITS=TRANSMITTANCE
##RESOLUTION=5.2631578947368425
##FIRSTX=4000.0
##LASTX=400.0
##DELTAX=-5.2631578947368425
##MAXY=94.6875
##MINY=0.0
##XFACTOR=1
##YFACTOR=1
##NPOINTS=685
##FIRSTY=0.0
##XYDATA=(X++(Y..Y))
4000+0+93125000000+93125000000+93125000000+93125000000+93125000000
3968+93125000000+93125000000+93437500000+93437500000+93125000000+93125000000
3937+93125000000+93125000000+92812500000+92812500000+92812500000+92812500000
3905+92500000000+92500000000+92812500000+92812500000+93125000000+93125000000
3874+93125000000+93125000000+93125000000+93125000000+93125000000+93125000000
3842+93125000000+93437500000+93437500000+93437500000+93437500000+93437500000
3811+93437500000+93437500000+93437500000+93750000000+93437500000+93125000000
3779+92812500000+92187500000+91875000000+91875000000+91562500000+91562500000
3747+91562500000+91562500000+91562500000+91562500000+91562500000+91875000000
3716+91875000000+91875000000+91875000000+91875000000+91875000000+91562500000
3684+91562500000+91562500000+91562500000+91562500000+91875000000+91875000000
3653+91875000000+91875000000+91875000000+91875000000+91250000000+90937500000
3621+90312500000+89687500000+89687500000+90000000000+90312500000+90937500000
3589+91562500000+91875000000+92187500000+92187500000+92500000000+92500000000
3558+92812500000+92812500000+92500000000+92500000000+92500000000+92812500000
3526+92812500000+92812500000+92812500000+92812500000+92812500000+92812500000
3495+92812500000+92812500000+92812500000+92812500000+92500000000+92500000000
3463+92500000000+92500000000+92500000000+92187500000+92187500000+92187500000
3432+92187500000+91875000000+91875000000+91562500000+90937500000+90937500000
3400+90625000000+90312500000+90000000000+89062500000+87500000000+86875000000
3368+85625000000+85000000000+82812500000+78750000000+76562500000+76562500000
3337+78750000000+82500000000+82187500000+81875000000+80937500000+79375000000
3305+78437500000+78750000000+81250000000+85937500000+85312500000+78125000000
3274+63750000000+61875000000+69687500000+83125000000+87187500000+88750000000
3242+89375000000+89062500000+89062500000+88437500000+89062500000+90937500000
3211+91562500000+91562500000+89375000000+86875000000+87500000000+91562500000
3179+93125000000+93750000000+93750000000+93750000000+93750000000+94062500000
3147+94062500000+94062500000+94375000000+94375000000+94375000000+94375000000
3116+94375000000+94375000000+94375000000+94375000000+94375000000+94375000000
3084+94375000000+94375000000+94375000000+94062500000+93750000000+93437500000
3053+93437500000+93750000000+94062500000+94062500000+94062500000+94062500000
3021+94062500000+94062500000+94062500000+94062500000+94062500000+94062500000
2989+94062500000+94062500000+94062500000+94062500000+94062500000+94062500000
2958+94062500000+94062500000+94062500000+94062500000+94375000000+94375000000
2926+94687500000+94687500000+94687500000+94375000000+94062500000+93750000000
2895+93750000000+93750000000+94062500000+94375000000+94687500000+94687500000
2863+94687500000+94687500000+94687500000+94375000000+94375000000+94375000000
2832+94375000000+94062500000+94062500000+94062500000+94375000000+94375000000
2800+94375000000+94375000000+94375000000+94375000000+94375000000+94375000000
2768+94375000000+94687500000+94687500000+94687500000+94375000000+94062500000
2737+93750000000+93750000000+93750000000+94062500000+94375000000+94687500000
2705+94687500000+94687500000+94062500000+93437500000+93125000000+93125000000
2674+93125000000+93125000000+93750000000+94375000000+94375000000+94375000000
2642+94062500000+94062500000+93750000000+93437500000+93437500000+93750000000
2611+94062500000+94062500000+94062500000+93750000000+93437500000+93125000000
2579+92500000000+92187500000+91875000000+91562500000+90937500000+90625000000
2547+90625000000+90625000000+90625000000+90625000000+90625000000+90937500000
2516+90937500000+91250000000+91562500000+91562500000+91875000000+91875000000
2484+92187500000+91875000000+91875000000+91875000000+91562500000+91562500000
2453+91250000000+91250000000+91250000000+90937500000+90937500000+90937500000
2421+91250000000+91250000000+91250000000+91562500000+91562500000+91562500000
2389+91250000000+90937500000+90625000000+89687500000+89375000000+89062500000
2358+89062500000+89062500000+88750000000+88750000000+88437500000+88125000000
2326+88125000000+87812500000+87500000000+87187500000+86875000000+85937500000
2295+85000000000+83437500000+81250000000+77500000000+71250000000+58750000000
2263+40000000000+22187500000+12812500000+7500000000+5312500000+4687500000
2232+5000000000+7187500000+13437500000+26250000000+40937500000+52500000000
2200+62500000000+68437500000+72500000000+73750000000+74687500000+76250000000
2168+79062500000+80937500000+83125000000+83750000000+84687500000+85312500000
2137+85625000000+85625000000+85937500000+86250000000+87187500000+88125000000
2105+89062500000+89062500000+88125000000+85312500000+83437500000+81562500000
2074+81562500000+82500000000+84375000000+81562500000+71250000000+70312500000
2042+73125000000+80625000000+83437500000+85000000000+80000000000+75625000000
2011+76250000000+81875000000+85000000000+86875000000+88125000000+88750000000
1979+89062500000+89375000000+89062500000+88437500000+87812500000+87187500000
1947+86250000000+84375000000+81250000000+70000000000+47187500000+40625000000
1916+51250000000+69062500000+76875000000+80625000000+83750000000+82812500000
1884+80937500000+80000000000+77187500000+68437500000+48437500000+38749999999
1853+42187500000+58437500000+65625000000+65625000000+53750000000+44687500000
1821+44999999999+55937500000+65937500000+79375000000+84687500000+86562500000
1789+87500000000+88125000000+88437500000+88437500000+88437500000+87187500000
1758+85625000000+84687500000+79687500000+66250000000+61250000000+62812500000
1726+70000000000+74375000000+71562500000+71875000000+75937500000+68750000000
1695+49687499999+42187500000+42812500000+60312500000+72187500000+77500000000
1663+77500000000+76562500000+74687500000+70000000000+62187500000+47500000000
1632+30312500000+19062500000+12187500000+9687500000+9687500000+12500000000
1600+20937500000+34687500000+50312500000+64375000000+72812500000+77812500000
1568+80625000000+82187500000+83125000000+82500000000+80625000000+78437500000
1537+73125000000+61875000000+43750000000+29062500000+16562500000+11562500000
1505+9062500000+9062500000+12500000000+23437500000+32812500000+40312499999
1474+55000000000+68437500000+73437500000+72500000000+67812500000+55625000000
1442+33437500000+18750000000+15000000000+15000000000+22187500000+40312499999
1411+63125000000+73750000000+79062500000+82187500000+84375000000+84375000000
1379+84062500000+84375000000+86250000000+87500000000+87812500000+85937500000
1347+79375000000+74375000000+76562500000+80000000000+68437500000+51562500000
1316+52187500000+68750000000+79062500000+78437500000+78437500000+80937500000
1284+86250000000+88437500000+89062500000+85937500000+79375000000+63125000000
1253+50000000000+49687499999+62187500000+75312500000+81875000000+85937500000
1221+88437500000+89375000000+88750000000+87187500000+84687500000+81562500000
1189+77187500000+64062500000+48437500000+41874999999+41874999999+47187500000
1158+65625000000+79062500000+85625000000+88125000000+89687500000+88437500000
1126+87500000000+85937500000+85312500000+85625000000+85000000000+80000000000
1095+76875000000+76250000000+76250000000+76562500000+78125000000+85000000000
1063+90000000000+91250000000+91562500000+91250000000+91250000000+92500000000
1032+93125000000+92812500000+92187500000+91250000000+89687500000+86250000000
1000+80937500000+63437500000+34687500000+24062500000+24062500000+40312499999
968+53125000000+31562500000+28125000000+35625000000+67500000000+79062500000
937+78437500000+80937500000+82500000000+75625000000+61562500000+41250000000
905+24062500000+17812500000+17812500000+25625000000+47500000000+58750000000
874+67500000000+77812500000+83750000000+87812500000+89375000000+90937500000
842+91250000000+91875000000+90937500000+87812500000+63750000000+46875000000
811+60312500000+83437500000+88437500000+90937500000+91562500000+91875000000
779+92187500000+92500000000+92812500000+93125000000+93125000000+92812500000
747+90937500000+86875000000+80000000000+79375000000+80625000000+83750000000
716+86875000000+89687500000+90937500000+92187500000+92187500000+92500000000
684+92812500000+91875000000+90312500000+87812500000+78437500000+78125000000
653+82500000000+88750000000+90312500000+90937500000+91562500000+92500000000
621+93437500000+94375000000+94687500000+94375000000+92187500000+88125000000
589+76562500000+74687500000+80625000000+89375000000+90625000000+90937500000
558+89687500000+89375000000+88750000000+88437500000+88437500000+88125000000
526+87812500000+87500000000+87187500000+86250000000+85937500000+85625000000
495+85312500000+85312500000+85625000000+86250000000+87187500000+88125000000
463+89687500000+90625000000+89687500000+86875000000+83437500000+78125000000
432+73125000000+69062500000+66250000000+64375000000+62812500000+62187500000
400+61250000000
##END=
