##TITLE=methyl chloroacetate
##JCAMP-DX=4.24
##DATA TYPE=INFRARED SPECTRUM
##DATE=10/06/2025
##SAMPLING PROCEDURE=ATR
##ORIGIN=SDBS
##XUNITS=1/CM
##YUNITS=TRANSMITTANCE
##RESOLUTION=5.2631578947368425
##FIRSTX=4000.0
##LASTX=400.0
##DELTAX=-5.2631578947368425
##MAXY=95.0
##MINY=0.0
##XFACTOR=1
##YFACTOR=1
##NPOINTS=685
##FIRSTY=0.0
##XYDATA=(X++(Y..Y))
4000+0+87500000000+87500000000+87500000000+87500000000+87500000000
3968+87500000000+87500000000+87812500000+87812500000+88125000000+88125000000
3937+88437500000+88437500000+88437500000+88437500000+88437500000+88437500000
3905+88437500000+88437500000+88437500000+88750000000+88750000000+88750000000
3874+88750000000+88750000000+88750000000+88750000000+88750000000+89062500000
3842+88750000000+88750000000+88750000000+88750000000+88750000000+88750000000
3811+88750000000+89062500000+89062500000+89375000000+89062500000+89062500000
3779+89062500000+89062500000+89062500000+89062500000+88750000000+88750000000
3747+88750000000+88437500000+88437500000+88437500000+88125000000+88125000000
3716+87812500000+87500000000+87500000000+87500000000+87500000000+87812500000
3684+87812500000+87500000000+87187500000+86875000000+86250000000+86250000000
3653+85937500000+86250000000+86250000000+86562500000+86875000000+86875000000
3621+87187500000+87500000000+88125000000+88437500000+88750000000+89062500000
3589+89375000000+89375000000+89375000000+89375000000+89375000000+89375000000
3558+89375000000+89375000000+89375000000+89375000000+89062500000+89062500000
3526+89062500000+89062500000+89062500000+88750000000+88750000000+88750000000
3495+88750000000+88750000000+88750000000+88750000000+88750000000+88750000000
3463+88437500000+88437500000+88437500000+88437500000+88437500000+88437500000
3432+88437500000+88437500000+88437500000+88437500000+88437500000+88125000000
3400+88125000000+87812500000+87812500000+87500000000+87187500000+86875000000
3368+86250000000+85625000000+85000000000+84062500000+82187500000+79062500000
3337+75000000000+71875000000+68437500000+64687500000+61250000000+61250000000
3305+63750000000+70312500000+72812500000+67500000000+52812500000+38125000000
3274+37812500000+55000000000+72187500000+79687500000+82500000000+84375000000
3242+84375000000+84375000000+84375000000+85312500000+88125000000+88437500000
3211+87187500000+82187500000+80312500000+82500000000+88750000000+90312500000
3179+91250000000+91875000000+92187500000+92187500000+92500000000+92812500000
3147+92812500000+92812500000+92812500000+92812500000+92812500000+92812500000
3116+93125000000+93125000000+93125000000+93125000000+93125000000+93125000000
3084+93125000000+93125000000+92812500000+92500000000+92500000000+92500000000
3053+92500000000+92500000000+92500000000+92500000000+92500000000+92500000000
3021+92500000000+92812500000+92812500000+93125000000+93125000000+93437500000
2989+93125000000+93125000000+92812500000+92812500000+92812500000+92812500000
2958+92812500000+92812500000+93125000000+93437500000+93437500000+93437500000
2926+93437500000+93437500000+93437500000+93437500000+93437500000+93437500000
2895+93437500000+93437500000+93437500000+93125000000+93125000000+93125000000
2863+93125000000+93437500000+93437500000+93437500000+93437500000+93437500000
2832+93750000000+93750000000+93750000000+94062500000+94375000000+94687500000
2800+94687500000+95000000000+94687500000+94687500000+94687500000+94687500000
2768+94375000000+93750000000+93437500000+93437500000+93437500000+93437500000
2737+93437500000+93125000000+93125000000+93125000000+93125000000+93125000000
2705+93437500000+93437500000+93437500000+93125000000+92500000000+91250000000
2674+90937500000+90937500000+90937500000+91250000000+91562500000+91875000000
2642+92187500000+92812500000+92500000000+92187500000+91875000000+91562500000
2611+91250000000+91250000000+91250000000+91562500000+91562500000+91875000000
2579+91875000000+92187500000+92500000000+92812500000+93125000000+93125000000
2547+93437500000+93750000000+93750000000+94062500000+94062500000+94062500000
2516+94062500000+94062500000+94062500000+94062500000+94062500000+93750000000
2484+93437500000+93125000000+92812500000+92187500000+91562500000+90937500000
2453+90312500000+89687500000+89687500000+89687500000+89687500000+89687500000
2421+89687500000+89687500000+90000000000+90000000000+89687500000+89687500000
2389+89062500000+88437500000+87812500000+87187500000+86250000000+85312500000
2358+84062500000+82500000000+80625000000+77812500000+75312500000+71562500000
2326+66562500000+59375000000+49687499999+35937500000+20625000000+11875000000
2295+8750000000+6562500000+5000000000+4687500000+4687500000+5312500000
2263+5937500000+6562500000+7500000000+8750000000+11562500000+16250000000
2232+24375000000+33125000000+42187500000+50000000000+57187500000+62500000000
2200+67812500000+72187500000+75625000000+78125000000+80937500000+83125000000
2168+84687500000+85937500000+87187500000+88125000000+89375000000+89687500000
2137+90000000000+90000000000+90312500000+90312500000+90312500000+90312500000
2105+90312500000+90312500000+90625000000+90625000000+90625000000+90625000000
2074+90625000000+90625000000+90625000000+90625000000+90312500000+90312500000
2042+90000000000+89375000000+88750000000+88125000000+87187500000+86875000000
2011+86875000000+86875000000+87187500000+87500000000+88125000000+88437500000
1979+89062500000+89062500000+88750000000+88125000000+87812500000+87500000000
1947+87187500000+86562500000+85937500000+85312500000+84375000000+84062500000
1916+84062500000+83750000000+83437500000+82187500000+80937500000+79062500000
1884+75625000000+71562500000+65000000000+57500000000+52500000000+50000000000
1853+44999999999+38437500000+27187500000+17500000000+16250000000+22812500000
1821+43125000000+53437500000+50937500000+42812500000+39375000000+40312499999
1789+49062500000+62500000000+70625000000+75937500000+78125000000+80000000000
1758+81250000000+81875000000+81875000000+81562500000+80937500000+80312500000
1726+79375000000+77812500000+75625000000+73437500000+69687500000+64375000000
1695+56562500000+47812500000+34375000000+20625000000+12812500000+11250000000
1663+11250000000+14062500000+18125000000+18437500000+18125000000+18437500000
1632+21250000000+25625000000+28750000000+30625000000+32187500000+32187500000
1600+30625000000+30625000000+32500000000+36250000000+39375000000+42812500000
1568+45625000000+47812500000+49375000000+49062500000+46250000000+42500000000
1537+36875000000+29375000000+21250000000+15000000000+10312500000+8437500000
1505+8437500000+9375000000+11875000000+16250000000+17812500000+15312500000
1474+13125000000+12812500000+13125000000+15625000000+19375000000+24687500000
1442+29687500000+33437500000+35937500000+38125000000+40937500000+44687500000
1411+51875000000+59375000000+66562500000+70937500000+75625000000+79062500000
1379+81562500000+83125000000+85000000000+86562500000+87500000000+88125000000
1347+88437500000+88750000000+89062500000+89375000000+89687500000+89687500000
1316+90000000000+89687500000+89687500000+89062500000+88437500000+87500000000
1284+85937500000+83437500000+80000000000+74062500000+65937500000+55312500000
1253+41250000000+30000000000+24687500000+23750000000+24062500000+25000000000
1221+30937500000+40625000000+52812500000+62187500000+71250000000+78125000000
1189+82812500000+85312500000+87187500000+88437500000+89062500000+89375000000
1158+88750000000+87187500000+84687500000+79687500000+71562500000+66250000000
1126+66250000000+72812500000+81250000000+85625000000+88125000000+89062500000
1095+89375000000+88437500000+86250000000+81250000000+69687500000+64375000000
1063+65000000000+72187500000+79062500000+81875000000+83750000000+84687500000
1032+84687500000+85000000000+85000000000+85312500000+86250000000+86875000000
1000+87500000000+88125000000+88125000000+87812500000+87187500000+86250000000
968+84687500000+82187500000+77500000000+68437500000+51562500000+37187499999
937+33125000000+33750000000+40312499999+46875000000+49375000000+55625000000
905+64687500000+72187500000+77187500000+80625000000+82812500000+84375000000
874+85000000000+85625000000+85625000000+85000000000+84687500000+83750000000
842+82187500000+80000000000+75937500000+71562500000+67812500000+66875000000
811+67187500000+68437500000+69687500000+67500000000+66250000000+66562500000
779+71250000000+77187500000+80937500000+84062500000+85625000000+86875000000
747+87500000000+88125000000+88125000000+88437500000+88437500000+88750000000
716+88750000000+88750000000+88437500000+88437500000+87812500000+87187500000
684+85937500000+83750000000+80625000000+78437500000+76250000000+75312500000
653+74375000000+73437500000+70000000000+64687500000+63437500000+64687500000
621+72812500000+81562500000+86875000000+89687500000+91250000000+92812500000
589+93437500000+94062500000+94062500000+94062500000+93750000000+93750000000
558+93437500000+93437500000+93125000000+92812500000+92187500000+91562500000
526+90937500000+90312500000+90000000000+89687500000+89375000000+89375000000
495+89687500000+90000000000+90312500000+90937500000+91250000000+91250000000
463+90937500000+89687500000+87812500000+85312500000+82812500000+79375000000
432+75625000000+70625000000+66562500000+61875000000+58125000000+55312500000
400+54062500000
##END=
