##TITLE=methyl 5-acetyl-2-furoate
##JCAMP-DX=4.24
##DATA TYPE=INFRARED SPECTRUM
##DATE=10/06/2025
##SAMPLING PROCEDURE=ATR
##ORIGIN=SDBS
##XUNITS=1/CM
##YUNITS=TRANSMITTANCE
##RESOLUTION=5.2631578947368425
##FIRSTX=4000.0
##LASTX=400.0
##DELTAX=-5.2631578947368425
##MAXY=95.0
##MINY=0.0
##XFACTOR=1
##YFACTOR=1
##NPOINTS=685
##FIRSTY=0.0
##XYDATA=(X++(Y..Y))
4000+0+85000000000+85000000000+84687500000+84687500000+84687500000
3968+84687500000+84375000000+84375000000+84375000000+84375000000+84375000000
3937+84375000000+84687500000+84375000000+84375000000+84375000000+84375000000
3905+84375000000+84687500000+84687500000+85000000000+85000000000+84375000000
3874+84375000000+84375000000+84375000000+84687500000+85312500000+85625000000
3842+85312500000+85000000000+85000000000+85000000000+85000000000+85312500000
3811+85312500000+85312500000+85625000000+85625000000+85312500000+85000000000
3779+85000000000+85000000000+85312500000+85625000000+85937500000+85937500000
3747+85937500000+85937500000+85937500000+85625000000+85937500000+85937500000
3716+85937500000+86250000000+86250000000+86250000000+86250000000+86250000000
3684+86562500000+86562500000+86562500000+86250000000+85625000000+85625000000
3653+85625000000+85625000000+85625000000+85312500000+85000000000+84687500000
3621+84687500000+85000000000+85312500000+85937500000+86250000000+86250000000
3589+85937500000+85625000000+85625000000+85312500000+85000000000+85000000000
3558+85000000000+85000000000+84687500000+84062500000+83750000000+83750000000
3526+84062500000+84062500000+84375000000+84375000000+84687500000+84687500000
3495+84687500000+84375000000+84375000000+84062500000+83750000000+83437500000
3463+83125000000+83125000000+82812500000+82812500000+82812500000+82812500000
3432+83125000000+83437500000+83750000000+82812500000+77187500000+74062500000
3400+78437500000+66250000000+65937500000+65937500000+70312500000+79062500000
3368+81250000000+82500000000+82812500000+82500000000+81875000000+81250000000
3337+80937500000+80625000000+79062500000+77812500000+76562500000+74375000000
3305+72187500000+66875000000+58750000000+44687500000+25625000000+16875000000
3274+15625000000+16875000000+10312500000+5312500000+4687500000+5312500000
3242+11875000000+18750000000+25625000000+32187500000+34687500000+30000000000
3211+24687500000+17812500000+18125000000+36250000000+60312500000+73125000000
3179+79687500000+82500000000+84375000000+85312500000+85937500000+86250000000
3147+86562500000+86875000000+87500000000+87500000000+87500000000+87500000000
3116+87500000000+87500000000+87812500000+87812500000+87812500000+87500000000
3084+87500000000+87812500000+88125000000+88125000000+88437500000+88437500000
3053+88437500000+88437500000+88750000000+89062500000+89062500000+89062500000
3021+89375000000+89375000000+89687500000+89687500000+90000000000+90000000000
2989+90312500000+90312500000+90625000000+90625000000+90625000000+90625000000
2958+90937500000+90937500000+90937500000+90625000000+90625000000+90625000000
2926+90625000000+90625000000+90937500000+90937500000+90937500000+90937500000
2895+91250000000+91562500000+91250000000+90937500000+90937500000+90937500000
2863+90937500000+90937500000+90937500000+90937500000+90937500000+90937500000
2832+90937500000+90937500000+91250000000+91562500000+91875000000+91875000000
2800+91875000000+91875000000+92187500000+92187500000+92187500000+92187500000
2768+92187500000+92187500000+92187500000+92500000000+92812500000+92812500000
2737+92812500000+92812500000+92812500000+92812500000+92812500000+92812500000
2705+93125000000+93125000000+93125000000+93437500000+93125000000+93125000000
2674+93125000000+93125000000+93125000000+93437500000+93437500000+93437500000
2642+93437500000+93437500000+93437500000+93437500000+93750000000+94062500000
2611+94062500000+94062500000+94062500000+94062500000+94062500000+94062500000
2579+94062500000+94062500000+94062500000+94062500000+93750000000+94062500000
2547+94062500000+94062500000+94375000000+94375000000+94375000000+94687500000
2516+94375000000+94375000000+94375000000+94375000000+94062500000+94062500000
2484+94062500000+94375000000+94375000000+94375000000+94375000000+94687500000
2453+94687500000+94687500000+94687500000+94687500000+94687500000+95000000000
2421+95000000000+94687500000+94687500000+94687500000+94375000000+94375000000
2389+94062500000+93750000000+93750000000+93437500000+93125000000+93125000000
2358+92812500000+92500000000+91562500000+90312500000+89375000000+89062500000
2326+89062500000+89062500000+89062500000+88437500000+86875000000+85312500000
2295+82812500000+79062500000+73125000000+64687500000+54062500000+41874999999
2263+33437500000+27500000000+27500000000+30312500000+36875000000+45625000000
2232+55312500000+62187500000+66875000000+72187500000+76875000000+80000000000
2200+83437500000+83125000000+83125000000+82812500000+71250000000+41874999999
2168+34375000000+29687500000+28437500000+34375000000+50625000000+62812500000
2137+70312500000+74062500000+76562500000+76875000000+78125000000+80625000000
2105+80937500000+81562500000+82812500000+84062500000+85000000000+85937500000
2074+87187500000+87500000000+87500000000+87500000000+87812500000+88125000000
2042+88125000000+87500000000+84062500000+80625000000+79062500000+70312500000
2011+65625000000+69062500000+80937500000+84062500000+86875000000+88125000000
1979+89062500000+89375000000+89375000000+89687500000+90000000000+90000000000
1947+90312500000+90312500000+89375000000+85625000000+83125000000+83125000000
1916+84375000000+85625000000+87187500000+86562500000+84687500000+81250000000
1884+74375000000+63125000000+52187500000+50000000000+49687499999+50000000000
1853+51875000000+56875000000+58437500000+44375000000+38749999999+49687499999
1821+69687500000+77812500000+81250000000+83750000000+85937500000+87187500000
1789+87500000000+87187500000+86562500000+85937500000+82500000000+75000000000
1758+70000000000+63437500000+61250000000+62500000000+67500000000+65625000000
1726+63750000000+62812500000+63750000000+68750000000+73437500000+75937500000
1695+74687500000+71875000000+68125000000+65625000000+53750000000+46875000000
1663+44375000000+38437500000+37500000000+41562500000+63125000000+59687500000
1632+47812500000+41250000000+35625000000+34687500000+32812500000+32500000000
1600+32812500000+37187499999+43437499999+49375000000+55312500000+64375000000
1568+71562500000+75000000000+52500000000+40625000000+41250000000+51562500000
1537+60000000000+66875000000+72187500000+77187500000+79687500000+79687500000
1505+71562500000+58437500000+53125000000+53750000000+61562500000+67187500000
1474+72500000000+75937500000+77187500000+75000000000+69062500000+57187500000
1442+54062500000+55937500000+62500000000+69375000000+74375000000+77187500000
1411+80000000000+81562500000+83125000000+80625000000+73437500000+70000000000
1379+70000000000+74687500000+79062500000+82187500000+83750000000+84687500000
1347+85312500000+85625000000+86250000000+86875000000+87500000000+88125000000
1316+89062500000+89375000000+89687500000+89375000000+88125000000+75312500000
1284+42500000000+46562499999+73437500000+80312500000+83125000000+84687500000
1253+85625000000+85937500000+86250000000+86562500000+86250000000+85937500000
1221+85625000000+85312500000+85000000000+84375000000+82187500000+73125000000
1189+62187500000+61250000000+68125000000+78437500000+83437500000+86562500000
1158+88125000000+89687500000+85937500000+79375000000+80625000000+85625000000
1126+87500000000+70937500000+68750000000+83125000000+87500000000+88750000000
1095+89062500000+89062500000+89375000000+89375000000+89375000000+89375000000
1063+89375000000+89375000000+89375000000+89687500000+90000000000+90312500000
1032+90625000000+90937500000+91250000000+91250000000+90937500000+89687500000
1000+87500000000+81562500000+62187500000+57187500000+70312500000+83750000000
968+87812500000+90625000000+90625000000+83750000000+60625000000+73750000000
937+87812500000+90625000000+92187500000+91562500000+90000000000+87812500000
905+69375000000+48437500000+57500000000+85625000000+90312500000+91250000000
874+91562500000+91562500000+90937500000+90000000000+89687500000+89062500000
842+89062500000+89062500000+89687500000+90625000000+91562500000+92500000000
811+93437500000+94375000000+94687500000+94687500000+94687500000+94687500000
779+94687500000+94687500000+94687500000+94687500000+94687500000+94687500000
747+94687500000+94062500000+91875000000+86875000000+66250000000+64375000000
716+75000000000+84687500000+87812500000+90000000000+89687500000+89687500000
684+90000000000+90312500000+90625000000+90625000000+90937500000+91250000000
653+91562500000+91562500000+91562500000+91562500000+90937500000+90937500000
621+90312500000+90000000000+90000000000+90000000000+90000000000+90000000000
589+90625000000+90937500000+91250000000+91562500000+91875000000+91875000000
558+91875000000+91562500000+90937500000+90312500000+89687500000+89062500000
526+88750000000+88750000000+88437500000+88437500000+88437500000+88125000000
495+87500000000+86875000000+85937500000+85312500000+84687500000+84062500000
463+83437500000+82500000000+80625000000+77500000000+74687500000+71250000000
432+68437500000+66562500000+65625000000+65312500000+65312500000+65625000000
400+65625000000
##END=
