##TITLE=methyl trifluoroacetate
##JCAMP-DX=4.24
##DATA TYPE=INFRARED SPECTRUM
##DATE=10/06/2025
##SAMPLING PROCEDURE=ATR
##ORIGIN=SDBS
##XUNITS=1/CM
##YUNITS=TRANSMITTANCE
##RESOLUTION=5.2631578947368425
##FIRSTX=4000.0
##LASTX=400.0
##DELTAX=-5.2631578947368425
##MAXY=94.6875
##MINY=0.0
##XFACTOR=1
##YFACTOR=1
##NPOINTS=685
##FIRSTY=0.0
##XYDATA=(X++(Y..Y))
4000+0+76562500000+76562500000+76562500000+76562500000+76562500000
3968+76250000000+76250000000+76250000000+76250000000+76562500000+76875000000
3937+76875000000+77187500000+77187500000+76875000000+76875000000+76875000000
3905+77187500000+77812500000+78125000000+78125000000+78125000000+78125000000
3874+78125000000+78125000000+78437500000+78437500000+78437500000+78437500000
3842+78125000000+78125000000+78437500000+78437500000+78750000000+78750000000
3811+79062500000+79375000000+79375000000+79062500000+78750000000+78437500000
3779+78437500000+78437500000+78437500000+78437500000+78125000000+77500000000
3747+77187500000+76875000000+76875000000+76562500000+76562500000+76250000000
3716+75625000000+75000000000+74687500000+74375000000+74375000000+74687500000
3684+75000000000+75625000000+75625000000+75937500000+76250000000+75937500000
3653+75937500000+76250000000+75937500000+75937500000+75625000000+75312500000
3621+75312500000+75312500000+75312500000+75312500000+75312500000+75000000000
3589+74687500000+74687500000+74687500000+74687500000+75000000000+75312500000
3558+75312500000+75625000000+75625000000+75625000000+75625000000+75625000000
3526+75312500000+75312500000+75312500000+75625000000+75625000000+75625000000
3495+75625000000+75625000000+75625000000+75312500000+75312500000+75625000000
3463+75937500000+76562500000+76562500000+76875000000+77187500000+77500000000
3432+77812500000+78125000000+78125000000+78437500000+78437500000+78750000000
3400+79375000000+79687500000+80000000000+80312500000+80625000000+81250000000
3368+81250000000+81250000000+80937500000+80625000000+80312500000+80000000000
3337+79375000000+78750000000+78750000000+78750000000+79062500000+80000000000
3305+80625000000+79062500000+75312500000+66875000000+63125000000+66875000000
3274+74375000000+77500000000+79062500000+78125000000+77187500000+76875000000
3242+77187500000+78750000000+80312500000+80625000000+79687500000+79687500000
3211+79687500000+79687500000+80312500000+81875000000+83750000000+85000000000
3179+85625000000+86250000000+86562500000+86875000000+86875000000+87187500000
3147+87500000000+87812500000+87812500000+87500000000+87500000000+87500000000
3116+87812500000+88125000000+88437500000+88437500000+88437500000+88437500000
3084+88437500000+88750000000+88750000000+89062500000+88750000000+88437500000
3053+88437500000+88437500000+88437500000+88437500000+88437500000+88437500000
3021+88125000000+88125000000+88125000000+88125000000+88437500000+88750000000
2989+89062500000+89375000000+89687500000+89375000000+89062500000+89062500000
2958+89375000000+89687500000+90000000000+90312500000+90312500000+90625000000
2926+90625000000+90625000000+90625000000+90312500000+90312500000+90312500000
2895+90625000000+90937500000+90937500000+90625000000+90625000000+90625000000
2863+90625000000+90625000000+90937500000+90937500000+91250000000+91250000000
2832+91562500000+91875000000+91875000000+91875000000+91875000000+92187500000
2800+92500000000+92500000000+92812500000+92500000000+92187500000+91875000000
2768+91562500000+91250000000+91250000000+91875000000+92187500000+92500000000
2737+92812500000+93125000000+93125000000+92812500000+92812500000+92812500000
2705+92812500000+92812500000+92500000000+92187500000+92187500000+92187500000
2674+91875000000+91875000000+91875000000+91875000000+91875000000+91875000000
2642+91875000000+91562500000+91250000000+91250000000+91250000000+91250000000
2611+90937500000+90937500000+90625000000+90625000000+90312500000+90312500000
2579+90312500000+90312500000+90312500000+90312500000+90625000000+90625000000
2547+90625000000+90625000000+90625000000+90625000000+90312500000+90312500000
2516+90000000000+89687500000+89687500000+89687500000+89375000000+89375000000
2484+89375000000+89375000000+89375000000+89062500000+89062500000+89062500000
2453+88750000000+88437500000+88125000000+87812500000+87500000000+86875000000
2421+86250000000+85625000000+84687500000+83437500000+82187500000+80937500000
2389+78750000000+75625000000+71875000000+68437500000+61875000000+53437500000
2358+43437499999+32500000000+20312500000+13125000000+10937500000+9375000000
2326+8750000000+8750000000+10000000000+13125000000+20937500000+31875000000
2295+44375000000+55312500000+65312500000+71875000000+75000000000+75625000000
2263+75000000000+74687500000+74687500000+74687500000+77187500000+80937500000
2232+83125000000+84062500000+84375000000+83750000000+83125000000+82187500000
2200+80937500000+79687500000+78750000000+77812500000+77187500000+76875000000
2168+76875000000+77187500000+77500000000+78125000000+78750000000+80000000000
2137+81250000000+82500000000+83437500000+83750000000+84375000000+85000000000
2105+85625000000+86250000000+86562500000+86875000000+87187500000+87500000000
2074+88125000000+88437500000+89062500000+89687500000+90000000000+90312500000
2042+90625000000+90625000000+90625000000+90312500000+89687500000+89062500000
2011+87812500000+85625000000+84687500000+84687500000+85937500000+87187500000
1979+88750000000+88750000000+87812500000+86875000000+85937500000+85000000000
1947+83750000000+82187500000+81250000000+80625000000+80625000000+80312500000
1916+80000000000+78750000000+77187500000+75312500000+74062500000+72500000000
1884+69375000000+66562500000+61875000000+56562500000+53750000000+51562500000
1853+45625000000+38437500000+40000000000+56562500000+62500000000+65937500000
1821+68125000000+69062500000+69375000000+69375000000+69062500000+68750000000
1789+68437500000+67812500000+65937500000+64375000000+61562500000+56875000000
1758+50312500000+44375000000+32187500000+19687500000+15625000000+15937500000
1726+21875000000+37187499999+50312500000+57812500000+62187500000+66250000000
1695+68437500000+69375000000+69375000000+69062500000+69062500000+69062500000
1663+69375000000+69687500000+69687500000+69687500000+69687500000+69062500000
1632+68125000000+67187500000+65625000000+63437500000+60625000000+58125000000
1600+53750000000+48750000000+43125000000+37812500000+31562500000+25000000000
1568+19687500000+15312500000+12187500000+10000000000+8750000000+8125000000
1537+7812500000+7812500000+7812500000+7500000000+6875000000+6562500000
1505+6562500000+7812500000+9062500000+9375000000+8437500000+7500000000
1474+6562500000+5625000000+5312500000+5312500000+5312500000+5937500000
1442+6250000000+5937500000+5000000000+4687500000+4687500000+5312500000
1411+9062500000+15625000000+25000000000+34062500000+44375000000+52500000000
1379+60000000000+65312500000+70312500000+73750000000+76875000000+78750000000
1347+80625000000+81875000000+82500000000+83125000000+83750000000+84062500000
1316+84687500000+85312500000+85625000000+85937500000+85937500000+85625000000
1284+85312500000+84687500000+84375000000+84062500000+83750000000+83750000000
1253+83750000000+84062500000+84375000000+85000000000+85937500000+86875000000
1221+87812500000+89062500000+90000000000+90312500000+90000000000+88750000000
1189+86562500000+82500000000+75937500000+73437500000+73437500000+75000000000
1158+78750000000+82812500000+85625000000+87500000000+89375000000+90625000000
1126+91250000000+91875000000+92812500000+93125000000+93437500000+93750000000
1095+94062500000+94687500000+94687500000+94687500000+94062500000+91875000000
1063+89375000000+85000000000+83125000000+83125000000+84687500000+85625000000
1032+86562500000+85000000000+81875000000+72500000000+48750000000+39687500000
1000+43750000000+70000000000+80937500000+84375000000+86562500000+87187500000
968+86250000000+85937500000+85000000000+84687500000+84062500000+83437500000
937+80625000000+76250000000+60312500000+36562500000+35937500000+63750000000
905+84375000000+89375000000+90937500000+92187500000+92500000000+90312500000
874+84375000000+79375000000+70000000000+34687500000+26562500000+58750000000
842+80625000000+85937500000+88437500000+90625000000+91562500000+91875000000
811+92187500000+92500000000+92500000000+92500000000+92500000000+92187500000
779+92187500000+92187500000+92187500000+92187500000+92187500000+92187500000
747+91562500000+91250000000+90937500000+90937500000+90625000000+90625000000
716+90625000000+90312500000+90312500000+90312500000+90312500000+90000000000
684+89375000000+88750000000+87812500000+87187500000+86875000000+86562500000
653+86250000000+85937500000+85937500000+85937500000+86250000000+86875000000
621+87500000000+88750000000+90000000000+91562500000+92187500000+91875000000
589+90000000000+86250000000+82812500000+80937500000+78125000000+78437500000
558+80625000000+80937500000+81875000000+82812500000+83437500000+84375000000
526+84687500000+85000000000+84687500000+84375000000+84375000000+84375000000
495+85000000000+86250000000+88125000000+89687500000+90937500000+89375000000
463+87187500000+84375000000+81562500000+79375000000+78125000000+75937500000
432+72187500000+67187500000+62500000000+57187500000+52500000000+49687499999
400+48437500000
##END=
