##TITLE=methyl 5-bromo-2-thiopheneacrylate
##JCAMP-DX=4.24
##DATA TYPE=INFRARED SPECTRUM
##DATE=10/06/2025
##SAMPLING PROCEDURE=ATR
##ORIGIN=SDBS
##XUNITS=1/CM
##YUNITS=TRANSMITTANCE
##RESOLUTION=5.2631578947368425
##FIRSTX=4000.0
##LASTX=400.0
##DELTAX=-5.2631578947368425
##MAXY=95.0
##MINY=0.0
##XFACTOR=1
##YFACTOR=1
##NPOINTS=685
##FIRSTY=0.0
##XYDATA=(X++(Y..Y))
4000+0+87187500000+87187500000+87187500000+87187500000+86875000000
3968+86875000000+86875000000+86875000000+86562500000+86562500000+86562500000
3937+86562500000+86562500000+86562500000+86562500000+86250000000+85937500000
3905+85625000000+85625000000+85937500000+85937500000+86250000000+85937500000
3874+85625000000+85312500000+85000000000+85000000000+85000000000+85000000000
3842+85000000000+85000000000+85000000000+85312500000+85312500000+85312500000
3811+85625000000+85312500000+85312500000+85312500000+85312500000+85312500000
3779+85000000000+85000000000+85000000000+84687500000+84687500000+84687500000
3747+84687500000+84687500000+84687500000+84687500000+85312500000+85312500000
3716+85625000000+85625000000+85937500000+85937500000+85937500000+85937500000
3684+85937500000+85937500000+85625000000+85312500000+85000000000+85000000000
3653+85000000000+85000000000+85000000000+85000000000+85000000000+85000000000
3621+85000000000+84687500000+84687500000+84375000000+84375000000+84375000000
3589+84375000000+84375000000+84375000000+84062500000+84062500000+84062500000
3558+84375000000+84375000000+84375000000+84062500000+83750000000+83750000000
3526+83750000000+83750000000+84062500000+84062500000+84375000000+84375000000
3495+84375000000+84375000000+84375000000+84375000000+84375000000+84375000000
3463+84062500000+84062500000+84062500000+84062500000+84062500000+84375000000
3432+84375000000+84375000000+84687500000+85000000000+85000000000+85000000000
3400+85000000000+85000000000+85000000000+85000000000+85312500000+85625000000
3368+85312500000+84687500000+84062500000+84062500000+83750000000+83437500000
3337+82812500000+81875000000+80937500000+79687500000+78437500000+75625000000
3305+71250000000+66562500000+57187500000+42500000000+25000000000+15625000000
3274+14062500000+15000000000+10312500000+5312500000+4687500000+5000000000
3242+9687500000+15625000000+21250000000+26875000000+29687500000+25000000000
3211+20312500000+15312500000+15312500000+30937500000+54062500000+67187500000
3179+75000000000+78750000000+81250000000+83125000000+84375000000+85625000000
3147+86875000000+87187500000+87187500000+87500000000+87500000000+87500000000
3116+87500000000+87500000000+87812500000+87500000000+87500000000+87500000000
3084+87500000000+87500000000+87500000000+87812500000+88125000000+88437500000
3053+88437500000+88750000000+89062500000+89062500000+89062500000+89375000000
3021+89375000000+89687500000+90000000000+90312500000+90625000000+90937500000
2989+91250000000+91562500000+91562500000+91875000000+91875000000+91875000000
2958+91875000000+91875000000+91875000000+91875000000+91875000000+91875000000
2926+92187500000+91875000000+91875000000+91875000000+91875000000+91875000000
2895+91875000000+91875000000+91875000000+91875000000+91875000000+91875000000
2863+92187500000+92187500000+92187500000+92187500000+92500000000+92500000000
2832+92500000000+92500000000+92500000000+92500000000+92500000000+92500000000
2800+92500000000+92500000000+92500000000+92812500000+92812500000+92812500000
2768+92812500000+93125000000+93125000000+93125000000+93125000000+92812500000
2737+92812500000+93125000000+93125000000+93125000000+93125000000+93125000000
2705+93437500000+93437500000+93437500000+93437500000+93125000000+93125000000
2674+93125000000+93125000000+93125000000+93437500000+93437500000+93437500000
2642+93437500000+93125000000+93125000000+93125000000+93125000000+93437500000
2611+93437500000+93437500000+93750000000+93750000000+93750000000+93750000000
2579+94062500000+94062500000+94062500000+94062500000+94062500000+94062500000
2547+94062500000+94062500000+94062500000+94062500000+94062500000+94062500000
2516+94062500000+94062500000+94062500000+94062500000+94062500000+94062500000
2484+94375000000+94375000000+94375000000+94375000000+94375000000+94375000000
2453+94687500000+94687500000+94687500000+94687500000+94687500000+95000000000
2421+95000000000+94687500000+94687500000+94687500000+94687500000+94687500000
2389+94687500000+94687500000+94687500000+94687500000+94375000000+94375000000
2358+94375000000+94375000000+94375000000+94375000000+94375000000+94062500000
2326+94062500000+94062500000+94062500000+94062500000+94062500000+94062500000
2295+94062500000+94062500000+93750000000+93437500000+92812500000+91562500000
2263+90312500000+89062500000+88125000000+84062500000+69687500000+59687500000
2232+57812500000+57812500000+61250000000+72500000000+80625000000+82500000000
2200+84062500000+85312500000+87812500000+89062500000+90000000000+90625000000
2168+90625000000+90937500000+91562500000+91875000000+92187500000+92187500000
2137+91562500000+90625000000+87500000000+83125000000+81875000000+80625000000
2105+76562500000+63437500000+42812500000+43125000000+59062500000+73125000000
2074+80937500000+85000000000+87500000000+88437500000+89062500000+90000000000
2042+90625000000+91250000000+91562500000+91875000000+91875000000+91875000000
2011+91875000000+91875000000+92187500000+92187500000+92187500000+92187500000
1979+92500000000+92500000000+92500000000+92187500000+91875000000+90625000000
1947+87812500000+87812500000+89375000000+90312500000+90625000000+90937500000
1916+90937500000+90625000000+89687500000+88125000000+85937500000+81250000000
1884+73750000000+60937500000+51250000000+50937500000+51250000000+52187500000
1853+54062500000+59687500000+63750000000+69375000000+73750000000+75312500000
1821+74687500000+75000000000+66250000000+66250000000+74375000000+82500000000
1789+84687500000+86875000000+87812500000+87812500000+85937500000+79687500000
1758+74687500000+67500000000+65625000000+68437500000+76875000000+77187500000
1726+79687500000+83125000000+81250000000+67812500000+65937500000+72812500000
1695+77500000000+81875000000+86250000000+88125000000+89062500000+88750000000
1663+87500000000+84687500000+83437500000+82500000000+78125000000+76875000000
1632+77500000000+82812500000+85312500000+86562500000+87187500000+85625000000
1600+81875000000+77500000000+57812500000+54062500000+60000000000+79687500000
1568+85000000000+87187500000+88437500000+86875000000+86250000000+88125000000
1537+88125000000+88125000000+86250000000+83437500000+75000000000+50000000000
1505+48437500000+55625000000+66875000000+71250000000+69375000000+73437500000
1474+78750000000+69375000000+55312500000+49687499999+49375000000+53750000000
1442+69062500000+76250000000+80000000000+82500000000+84687500000+85937500000
1411+86875000000+88125000000+88437500000+89062500000+89687500000+90312500000
1379+90625000000+90937500000+90937500000+90937500000+91250000000+91250000000
1347+91250000000+91250000000+91562500000+91562500000+91562500000+91562500000
1316+91562500000+90937500000+82812500000+81875000000+89062500000+90312500000
1284+90312500000+90625000000+90937500000+90937500000+90625000000+90312500000
1253+89687500000+88125000000+86562500000+86562500000+87812500000+89687500000
1221+91250000000+92500000000+93437500000+93437500000+91562500000+81250000000
1189+77187500000+75625000000+79687500000+74687500000+79375000000+89375000000
1158+91562500000+92187500000+93125000000+92812500000+92500000000+92187500000
1126+92187500000+92187500000+92187500000+92187500000+92187500000+92187500000
1095+92187500000+92500000000+92500000000+92500000000+92500000000+92812500000
1063+92812500000+92812500000+92812500000+92812500000+92500000000+91875000000
1032+90937500000+89062500000+73437500000+71875000000+88437500000+91875000000
1000+93125000000+93750000000+93750000000+93125000000+92500000000+91875000000
968+90625000000+83437500000+60312500000+59062500000+76562500000+82812500000
937+82500000000+88437500000+91562500000+92187500000+92812500000+93125000000
905+93437500000+93437500000+93437500000+93437500000+93125000000+93125000000
874+92500000000+92187500000+91875000000+91562500000+90937500000+89062500000
842+87187500000+87187500000+88125000000+90000000000+91875000000+93750000000
811+94375000000+94375000000+94375000000+94687500000+94687500000+94375000000
779+94375000000+94062500000+94062500000+93750000000+93437500000+93437500000
747+93437500000+93125000000+93125000000+93437500000+93437500000+93437500000
716+93125000000+93125000000+93125000000+93125000000+93125000000+92812500000
684+92812500000+92500000000+92187500000+92187500000+91875000000+91875000000
653+91562500000+91562500000+91562500000+91562500000+91562500000+91875000000
621+92187500000+92500000000+93125000000+94062500000+94375000000+94687500000
589+94687500000+94687500000+94375000000+94375000000+94687500000+94687500000
558+94375000000+93437500000+91250000000+89062500000+86875000000+85625000000
526+85000000000+85000000000+85000000000+85937500000+86250000000+86562500000
495+86562500000+86875000000+87187500000+87500000000+87187500000+86250000000
463+85000000000+83125000000+80312500000+77187500000+74062500000+70312500000
432+66562500000+63437500000+60937500000+58437500000+56562500000+55312500000
400+54375000000
##END=
