##TITLE=methoxyacetonitrile
##JCAMP-DX=4.24
##DATA TYPE=INFRARED SPECTRUM
##DATE=10/06/2025
##SAMPLING PROCEDURE=ATR
##ORIGIN=SDBS
##XUNITS=1/CM
##YUNITS=TRANSMITTANCE
##RESOLUTION=5.2631578947368425
##FIRSTX=4000.0
##LASTX=400.0
##DELTAX=-5.2631578947368425
##MAXY=95.0
##MINY=0.0
##XFACTOR=1
##YFACTOR=1
##NPOINTS=685
##FIRSTY=0.0
##XYDATA=(X++(Y..Y))
4000+0+93125000000+93125000000+93125000000+93125000000+93125000000
3968+93125000000+92812500000+92812500000+92812500000+92812500000+92812500000
3937+92812500000+92812500000+92812500000+92812500000+92812500000+93125000000
3905+93125000000+93437500000+93750000000+93750000000+94062500000+93750000000
3874+93750000000+93437500000+93437500000+93437500000+93750000000+93750000000
3842+93750000000+93750000000+93437500000+93437500000+93125000000+93125000000
3811+93125000000+93125000000+92812500000+92500000000+91562500000+90625000000
3779+89062500000+86875000000+85312500000+83437500000+82187500000+81875000000
3747+81562500000+81875000000+82187500000+82812500000+83437500000+84062500000
3716+84687500000+85000000000+84687500000+84062500000+83750000000+83750000000
3684+84062500000+84375000000+85000000000+85625000000+86250000000+86875000000
3653+87812500000+88125000000+88437500000+89062500000+89375000000+89687500000
3621+90000000000+90312500000+90625000000+90625000000+90937500000+90937500000
3589+90937500000+91250000000+91250000000+91250000000+91250000000+91250000000
3558+91562500000+91562500000+91562500000+91562500000+91875000000+91875000000
3526+92187500000+92187500000+91875000000+91875000000+91875000000+91875000000
3495+91875000000+91875000000+91875000000+91875000000+91875000000+91875000000
3463+91875000000+91562500000+91250000000+91250000000+91250000000+91250000000
3432+90937500000+90625000000+90625000000+90625000000+90625000000+90312500000
3400+90312500000+90000000000+89687500000+89375000000+89375000000+89375000000
3368+89062500000+88750000000+88125000000+87500000000+87187500000+86250000000
3337+85000000000+83125000000+78437500000+68437500000+57187500000+55312500000
3305+55937500000+62187500000+65000000000+64062500000+57500000000+45937500000
3274+35312500000+32187500000+31875000000+35312500000+44375000000+46875000000
3242+46875000000+49062500000+53750000000+57187500000+63125000000+68125000000
3211+69375000000+68125000000+62500000000+43750000000+38749999999+45937500000
3179+67500000000+76875000000+82187500000+85625000000+87812500000+89375000000
3147+90312500000+91250000000+91562500000+91875000000+91875000000+91875000000
3116+92187500000+92500000000+92812500000+92812500000+93125000000+93125000000
3084+93437500000+93437500000+93437500000+93125000000+93125000000+93125000000
3053+93125000000+93125000000+93125000000+92812500000+92812500000+92812500000
3021+92812500000+93125000000+93125000000+93437500000+93437500000+93437500000
2989+93750000000+94062500000+94375000000+94375000000+94375000000+94375000000
2958+94062500000+94062500000+93750000000+93437500000+92812500000+92500000000
2926+92187500000+92187500000+92187500000+92500000000+92812500000+93125000000
2895+93125000000+92500000000+92187500000+92187500000+92187500000+92187500000
2863+92500000000+92500000000+92500000000+92500000000+92500000000+92500000000
2832+92500000000+92187500000+91875000000+91875000000+92812500000+93437500000
2800+93437500000+92500000000+90937500000+90937500000+92500000000+93125000000
2768+93437500000+93125000000+92812500000+92812500000+93125000000+93437500000
2737+94062500000+94375000000+94062500000+94062500000+94062500000+94062500000
2705+93437500000+92812500000+92187500000+90937500000+89687500000+90312500000
2674+92500000000+92812500000+92187500000+91875000000+91875000000+91875000000
2642+91562500000+89687500000+85937500000+83437500000+83437500000+86562500000
2611+89375000000+90312500000+90937500000+91875000000+92812500000+93125000000
2579+93437500000+93750000000+94062500000+94375000000+94375000000+94375000000
2547+94687500000+94687500000+94687500000+94375000000+94375000000+94375000000
2516+94375000000+94375000000+94375000000+94375000000+94375000000+94375000000
2484+94375000000+94375000000+94375000000+94687500000+94687500000+94687500000
2453+94687500000+95000000000+94687500000+94687500000+94687500000+94687500000
2421+94687500000+94687500000+94375000000+94375000000+94375000000+94375000000
2389+94375000000+94062500000+94062500000+94062500000+94062500000+94062500000
2358+94062500000+94062500000+94062500000+93750000000+93750000000+93437500000
2326+93437500000+93125000000+93125000000+92812500000+92500000000+91875000000
2295+91250000000+90000000000+88437500000+86875000000+86250000000+86250000000
2263+86875000000+88437500000+89062500000+89375000000+89687500000+90312500000
2232+90937500000+91562500000+91875000000+92187500000+91875000000+91562500000
2200+90937500000+90000000000+89687500000+89687500000+89687500000+90000000000
2168+90312500000+90937500000+91250000000+91562500000+91562500000+91250000000
2137+90937500000+90625000000+90000000000+88437500000+87500000000+86875000000
2105+86562500000+86250000000+86250000000+86250000000+86875000000+87812500000
2074+89062500000+89687500000+90312500000+90312500000+90625000000+90625000000
2042+91250000000+91562500000+91875000000+91875000000+91875000000+91875000000
2011+91562500000+91562500000+91562500000+91250000000+91250000000+90937500000
1979+90937500000+90625000000+90312500000+90000000000+89687500000+89375000000
1947+89062500000+88437500000+88125000000+87500000000+87187500000+86250000000
1916+85625000000+84687500000+83125000000+80937500000+77500000000+71562500000
1884+62187500000+51250000000+39375000000+35625000000+35312500000+33125000000
1853+33437500000+38125000000+46562499999+53125000000+50000000000+50000000000
1821+58125000000+67812500000+73750000000+77812500000+80312500000+82500000000
1789+83750000000+85000000000+85625000000+85312500000+83750000000+79687500000
1758+73437500000+70000000000+69375000000+67812500000+67187500000+65312500000
1726+59375000000+52812500000+52812500000+59062500000+68437500000+77187500000
1695+82187500000+85312500000+86562500000+87500000000+88125000000+88437500000
1663+88125000000+87812500000+87187500000+85625000000+83437500000+78750000000
1632+71250000000+63125000000+61250000000+63125000000+72187500000+78437500000
1600+81875000000+83750000000+85312500000+85937500000+85937500000+85625000000
1568+85000000000+84062500000+83750000000+83125000000+82500000000+81562500000
1537+80312500000+78437500000+75937500000+72500000000+64687500000+51562500000
1505+33750000000+21250000000+15625000000+16562500000+32812500000+50312500000
1474+60937500000+66875000000+69062500000+67812500000+64375000000+59375000000
1442+58750000000+60000000000+59687500000+56250000000+50937500000+41562500000
1411+32187500000+23125000000+15000000000+8125000000+5312500000+4687500000
1379+5000000000+6250000000+10625000000+19062500000+31875000000+42812500000
1347+53125000000+60312500000+65312500000+70000000000+73437500000+76875000000
1316+79687500000+81250000000+82812500000+84062500000+85000000000+85312500000
1284+85000000000+84375000000+83750000000+82187500000+79687500000+75625000000
1253+65937500000+50937500000+48750000000+55625000000+69062500000+75937500000
1221+80937500000+84062500000+85312500000+85937500000+86250000000+84687500000
1189+82500000000+77187500000+68437500000+61562500000+61250000000+63750000000
1158+70000000000+74375000000+74062500000+72500000000+70625000000+66250000000
1126+59375000000+45312500000+24375000000+13437500000+13125000000+16250000000
1095+33125000000+50000000000+60625000000+58125000000+40625000000+24062500000
1063+24062500000+35625000000+58125000000+70625000000+77187500000+80937500000
1032+84375000000+85625000000+86250000000+86562500000+86875000000+86875000000
1000+86875000000+87187500000+87500000000+88125000000+89062500000+89687500000
968+90625000000+91250000000+91562500000+91875000000+92187500000+92500000000
937+92812500000+93125000000+93437500000+93750000000+93750000000+94062500000
905+94062500000+94062500000+94062500000+94062500000+94375000000+94375000000
874+94375000000+94375000000+94375000000+94375000000+94062500000+93437500000
842+92812500000+91875000000+90625000000+89687500000+89375000000+89375000000
811+90312500000+91875000000+93125000000+93750000000+94375000000+94687500000
779+94687500000+95000000000+94687500000+94687500000+94687500000+94375000000
747+94375000000+94062500000+94062500000+94062500000+94062500000+94062500000
716+94062500000+94062500000+93750000000+93437500000+93125000000+93125000000
684+92812500000+92500000000+92187500000+90937500000+88125000000+84687500000
653+84375000000+85312500000+86250000000+87500000000+88437500000+90000000000
621+90625000000+90937500000+91250000000+91562500000+91562500000+91875000000
589+91875000000+91875000000+92187500000+92187500000+92500000000+92187500000
558+91875000000+91562500000+91250000000+90937500000+90625000000+90000000000
526+89375000000+88750000000+88125000000+87500000000+87500000000+87812500000
495+88125000000+88750000000+89375000000+89687500000+89687500000+89687500000
463+89687500000+89375000000+88750000000+87500000000+85937500000+83437500000
432+80312500000+76875000000+74062500000+70937500000+68437500000+66875000000
400+65937500000
##END=
