##TITLE=methyl p-bromobenzoate
##JCAMP-DX=4.24
##DATA TYPE=INFRARED SPECTRUM
##DATE=10/06/2025
##SAMPLING PROCEDURE=ATR
##ORIGIN=SDBS
##XUNITS=1/CM
##YUNITS=TRANSMITTANCE
##RESOLUTION=5.2631578947368425
##FIRSTX=4000.0
##LASTX=400.0
##DELTAX=-5.2631578947368425
##MAXY=94.6875
##MINY=0.0
##XFACTOR=1
##YFACTOR=1
##NPOINTS=685
##FIRSTY=0.0
##XYDATA=(X++(Y..Y))
4000+0+85000000000+84687500000+84375000000+84375000000+84062500000
3968+84062500000+84375000000+84375000000+84375000000+84375000000+84375000000
3937+84062500000+83750000000+83750000000+83750000000+83437500000+83437500000
3905+83437500000+83750000000+83750000000+83437500000+83125000000+83125000000
3874+83125000000+83125000000+83125000000+83125000000+83125000000+83125000000
3842+82812500000+82812500000+82500000000+82500000000+82500000000+82500000000
3811+82500000000+82187500000+82187500000+82500000000+82500000000+82500000000
3779+82500000000+82500000000+82500000000+82500000000+82500000000+82500000000
3747+82187500000+82187500000+82187500000+82187500000+82187500000+82187500000
3716+82187500000+82187500000+81875000000+81875000000+81875000000+81875000000
3684+81875000000+81562500000+81562500000+81250000000+81250000000+81250000000
3653+80937500000+80937500000+80625000000+80625000000+80312500000+80000000000
3621+80000000000+80000000000+79687500000+77812500000+75937500000+75937500000
3589+76875000000+77500000000+77812500000+78125000000+78437500000+78437500000
3558+78437500000+78437500000+78125000000+78125000000+78125000000+78125000000
3526+77812500000+77500000000+77187500000+76875000000+76875000000+76875000000
3495+76875000000+76875000000+76562500000+76562500000+76250000000+76250000000
3463+75937500000+75937500000+75937500000+75937500000+75937500000+75937500000
3432+75937500000+75937500000+75937500000+76250000000+76250000000+76250000000
3400+76250000000+76562500000+76562500000+76562500000+76250000000+75937500000
3368+75937500000+75937500000+76250000000+76562500000+73750000000+73750000000
3337+73125000000+73125000000+73125000000+72500000000+70625000000+66562500000
3305+58437500000+58750000000+53750000000+44687500000+32500000000+25000000000
3274+17500000000+18750000000+20312500000+15312500000+14375000000+15312500000
3242+23125000000+29062500000+35000000000+39375000000+41250000000+37812500000
3211+33437500000+25937500000+25937500000+42500000000+62187500000+73125000000
3179+78437500000+80625000000+82187500000+83125000000+84062500000+84375000000
3147+84687500000+84687500000+85000000000+85000000000+84375000000+84062500000
3116+84062500000+84062500000+84375000000+84375000000+84062500000+84062500000
3084+84062500000+84062500000+84062500000+84062500000+84062500000+84062500000
3053+84375000000+84375000000+84687500000+84375000000+84062500000+84062500000
3021+84375000000+84375000000+84375000000+84062500000+84062500000+84062500000
2989+84062500000+84375000000+85000000000+85625000000+85937500000+85937500000
2958+85937500000+85937500000+85937500000+85937500000+86250000000+86250000000
2926+86562500000+86562500000+86562500000+86562500000+86562500000+86250000000
2895+85937500000+85625000000+85625000000+85625000000+85625000000+85625000000
2863+85937500000+85937500000+86250000000+86250000000+86250000000+86562500000
2832+86562500000+86562500000+86562500000+86250000000+85937500000+85937500000
2800+86250000000+86562500000+86562500000+86562500000+86562500000+86562500000
2768+86875000000+87187500000+87187500000+87500000000+87500000000+87812500000
2737+88125000000+87812500000+87812500000+87812500000+87812500000+87812500000
2705+88125000000+87812500000+87187500000+86875000000+86562500000+86875000000
2674+87500000000+87187500000+86875000000+86562500000+86875000000+87812500000
2642+88437500000+88437500000+88437500000+88750000000+89062500000+89062500000
2611+89375000000+89375000000+89687500000+89687500000+89687500000+89687500000
2579+89687500000+90000000000+90000000000+90312500000+90000000000+89687500000
2547+89375000000+89062500000+88437500000+87187500000+78437500000+78125000000
2516+83437500000+86875000000+88125000000+89062500000+89062500000+89062500000
2484+88750000000+89062500000+89375000000+89687500000+90625000000+91250000000
2453+91250000000+91562500000+91562500000+91562500000+91562500000+91562500000
2421+91562500000+91875000000+91875000000+92187500000+92187500000+92187500000
2389+92187500000+92187500000+92187500000+92187500000+92187500000+91875000000
2358+91562500000+90312500000+89375000000+90000000000+90625000000+91562500000
2326+92187500000+92187500000+92500000000+92500000000+92812500000+93437500000
2295+94062500000+94687500000+94687500000+94375000000+93750000000+92187500000
2263+89062500000+83750000000+73437500000+47500000000+31562500000+15625000000
2232+8437500000+5625000000+4687500000+4687500000+5937500000+10000000000
2200+21562500000+34375000000+43125000000+48750000000+52187500000+60312500000
2168+55000000000+54062500000+65312500000+70000000000+72500000000+73437500000
2137+74687500000+75937500000+76875000000+77187500000+77812500000+78437500000
2105+78750000000+79062500000+80000000000+80625000000+78125000000+77187500000
2074+78437500000+81250000000+82812500000+80312500000+61875000000+19062500000
2042+18750000000+36562500000+56562500000+67187500000+73437500000+73437500000
2011+74062500000+76875000000+76562500000+76562500000+77812500000+78750000000
1979+79375000000+80000000000+80625000000+81562500000+82500000000+82500000000
1947+82187500000+82187500000+82187500000+82187500000+82812500000+83750000000
1916+85000000000+85937500000+82500000000+51562500000+43437499999+61562500000
1884+69062500000+60625000000+50625000000+44375000000+40000000000+36562500000
1853+36562500000+36250000000+30625000000+16875000000+19062500000+36875000000
1821+56250000000+68125000000+73437500000+76250000000+77812500000+78437500000
1789+76562500000+65937500000+22812500000+18750000000+45625000000+62812500000
1758+65937500000+59687500000+55937500000+51250000000+52187500000+62500000000
1726+71875000000+78125000000+80000000000+81250000000+80625000000+77500000000
1695+72500000000+63437500000+53437500000+54062500000+62500000000+62812500000
1663+60937500000+54062500000+39375000000+29062500000+20625000000+32500000000
1632+12187500000+5937500000+5937500000+5937500000+5312500000+5937500000
1600+10000000000+19062500000+30937500000+41250000000+48437500000+44687500000
1568+44062500000+49687499999+59375000000+63437500000+66250000000+70312500000
1537+73750000000+75937500000+77812500000+79062500000+74375000000+71562500000
1505+53437500000+31250000000+32500000000+55937500000+69062500000+75312500000
1474+48124999999+22500000000+54687500000+72187500000+76250000000+76875000000
1442+78125000000+79687500000+78437500000+77812500000+77500000000+77812500000
1411+79687500000+76562500000+68125000000+33437500000+7812500000+7812500000
1379+15937500000+10625000000+26250000000+42812500000+47812500000+35937500000
1347+46562499999+61250000000+69687500000+55312500000+29062500000+53437500000
1316+69687500000+74062500000+77500000000+78437500000+79062500000+79375000000
1284+79687500000+80625000000+81562500000+82500000000+83125000000+83437500000
1253+79687500000+45937500000+14062500000+23437500000+57500000000+62812500000
1221+74375000000+78125000000+80937500000+81875000000+81875000000+80625000000
1189+79375000000+78125000000+61250000000+61562500000+51250000000+56875000000
1158+68125000000+74062500000+77187500000+78125000000+79687500000+81250000000
1126+82187500000+82812500000+83437500000+84062500000+84375000000+84687500000
1095+85000000000+85000000000+84687500000+84687500000+84687500000+84375000000
1063+84375000000+84062500000+83750000000+83750000000+83125000000+82500000000
1032+74062500000+57812500000+48437500000+36562500000+38125000000+80000000000
1000+81875000000+60312500000+44687500000+53750000000+65000000000+70937500000
968+78437500000+82500000000+83437500000+84062500000+84375000000+84687500000
937+84375000000+84062500000+84062500000+83750000000+83125000000+80937500000
905+73750000000+48124999999+8437500000+8437500000+44999999999+75312500000
874+76250000000+84375000000+85312500000+85625000000+84687500000+84375000000
842+83125000000+83125000000+85000000000+82812500000+79062500000+86250000000
811+87812500000+86250000000+82812500000+49062500000+48750000000+74687500000
779+83125000000+87187500000+88125000000+88750000000+89062500000+89375000000
747+89375000000+89375000000+89375000000+89375000000+89375000000+89375000000
716+87187500000+71250000000+76250000000+87500000000+88437500000+88750000000
684+89062500000+89062500000+89062500000+89062500000+88750000000+88125000000
653+87812500000+87812500000+87812500000+87812500000+88125000000+88750000000
621+89375000000+90000000000+90625000000+90937500000+91562500000+91875000000
589+92187500000+92187500000+91875000000+91562500000+91250000000+90937500000
558+90937500000+90937500000+91562500000+89062500000+66875000000+44687500000
526+60937500000+82187500000+85625000000+83437500000+82187500000+83437500000
495+84687500000+85000000000+85625000000+86250000000+87187500000+88125000000
463+88750000000+89062500000+89687500000+89687500000+89375000000+89062500000
432+87500000000+86250000000+85000000000+83750000000+82812500000+82187500000
400+81875000000
##END=
