##TITLE=methyl myristate
##JCAMP-DX=4.24
##DATA TYPE=INFRARED SPECTRUM
##DATE=10/06/2025
##SAMPLING PROCEDURE=ATR
##ORIGIN=SDBS
##XUNITS=1/CM
##YUNITS=TRANSMITTANCE
##RESOLUTION=5.2631578947368425
##FIRSTX=4000.0
##LASTX=400.0
##DELTAX=-5.2631578947368425
##MAXY=95.0
##MINY=0.0
##XFACTOR=1
##YFACTOR=1
##NPOINTS=685
##FIRSTY=0.0
##XYDATA=(X++(Y..Y))
4000+0+87812500000+88125000000+88437500000+88437500000+88437500000
3968+88750000000+88750000000+88750000000+88750000000+89062500000+89062500000
3937+89375000000+89687500000+89687500000+90000000000+90000000000+90000000000
3905+90000000000+90312500000+90625000000+90625000000+90625000000+90625000000
3874+90625000000+90625000000+90625000000+90625000000+90937500000+90937500000
3842+90937500000+90937500000+90937500000+91250000000+91250000000+91562500000
3811+91562500000+91250000000+91250000000+91250000000+90937500000+90937500000
3779+91250000000+90937500000+90937500000+90937500000+90625000000+90625000000
3747+90625000000+90625000000+90625000000+90625000000+90937500000+90937500000
3716+91250000000+90937500000+90937500000+90625000000+90625000000+90625000000
3684+90625000000+90625000000+90625000000+90937500000+90937500000+90937500000
3653+90625000000+90312500000+89375000000+88125000000+87812500000+87812500000
3621+88437500000+89062500000+90000000000+90625000000+90937500000+91250000000
3589+91562500000+91562500000+91250000000+91250000000+91250000000+91250000000
3558+90937500000+90937500000+91250000000+91250000000+91250000000+91250000000
3526+91250000000+91250000000+91250000000+91250000000+91250000000+91250000000
3495+91250000000+90937500000+90937500000+90625000000+90625000000+90625000000
3463+90625000000+90625000000+90625000000+90625000000+90625000000+90625000000
3432+90625000000+90312500000+90312500000+90312500000+89375000000+90000000000
3400+90000000000+89687500000+89687500000+89375000000+89375000000+88750000000
3368+88125000000+87812500000+87187500000+86562500000+85625000000+83750000000
3337+81875000000+78437500000+73437500000+70937500000+69375000000+66562500000
3305+60937500000+57187500000+51562500000+40312499999+25312500000+16562500000
3274+14062500000+13125000000+8125000000+5312500000+4687500000+5000000000
3242+9375000000+14375000000+19062500000+24375000000+26562500000+21875000000
3211+13750000000+9062500000+9375000000+22500000000+44999999999+57812500000
3179+66875000000+72500000000+76562500000+79375000000+82187500000+83750000000
3147+85625000000+86562500000+87187500000+87187500000+87187500000+87187500000
3116+87500000000+87812500000+88437500000+88437500000+87500000000+86875000000
3084+86562500000+86875000000+87187500000+87812500000+88125000000+88750000000
3053+89062500000+89062500000+89375000000+89687500000+90000000000+90312500000
3021+90937500000+91250000000+91562500000+92187500000+92500000000+92500000000
2989+92812500000+92812500000+93125000000+93437500000+93750000000+93750000000
2958+93750000000+94062500000+94062500000+94062500000+94062500000+94062500000
2926+94062500000+94375000000+94062500000+94062500000+94062500000+94062500000
2895+94062500000+93750000000+93750000000+93750000000+93750000000+93750000000
2863+94062500000+94062500000+94062500000+94062500000+94062500000+94062500000
2832+94062500000+94062500000+94062500000+94062500000+94062500000+94375000000
2800+94375000000+94687500000+94687500000+94687500000+94687500000+94687500000
2768+94687500000+94687500000+94687500000+94687500000+94687500000+94375000000
2737+94375000000+94375000000+94375000000+94375000000+94375000000+94687500000
2705+94687500000+94687500000+94375000000+94375000000+94062500000+93750000000
2674+93437500000+93125000000+92812500000+92812500000+92500000000+92500000000
2642+92500000000+92187500000+92187500000+92500000000+92812500000+93125000000
2611+93437500000+93437500000+93437500000+93750000000+93750000000+93750000000
2579+93750000000+93750000000+94062500000+94062500000+94062500000+94062500000
2547+94062500000+94062500000+94062500000+94375000000+94375000000+94687500000
2516+94687500000+94687500000+94687500000+94687500000+95000000000+95000000000
2484+95000000000+94687500000+94687500000+94687500000+94687500000+94687500000
2453+94687500000+94687500000+94687500000+94687500000+94375000000+94375000000
2421+94375000000+94375000000+94375000000+94062500000+94062500000+94062500000
2389+94062500000+93750000000+93437500000+93125000000+92812500000+92187500000
2358+91562500000+91250000000+89687500000+89062500000+87812500000+86250000000
2326+85625000000+82500000000+80312500000+77500000000+73750000000+68750000000
2295+63750000000+55937500000+46250000000+34062500000+23750000000+13125000000
2263+8125000000+6875000000+6875000000+9062500000+15312500000+24687500000
2232+35625000000+45312500000+52500000000+58437500000+62500000000+65312500000
2200+68125000000+71250000000+75625000000+78437500000+81875000000+84687500000
2168+86875000000+87812500000+88437500000+90625000000+90625000000+90625000000
2137+90625000000+91562500000+91875000000+91875000000+92187500000+92187500000
2105+92187500000+92500000000+92500000000+92500000000+92500000000+92500000000
2074+92500000000+92500000000+92500000000+92500000000+92187500000+92187500000
2042+92187500000+92187500000+91875000000+91875000000+91875000000+91562500000
2011+91562500000+91562500000+91562500000+91562500000+91562500000+91562500000
1979+91562500000+91250000000+90625000000+90312500000+90000000000+89687500000
1947+89375000000+89062500000+88437500000+88125000000+87187500000+86250000000
1916+85937500000+84062500000+82812500000+79687500000+76875000000+71250000000
1884+58437500000+36562500000+29062500000+29062500000+30937500000+31875000000
1853+33437500000+38749999999+37812500000+34062500000+29062500000+29062500000
1821+38749999999+53750000000+59375000000+59687500000+62500000000+70625000000
1789+75312500000+79062500000+80625000000+79687500000+77187500000+73125000000
1758+64062500000+53125000000+51562500000+52500000000+49687499999+48437500000
1726+48124999999+48437500000+50625000000+52500000000+55000000000+58125000000
1695+60000000000+62500000000+62187500000+59687500000+57812500000+57187500000
1663+57187500000+56562500000+56250000000+55937500000+55937500000+56250000000
1632+55625000000+54687500000+53750000000+52812500000+50937500000+48437500000
1600+44999999999+42812500000+40625000000+38749999999+36562500000+34062500000
1568+33750000000+34375000000+35937500000+37187499999+38125000000+37812500000
1537+36562500000+35312500000+34062500000+32812500000+30625000000+28125000000
1505+26250000000+25312500000+25312500000+26250000000+29375000000+28125000000
1474+24687500000+21875000000+21250000000+21562500000+23125000000+26250000000
1442+30625000000+35312500000+40000000000+45312500000+53437500000+59687500000
1411+65625000000+62500000000+57812500000+52500000000+49687499999+49687499999
1379+51250000000+54687500000+61875000000+68750000000+71562500000+71562500000
1347+71250000000+71562500000+72500000000+73437500000+75000000000+75625000000
1316+75937500000+76250000000+77500000000+78437500000+79375000000+79375000000
1284+78125000000+76250000000+74375000000+72187500000+69687500000+68437500000
1253+67812500000+67812500000+68125000000+69375000000+70625000000+71875000000
1221+73125000000+74687500000+76875000000+78125000000+80312500000+81875000000
1189+83750000000+85312500000+86875000000+88437500000+89687500000+90625000000
1158+91562500000+92187500000+92500000000+92500000000+92187500000+92187500000
1126+91875000000+91562500000+91250000000+90937500000+90312500000+89687500000
1095+89062500000+87812500000+86562500000+85000000000+81875000000+80000000000
1063+78125000000+77500000000+77500000000+78125000000+78437500000+78750000000
1032+79375000000+79687500000+79687500000+80000000000+80312500000+81250000000
1000+82500000000+83437500000+84375000000+85312500000+86250000000+86875000000
968+87812500000+88437500000+88750000000+89062500000+89062500000+89062500000
937+88750000000+88125000000+87812500000+87500000000+87187500000+86875000000
905+86562500000+86250000000+85937500000+85312500000+84687500000+84062500000
874+83125000000+81875000000+79375000000+77187500000+73437500000+67500000000
842+63437500000+63750000000+70312500000+77812500000+81875000000+85312500000
811+86250000000+87500000000+89687500000+91875000000+92500000000+93125000000
779+93437500000+93437500000+93437500000+93125000000+92812500000+92500000000
747+92187500000+91875000000+91875000000+91875000000+91875000000+91875000000
716+91875000000+91875000000+92187500000+92187500000+92500000000+92500000000
684+92187500000+91875000000+91250000000+90625000000+90312500000+90000000000
653+89687500000+89687500000+89687500000+90312500000+90937500000+91562500000
621+92187500000+93125000000+94062500000+94375000000+94687500000+95000000000
589+94687500000+94687500000+94687500000+94687500000+94375000000+94375000000
558+94062500000+94062500000+93750000000+93750000000+93437500000+93125000000
526+93125000000+92812500000+92812500000+92500000000+92187500000+92187500000
495+91562500000+91562500000+91250000000+91250000000+91250000000+90937500000
463+90625000000+89687500000+87812500000+85000000000+82500000000+79687500000
432+77187500000+75625000000+75000000000+75000000000+75312500000+75625000000
400+75937500000
##END=
