##TITLE=methyl benzoate
##JCAMP-DX=4.24
##DATA TYPE=INFRARED SPECTRUM
##DATE=10/06/2025
##SAMPLING PROCEDURE=ATR
##ORIGIN=SDBS
##XUNITS=1/CM
##YUNITS=TRANSMITTANCE
##RESOLUTION=5.2631578947368425
##FIRSTX=4000.0
##LASTX=400.0
##DELTAX=-5.2631578947368425
##MAXY=95.0
##MINY=0.0
##XFACTOR=1
##YFACTOR=1
##NPOINTS=685
##FIRSTY=0.0
##XYDATA=(X++(Y..Y))
4000+0+94375000000+94375000000+94062500000+94062500000+94062500000
3968+94062500000+94062500000+94375000000+94375000000+94375000000+94375000000
3937+94375000000+94375000000+94375000000+94375000000+94375000000+94375000000
3905+94375000000+94375000000+94375000000+94375000000+94687500000+94375000000
3874+94375000000+94375000000+94375000000+94375000000+94375000000+94375000000
3842+94375000000+94375000000+94375000000+94062500000+94062500000+93750000000
3811+93750000000+93750000000+93750000000+93750000000+93750000000+93437500000
3779+93125000000+92812500000+92500000000+92187500000+92187500000+92187500000
3747+92187500000+92187500000+92187500000+92187500000+92187500000+92500000000
3716+92812500000+92812500000+92500000000+92187500000+92187500000+92187500000
3684+92187500000+92187500000+92187500000+92500000000+92500000000+92500000000
3653+92500000000+92500000000+92500000000+92187500000+92187500000+92187500000
3621+91562500000+90937500000+90625000000+90312500000+90312500000+90937500000
3589+91562500000+91875000000+92187500000+92187500000+92187500000+92187500000
3558+92187500000+92187500000+92187500000+91875000000+91875000000+91562500000
3526+91562500000+91875000000+91875000000+91875000000+91875000000+91562500000
3495+91562500000+91562500000+91562500000+91562500000+91562500000+91562500000
3463+91562500000+91250000000+91562500000+91562500000+91562500000+91562500000
3432+91562500000+91562500000+91562500000+91562500000+91562500000+91562500000
3400+91875000000+91875000000+91562500000+90625000000+90312500000+89062500000
3368+88125000000+87812500000+84062500000+82812500000+82812500000+85937500000
3337+85937500000+83437500000+83125000000+84375000000+84375000000+82812500000
3305+81875000000+82187500000+85625000000+88125000000+86875000000+77500000000
3274+68437500000+69687500000+83437500000+89062500000+90625000000+90000000000
3242+89062500000+89062500000+89687500000+90312500000+90312500000+91250000000
3211+91875000000+91250000000+87500000000+87500000000+90937500000+92500000000
3179+93125000000+93437500000+93750000000+93437500000+93437500000+93437500000
3147+93437500000+93437500000+93437500000+93750000000+93750000000+93750000000
3116+93750000000+93750000000+93750000000+93750000000+94062500000+94062500000
3084+94062500000+94062500000+93750000000+93750000000+93750000000+93750000000
3053+93750000000+94062500000+93750000000+93437500000+93437500000+93437500000
3021+93437500000+93750000000+93750000000+93750000000+93437500000+93437500000
2989+93437500000+93437500000+93750000000+94062500000+94375000000+94375000000
2958+94375000000+94375000000+94375000000+94062500000+94062500000+94062500000
2926+94375000000+94375000000+94375000000+94375000000+94375000000+94375000000
2895+94062500000+94062500000+94062500000+94062500000+94062500000+94062500000
2863+94062500000+94375000000+94375000000+94375000000+94375000000+94375000000
2832+94375000000+94375000000+94375000000+94375000000+94375000000+94375000000
2800+94375000000+94062500000+94062500000+94062500000+94062500000+94375000000
2768+94375000000+94375000000+94687500000+94687500000+94687500000+95000000000
2737+94687500000+94687500000+94687500000+94687500000+94687500000+94687500000
2705+94687500000+94375000000+94062500000+93750000000+93437500000+93125000000
2674+93125000000+93125000000+93125000000+93125000000+93750000000+94062500000
2642+94375000000+94375000000+94062500000+94062500000+94062500000+93750000000
2611+93437500000+93437500000+93125000000+93125000000+92812500000+92812500000
2579+92812500000+92812500000+92812500000+92812500000+93125000000+93125000000
2547+93437500000+93437500000+93125000000+92812500000+91875000000+91250000000
2516+90937500000+90937500000+90937500000+91250000000+91250000000+91562500000
2484+91875000000+92500000000+92812500000+93437500000+93750000000+93750000000
2453+94062500000+94375000000+94375000000+94375000000+94375000000+94375000000
2421+94062500000+94062500000+94062500000+93750000000+93750000000+93437500000
2389+93125000000+92812500000+92500000000+92187500000+92187500000+92187500000
2358+92187500000+92187500000+92187500000+92187500000+91562500000+90625000000
2326+89687500000+88750000000+88437500000+88437500000+88437500000+89062500000
2295+89375000000+89375000000+88750000000+87500000000+85937500000+82500000000
2263+77500000000+69375000000+58125000000+35312500000+12500000000+5625000000
2232+4687500000+4687500000+5625000000+13437500000+36562500000+55625000000
2200+69687500000+77812500000+81875000000+83437500000+83437500000+83125000000
2168+83437500000+84375000000+86562500000+88125000000+88437500000+88437500000
2137+87812500000+87500000000+86875000000+86562500000+86562500000+86562500000
2105+86875000000+87187500000+87812500000+88125000000+87812500000+87500000000
2074+87500000000+85312500000+62500000000+55937500000+72500000000+86250000000
2042+84062500000+81562500000+80937500000+82812500000+88125000000+90312500000
2011+91250000000+91875000000+92187500000+92500000000+92812500000+92812500000
1979+92812500000+92812500000+92812500000+92812500000+92812500000+92812500000
1947+92812500000+92812500000+92812500000+92500000000+92187500000+90625000000
1916+88125000000+81250000000+81875000000+88750000000+90625000000+90312500000
1884+89062500000+87500000000+84062500000+78750000000+69687500000+54375000000
1853+36562500000+44999999999+61875000000+53750000000+38125000000+37812500000
1821+53125000000+72187500000+81875000000+86562500000+89062500000+90000000000
1789+90312500000+90625000000+90625000000+90937500000+90937500000+91562500000
1758+91562500000+91875000000+92187500000+91875000000+91875000000+91562500000
1726+91250000000+90937500000+90000000000+89375000000+88750000000+88437500000
1695+87187500000+85625000000+82187500000+76250000000+65625000000+42812500000
1663+28750000000+35312500000+60000000000+60000000000+49687499999+34062500000
1632+21250000000+11250000000+6562500000+5625000000+5625000000+6250000000
1600+10000000000+23750000000+39375000000+47812500000+51562500000+55625000000
1568+62500000000+70937500000+78125000000+83437500000+86875000000+88750000000
1537+89375000000+90000000000+90000000000+89375000000+88125000000+85625000000
1505+79375000000+69687500000+61250000000+61250000000+68125000000+72812500000
1474+56250000000+54687500000+65625000000+79062500000+81875000000+80625000000
1442+80937500000+83437500000+85625000000+85625000000+85000000000+83125000000
1411+81250000000+78125000000+72500000000+57812500000+32812500000+19375000000
1379+19062500000+24062500000+42812500000+48750000000+60000000000+73125000000
1347+81875000000+85937500000+86562500000+75000000000+50625000000+52500000000
1316+75937500000+85937500000+90625000000+92187500000+92500000000+92812500000
1284+92812500000+91562500000+87812500000+63437500000+50937500000+65937500000
1253+85000000000+89062500000+91250000000+92187500000+89375000000+89375000000
1221+92187500000+92500000000+92500000000+91875000000+90625000000+88125000000
1189+83125000000+75625000000+74062500000+75625000000+82187500000+87500000000
1158+90000000000+90937500000+89375000000+87500000000+87500000000+88750000000
1126+91250000000+92187500000+93125000000+93437500000+93437500000+93750000000
1095+93750000000+93750000000+94062500000+94062500000+94062500000+94062500000
1063+94062500000+94062500000+94062500000+93750000000+93437500000+93437500000
1032+93125000000+93125000000+93125000000+93125000000+93125000000+93125000000
1000+92812500000+91875000000+88437500000+75000000000+73750000000+80937500000
968+88750000000+87500000000+87187500000+88437500000+91875000000+92812500000
937+93125000000+93437500000+93437500000+93437500000+93437500000+93125000000
905+93125000000+92812500000+92500000000+92187500000+91875000000+91562500000
874+90937500000+90000000000+88437500000+86875000000+82187500000+70000000000
842+45625000000+27187500000+15937500000+10937500000+10937500000+25937500000
811+62812500000+78750000000+79375000000+64687500000+64687500000+80937500000
779+65312500000+59687500000+85625000000+90000000000+91562500000+92500000000
747+93125000000+93437500000+93750000000+94062500000+94062500000+94375000000
716+94375000000+94375000000+94062500000+94062500000+91875000000+94062500000
684+94375000000+94375000000+94375000000+94375000000+94375000000+94375000000
653+94375000000+94375000000+94375000000+94062500000+94062500000+94062500000
621+94062500000+94062500000+94062500000+94062500000+94062500000+94062500000
589+94062500000+93750000000+93750000000+93437500000+93437500000+93125000000
558+93125000000+92812500000+92500000000+91875000000+91562500000+90937500000
526+90312500000+90000000000+89687500000+89687500000+89687500000+90000000000
495+90000000000+90312500000+90625000000+90625000000+90937500000+90937500000
463+90937500000+90625000000+90625000000+90625000000+90625000000+90312500000
432+89687500000+89062500000+88437500000+87500000000+86875000000+86250000000
400+85937500000
##END=
