##TITLE=methyl isobutyrate
##JCAMP-DX=4.24
##DATA TYPE=INFRARED SPECTRUM
##DATE=10/06/2025
##SAMPLING PROCEDURE=ATR
##ORIGIN=SDBS
##XUNITS=1/CM
##YUNITS=TRANSMITTANCE
##RESOLUTION=5.2631578947368425
##FIRSTX=4000.0
##LASTX=400.0
##DELTAX=-5.2631578947368425
##MAXY=95.0
##MINY=0.0
##XFACTOR=1
##YFACTOR=1
##NPOINTS=685
##FIRSTY=0.0
##XYDATA=(X++(Y..Y))
4000+0+90625000000+90625000000+90625000000+90312500000+90312500000
3968+90625000000+90625000000+90625000000+90625000000+90625000000+90625000000
3937+90625000000+90625000000+90625000000+90937500000+90937500000+90937500000
3905+90937500000+90937500000+90937500000+90937500000+90937500000+90937500000
3874+91250000000+91250000000+91250000000+91250000000+91250000000+91250000000
3842+91562500000+91562500000+91562500000+91562500000+91562500000+91562500000
3811+91562500000+91562500000+91250000000+90937500000+90937500000+90625000000
3779+90000000000+89687500000+89062500000+88750000000+88125000000+88125000000
3747+88125000000+88125000000+88437500000+88750000000+89062500000+89375000000
3716+89375000000+89062500000+88750000000+88125000000+88125000000+88125000000
3684+88125000000+88125000000+88125000000+87812500000+87500000000+87187500000
3653+86562500000+85937500000+84687500000+83437500000+83125000000+82812500000
3621+83125000000+83750000000+85000000000+86250000000+87187500000+88437500000
3589+89062500000+89687500000+90000000000+90312500000+90625000000+90625000000
3558+90625000000+90625000000+90312500000+90312500000+90312500000+90312500000
3526+90312500000+90625000000+90625000000+90625000000+90625000000+90625000000
3495+90312500000+90312500000+90312500000+90312500000+90312500000+90000000000
3463+89687500000+89375000000+89062500000+89062500000+88750000000+88750000000
3432+88750000000+88750000000+88750000000+88750000000+88750000000+89062500000
3400+89062500000+89062500000+88750000000+88437500000+88437500000+88125000000
3368+87812500000+87500000000+86875000000+86250000000+85625000000+84062500000
3337+80937500000+77812500000+72812500000+70000000000+66562500000+60000000000
3305+49375000000+35625000000+24062500000+22812500000+24687500000+35625000000
3274+33750000000+35937500000+41250000000+45625000000+54062500000+58750000000
3242+60312500000+62500000000+63437500000+56875000000+54375000000+58125000000
3211+74687500000+81250000000+77500000000+77812500000+84062500000+86875000000
3179+87812500000+88437500000+89687500000+90312500000+90937500000+91250000000
3147+91562500000+91875000000+91875000000+91562500000+91562500000+91562500000
3116+91562500000+91875000000+92187500000+92500000000+92812500000+93125000000
3084+93125000000+92812500000+92812500000+92500000000+92500000000+92500000000
3053+92500000000+92500000000+92500000000+92500000000+92500000000+92187500000
3021+92187500000+92187500000+91875000000+91875000000+91875000000+92187500000
2989+92187500000+92500000000+92812500000+92812500000+93125000000+93125000000
2958+93125000000+93437500000+93437500000+93437500000+93125000000+93125000000
2926+93125000000+93125000000+93125000000+93125000000+93125000000+92812500000
2895+92812500000+92812500000+92812500000+93125000000+93125000000+93125000000
2863+93125000000+93125000000+93437500000+93437500000+93437500000+93750000000
2832+93750000000+93750000000+93750000000+94062500000+94062500000+93750000000
2800+93750000000+93750000000+93750000000+94062500000+94062500000+94375000000
2768+94375000000+94375000000+94375000000+94375000000+94375000000+94375000000
2737+94375000000+94375000000+94375000000+94062500000+94062500000+94375000000
2705+94375000000+94375000000+94062500000+94062500000+93437500000+93437500000
2674+93437500000+93437500000+93750000000+93750000000+93750000000+93437500000
2642+92812500000+92187500000+92187500000+92187500000+92812500000+93437500000
2611+93125000000+92812500000+91875000000+91250000000+90937500000+90937500000
2579+90937500000+91562500000+92187500000+92812500000+93125000000+93437500000
2547+93750000000+94062500000+94375000000+94375000000+94687500000+94687500000
2516+94687500000+95000000000+94687500000+94687500000+94687500000+94687500000
2484+94687500000+94375000000+94375000000+94375000000+94375000000+94375000000
2453+94375000000+94375000000+94375000000+94375000000+94375000000+94375000000
2421+94375000000+94062500000+94062500000+93750000000+93750000000+93437500000
2389+93125000000+92500000000+91875000000+91250000000+90625000000+90000000000
2358+89687500000+89375000000+89062500000+87812500000+86875000000+85000000000
2326+83125000000+80937500000+78750000000+76562500000+73437500000+70000000000
2295+65625000000+59687500000+51875000000+41250000000+30312500000+17812500000
2263+9062500000+5312500000+4687500000+4687500000+5937500000+10312500000
2232+17812500000+26562500000+35000000000+44687500000+55000000000+61875000000
2200+67500000000+70312500000+71875000000+74687500000+79062500000+82812500000
2168+85000000000+86562500000+87812500000+89062500000+89687500000+90312500000
2137+90625000000+90937500000+90937500000+90937500000+90625000000+90625000000
2105+90312500000+90312500000+90312500000+90312500000+90625000000+90937500000
2074+91250000000+91562500000+91875000000+92187500000+92187500000+92500000000
2042+92500000000+92187500000+92187500000+92187500000+92187500000+91875000000
2011+91875000000+91875000000+91562500000+91250000000+90937500000+90312500000
1979+89687500000+89062500000+88125000000+87500000000+87187500000+86875000000
1947+86875000000+86875000000+86875000000+86250000000+85312500000+84062500000
1916+82812500000+80312500000+76875000000+70625000000+61250000000+45312500000
1884+32812500000+32500000000+34062500000+41874999999+44062500000+45625000000
1853+47500000000+49062500000+50937500000+44062500000+33750000000+33437500000
1821+47812500000+65000000000+74687500000+79375000000+81875000000+82812500000
1789+82812500000+81875000000+78750000000+72812500000+56250000000+42500000000
1758+43125000000+60312500000+68437500000+66562500000+64375000000+64687500000
1726+62812500000+54375000000+45937500000+43750000000+43750000000+48750000000
1695+56562500000+63437500000+67812500000+71875000000+73750000000+75312500000
1663+76562500000+78125000000+78125000000+77187500000+76562500000+76250000000
1632+75937500000+74687500000+70625000000+63750000000+53125000000+44062500000
1600+37812500000+37187499999+37812500000+40625000000+43750000000+48437500000
1568+52187500000+53750000000+52500000000+50000000000+46250000000+42812500000
1537+37187499999+31562500000+25312500000+20000000000+15312500000+12187500000
1505+11562500000+11875000000+14375000000+20312500000+26562500000+32187500000
1474+39062500000+43750000000+36562500000+25625000000+14687500000+10625000000
1442+10625000000+12812500000+19062500000+29062500000+39687500000+46562499999
1411+52500000000+54687500000+54687500000+54687500000+55312500000+57500000000
1379+61250000000+61875000000+53125000000+46250000000+46250000000+43750000000
1347+35312500000+33437500000+35312500000+48124999999+63750000000+75000000000
1316+81250000000+84375000000+87187500000+89062500000+90000000000+90625000000
1284+91250000000+91562500000+91875000000+92187500000+92187500000+91875000000
1253+91562500000+90625000000+89062500000+85000000000+78437500000+65000000000
1221+55625000000+55312500000+61562500000+71562500000+79062500000+84687500000
1189+87500000000+88437500000+88750000000+89687500000+90312500000+90937500000
1158+91562500000+91875000000+91562500000+90312500000+87500000000+85937500000
1126+86250000000+89375000000+91250000000+91562500000+90937500000+89062500000
1095+84375000000+74375000000+64062500000+63750000000+69687500000+81250000000
1063+88125000000+90625000000+92500000000+93125000000+93750000000+94062500000
1032+94062500000+93750000000+93437500000+92812500000+92187500000+90625000000
1000+87812500000+79062500000+57500000000+51875000000+60625000000+74375000000
968+82500000000+87812500000+90000000000+91562500000+92500000000+92812500000
937+92812500000+92812500000+92187500000+91562500000+90000000000+88125000000
905+84375000000+79687500000+75625000000+74375000000+74375000000+77187500000
874+82187500000+87500000000+90625000000+92187500000+93125000000+93750000000
842+94375000000+94375000000+94687500000+94687500000+95000000000+95000000000
811+94687500000+94687500000+94687500000+94687500000+94687500000+94687500000
779+94375000000+94375000000+94062500000+93750000000+93437500000+92812500000
747+92187500000+91875000000+91562500000+91562500000+91250000000+91250000000
716+91250000000+91250000000+91250000000+91562500000+91562500000+91562500000
684+91562500000+91875000000+91875000000+92187500000+92187500000+92500000000
653+92500000000+92812500000+92812500000+92812500000+92812500000+93125000000
621+93125000000+93125000000+93125000000+93437500000+93125000000+92812500000
589+92187500000+91562500000+91250000000+90625000000+90625000000+90625000000
558+90625000000+90625000000+90625000000+90625000000+90312500000+90000000000
526+89687500000+89375000000+89062500000+89062500000+89062500000+88750000000
495+88750000000+88750000000+88437500000+88125000000+87812500000+87500000000
463+87187500000+86562500000+86250000000+85937500000+85625000000+85000000000
432+84375000000+83750000000+83125000000+82187500000+81250000000+80937500000
400+80625000000
##END=
