##TITLE=methyl cis,cis,cis-9,12,15-octadecatrienoate
##JCAMP-DX=4.24
##DATA TYPE=INFRARED SPECTRUM
##DATE=10/06/2025
##SAMPLING PROCEDURE=ATR
##ORIGIN=SDBS
##XUNITS=1/CM
##YUNITS=TRANSMITTANCE
##RESOLUTION=5.2631578947368425
##FIRSTX=4000.0
##LASTX=400.0
##DELTAX=-5.2631578947368425
##MAXY=95.0
##MINY=0.0
##XFACTOR=1
##YFACTOR=1
##NPOINTS=685
##FIRSTY=0.0
##XYDATA=(X++(Y..Y))
4000+0+90000000000+90000000000+90000000000+90000000000+90000000000
3968+90312500000+90312500000+90312500000+90625000000+90625000000+90937500000
3937+90937500000+90937500000+91250000000+91250000000+91250000000+91250000000
3905+91562500000+91562500000+91562500000+91562500000+91562500000+91562500000
3874+91562500000+91562500000+91875000000+91875000000+91875000000+91875000000
3842+91875000000+91875000000+91875000000+91875000000+92187500000+92187500000
3811+92187500000+92187500000+92187500000+91875000000+91875000000+91562500000
3779+91562500000+91562500000+91562500000+91250000000+91250000000+91250000000
3747+91250000000+91250000000+91250000000+91562500000+91562500000+91562500000
3716+91562500000+91562500000+91250000000+91250000000+90937500000+90937500000
3684+90937500000+90937500000+90937500000+90937500000+90625000000+90625000000
3653+90312500000+90000000000+89062500000+88125000000+87500000000+87500000000
3621+87812500000+88125000000+88750000000+89062500000+89375000000+89687500000
3589+89687500000+89687500000+90000000000+90000000000+90000000000+90000000000
3558+90000000000+90000000000+90000000000+90000000000+90000000000+90000000000
3526+90000000000+90000000000+90000000000+90000000000+90000000000+90312500000
3495+90312500000+90312500000+90625000000+90625000000+90625000000+90625000000
3463+90625000000+90625000000+90625000000+90625000000+90312500000+90312500000
3432+90312500000+90312500000+90312500000+90312500000+90625000000+90625000000
3400+90312500000+90312500000+90000000000+89687500000+89375000000+89062500000
3368+88437500000+87500000000+85625000000+84375000000+83750000000+82500000000
3337+78750000000+73437500000+60625000000+38749999999+25312500000+25312500000
3305+35625000000+50937500000+47187500000+35000000000+22812500000+19375000000
3274+17812500000+15312500000+9062500000+7187500000+7187500000+9375000000
3242+15625000000+22812500000+30000000000+35312500000+33750000000+30312500000
3211+20625000000+16562500000+18750000000+36562500000+53437500000+63750000000
3179+72187500000+77812500000+82187500000+84375000000+85937500000+87500000000
3147+88437500000+89062500000+89375000000+89687500000+89687500000+89687500000
3116+89687500000+90000000000+90000000000+90000000000+90312500000+90312500000
3084+90312500000+90625000000+90625000000+90937500000+90937500000+91250000000
3053+91562500000+91562500000+91875000000+91875000000+91875000000+92187500000
3021+92187500000+92500000000+92500000000+92812500000+92812500000+92812500000
2989+93125000000+93125000000+93125000000+93125000000+93437500000+93437500000
2958+93750000000+93750000000+93750000000+94062500000+94062500000+94062500000
2926+94062500000+94062500000+94062500000+94062500000+94062500000+94062500000
2895+94062500000+94062500000+94062500000+94062500000+94062500000+94062500000
2863+94375000000+94375000000+94375000000+94375000000+94375000000+94375000000
2832+94375000000+94375000000+94375000000+94375000000+94687500000+94687500000
2800+94687500000+94687500000+94687500000+94687500000+94687500000+94687500000
2768+94687500000+95000000000+95000000000+94687500000+94687500000+94687500000
2737+94687500000+94687500000+94687500000+94687500000+94687500000+94687500000
2705+94687500000+94687500000+94687500000+94687500000+94375000000+94062500000
2674+94062500000+93750000000+93750000000+93437500000+93437500000+93125000000
2642+93125000000+93125000000+93125000000+93437500000+93750000000+93750000000
2611+94062500000+94062500000+94062500000+94062500000+94062500000+94062500000
2579+94062500000+94062500000+94062500000+94062500000+94062500000+94062500000
2547+94062500000+94062500000+94062500000+94062500000+94062500000+94062500000
2516+94375000000+94375000000+94375000000+94375000000+94375000000+94375000000
2484+94375000000+94062500000+94062500000+94062500000+93750000000+93750000000
2453+93750000000+93750000000+93750000000+93750000000+93750000000+93750000000
2421+93750000000+93750000000+93750000000+94062500000+93750000000+93750000000
2389+93750000000+93750000000+93437500000+93437500000+93125000000+92812500000
2358+92187500000+91875000000+91250000000+90625000000+90000000000+89062500000
2326+88125000000+86562500000+85000000000+83125000000+80312500000+76875000000
2295+73125000000+67187500000+59062500000+47812500000+35000000000+18437500000
2263+7812500000+4687500000+4687500000+5937500000+13125000000+25937500000
2232+40312499999+49375000000+55937500000+60625000000+63750000000+66562500000
2200+70312500000+73125000000+75937500000+78437500000+81250000000+82812500000
2168+84062500000+85000000000+85625000000+85937500000+85000000000+82812500000
2137+81562500000+81562500000+81875000000+82500000000+83750000000+86562500000
2105+89062500000+90000000000+90625000000+90937500000+91250000000+91562500000
2074+91562500000+91875000000+92187500000+92187500000+92500000000+92500000000
2042+92500000000+92500000000+92500000000+92812500000+92812500000+92812500000
2011+92812500000+92812500000+92812500000+92812500000+92812500000+92812500000
1979+92812500000+92500000000+92500000000+92187500000+91875000000+91562500000
1947+91250000000+90937500000+90625000000+90312500000+90000000000+89375000000
1916+88750000000+87812500000+86875000000+85312500000+83437500000+80000000000
1884+72812500000+59375000000+43437499999+40937500000+40937500000+41250000000
1853+42187500000+45625000000+43125000000+38125000000+32500000000+32500000000
1821+42812500000+55937500000+61875000000+63437500000+66875000000+73125000000
1789+76250000000+72187500000+70000000000+69687500000+70000000000+72500000000
1758+72500000000+67187500000+64062500000+61875000000+60312500000+58750000000
1726+58437500000+58750000000+60937500000+62812500000+65000000000+67812500000
1695+70312500000+70937500000+69687500000+67187500000+65312500000+65000000000
1663+65000000000+65000000000+65000000000+65000000000+65312500000+65312500000
1632+64687500000+63125000000+59687500000+56875000000+55312500000+53750000000
1600+51562500000+50312500000+49687499999+48750000000+46250000000+44062500000
1568+42812500000+42812500000+43750000000+45625000000+47812500000+49062500000
1537+48750000000+46875000000+44687500000+42812500000+39687500000+36250000000
1505+32812500000+31562500000+31562500000+34062500000+38749999999+38125000000
1474+33125000000+30000000000+29687500000+30312500000+32812500000+38125000000
1442+43750000000+49687499999+54375000000+58437500000+60312500000+60937500000
1411+63125000000+66562500000+69375000000+70000000000+70625000000+70937500000
1379+69375000000+67500000000+67500000000+67812500000+69375000000+70312500000
1347+71250000000+73125000000+75312500000+76250000000+73750000000+73437500000
1316+73750000000+75312500000+77187500000+78750000000+80000000000+80000000000
1284+79375000000+78750000000+78125000000+75937500000+73125000000+70937500000
1253+70625000000+70625000000+71250000000+72812500000+74375000000+74375000000
1221+72812500000+71875000000+71875000000+72187500000+74687500000+76875000000
1189+77187500000+77187500000+77500000000+79687500000+82812500000+84375000000
1158+84375000000+84375000000+84062500000+83750000000+83437500000+83125000000
1126+82500000000+81250000000+80000000000+79687500000+79687500000+80000000000
1095+81250000000+82187500000+83125000000+82812500000+82500000000+82187500000
1063+81875000000+81250000000+80937500000+80625000000+80312500000+80312500000
1032+81562500000+81875000000+82500000000+82812500000+82812500000+83125000000
1000+84062500000+84687500000+85937500000+87187500000+88125000000+88750000000
968+89062500000+89375000000+88750000000+88125000000+86250000000+85312500000
937+85000000000+85625000000+85937500000+86562500000+86562500000+85937500000
905+85000000000+83437500000+81562500000+79687500000+76875000000+74062500000
874+70312500000+66250000000+61875000000+58437500000+54687500000+52187500000
842+51875000000+52187500000+52812500000+54062500000+55312500000+56562500000
811+57812500000+59375000000+60937500000+63125000000+64687500000+66875000000
779+69687500000+72500000000+74687500000+77500000000+79687500000+81562500000
747+82812500000+84062500000+85000000000+86250000000+87187500000+87812500000
716+88125000000+87812500000+87187500000+86562500000+85625000000+85312500000
684+85000000000+85000000000+84687500000+84687500000+85000000000+85000000000
653+85625000000+85937500000+86250000000+87187500000+87812500000+88437500000
621+89375000000+90000000000+90625000000+91562500000+91875000000+92500000000
589+92812500000+93125000000+93125000000+93437500000+93437500000+93437500000
558+93437500000+93437500000+93437500000+93437500000+93750000000+93750000000
526+93750000000+93750000000+94062500000+94062500000+94062500000+94062500000
495+94062500000+94062500000+94062500000+93750000000+93437500000+93125000000
463+92812500000+92187500000+91250000000+90312500000+89375000000+88125000000
432+87500000000+86875000000+86875000000+86875000000+86875000000+87187500000
400+87187500000
##END=
