##TITLE=methyl 2-(2-benzothiazolyl)dithio-alpha-isopropenyl-4-oxo-3-phenoxyacetamido-1-azetidineacetate
##JCAMP-DX=4.24
##DATA TYPE=INFRARED SPECTRUM
##DATE=10/06/2025
##SAMPLING PROCEDURE=ATR
##ORIGIN=SDBS
##XUNITS=1/CM
##YUNITS=TRANSMITTANCE
##RESOLUTION=5.2631578947368425
##FIRSTX=4000.0
##LASTX=400.0
##DELTAX=-5.2631578947368425
##MAXY=95.0
##MINY=0.0
##XFACTOR=1
##YFACTOR=1
##NPOINTS=685
##FIRSTY=0.0
##XYDATA=(X++(Y..Y))
4000+0+90000000000+90000000000+90000000000+89687500000+89687500000
3968+89687500000+89687500000+89687500000+90000000000+89687500000+89375000000
3937+89375000000+89375000000+89375000000+89062500000+89062500000+89062500000
3905+89062500000+89062500000+89062500000+89375000000+89062500000+88750000000
3874+88750000000+88437500000+88437500000+88437500000+88437500000+88437500000
3842+88437500000+88437500000+88437500000+88437500000+88437500000+88437500000
3811+88750000000+88750000000+88750000000+88750000000+88750000000+88437500000
3779+88437500000+88437500000+88437500000+88437500000+88437500000+88125000000
3747+88125000000+88125000000+87812500000+87500000000+87812500000+87812500000
3716+87812500000+87812500000+87812500000+87812500000+87812500000+87500000000
3684+87187500000+87187500000+87187500000+87187500000+86875000000+86875000000
3653+86875000000+86562500000+86562500000+86562500000+86562500000+86562500000
3621+86562500000+86250000000+86250000000+86250000000+85937500000+85625000000
3589+85312500000+85000000000+85000000000+84687500000+84375000000+83750000000
3558+82812500000+80000000000+75312500000+69062500000+68750000000+73437500000
3526+77812500000+80000000000+80937500000+81250000000+81250000000+81250000000
3495+80937500000+80937500000+80937500000+80937500000+81250000000+81250000000
3463+81250000000+81250000000+81562500000+81562500000+81562500000+81875000000
3432+81875000000+81875000000+82187500000+82187500000+82500000000+82812500000
3400+83125000000+83437500000+83750000000+84062500000+84062500000+84062500000
3368+84375000000+84375000000+84375000000+82812500000+82187500000+82187500000
3337+82500000000+82187500000+80625000000+80000000000+78125000000+75625000000
3305+71562500000+65312500000+54687500000+40312499999+22812500000+15000000000
3274+13437500000+14062500000+9375000000+5312500000+4687500000+5312500000
3242+9062500000+14375000000+19375000000+24687500000+26875000000+22812500000
3211+18750000000+13750000000+14375000000+28125000000+51875000000+66250000000
3179+74062500000+78125000000+81250000000+82500000000+83750000000+85000000000
3147+86250000000+86562500000+87187500000+87187500000+86875000000+86562500000
3116+86562500000+86562500000+86875000000+86875000000+86875000000+86875000000
3084+86875000000+86875000000+86875000000+87187500000+87187500000+87187500000
3053+87500000000+87500000000+87812500000+87812500000+88125000000+88437500000
3021+88750000000+89062500000+89062500000+89375000000+89687500000+89687500000
2989+89687500000+89687500000+90000000000+90312500000+90625000000+90625000000
2958+90937500000+90937500000+90937500000+90937500000+90937500000+90937500000
2926+90937500000+90937500000+90937500000+90937500000+90937500000+90937500000
2895+91250000000+91250000000+91250000000+91250000000+91250000000+91250000000
2863+91562500000+91562500000+91562500000+91562500000+91875000000+91875000000
2832+91875000000+91562500000+91562500000+91562500000+91562500000+91562500000
2800+91875000000+91875000000+91875000000+91875000000+92187500000+92187500000
2768+92187500000+92187500000+92187500000+92500000000+92500000000+92500000000
2737+92500000000+92500000000+92812500000+92812500000+92812500000+92812500000
2705+92812500000+92812500000+93125000000+93125000000+93125000000+93125000000
2674+93125000000+93125000000+93125000000+93125000000+93437500000+93437500000
2642+93437500000+93437500000+93437500000+93437500000+93750000000+93750000000
2611+93750000000+93750000000+93750000000+93750000000+94062500000+94062500000
2579+94062500000+94062500000+94062500000+94062500000+94062500000+94062500000
2547+94375000000+94375000000+94375000000+94375000000+94687500000+94687500000
2516+94687500000+94687500000+94687500000+94687500000+94687500000+94687500000
2484+94687500000+94687500000+94687500000+94687500000+95000000000+95000000000
2453+94687500000+94687500000+94687500000+94687500000+94687500000+94687500000
2421+94687500000+94687500000+94687500000+94687500000+94687500000+94687500000
2389+94687500000+94375000000+94375000000+94375000000+94375000000+94375000000
2358+94375000000+94062500000+94062500000+93437500000+93125000000+92187500000
2326+90937500000+89375000000+84687500000+74375000000+55312500000+47812500000
2295+48437500000+60625000000+65312500000+76875000000+80312500000+83750000000
2263+80937500000+60937500000+44062500000+47500000000+75625000000+84375000000
2232+87187500000+87812500000+89062500000+90312500000+90625000000+90937500000
2200+91250000000+91562500000+91250000000+89687500000+85312500000+74375000000
2168+65937500000+65625000000+74062500000+82812500000+87500000000+89375000000
2137+90625000000+90625000000+90625000000+90937500000+91562500000+92187500000
2105+92812500000+93125000000+93125000000+93437500000+93437500000+93750000000
2074+93437500000+92500000000+90312500000+88437500000+88437500000+89375000000
2042+87500000000+87812500000+92187500000+93125000000+93437500000+93437500000
2011+93125000000+92812500000+92812500000+92500000000+92187500000+91875000000
1979+91562500000+90625000000+88125000000+83750000000+78437500000+69687500000
1947+66250000000+66562500000+76250000000+81562500000+84062500000+84375000000
1916+81875000000+77187500000+71562500000+71875000000+80625000000+78750000000
1884+72500000000+60000000000+47812500000+46875000000+44999999999+40937500000
1853+40312499999+52500000000+59687500000+57500000000+58750000000+69687500000
1821+71875000000+66562500000+72187500000+82500000000+86562500000+88125000000
1789+88437500000+89062500000+87812500000+87187500000+84687500000+76875000000
1758+69687500000+60625000000+58437500000+62187500000+72500000000+73437500000
1726+75625000000+75937500000+78437500000+75625000000+75625000000+75625000000
1695+76562500000+80937500000+84375000000+86250000000+86875000000+85000000000
1663+83125000000+81250000000+81250000000+85625000000+86250000000+86562500000
1632+88125000000+88750000000+89062500000+88750000000+88437500000+88125000000
1600+87812500000+86875000000+84375000000+77812500000+70625000000+70000000000
1568+71250000000+75000000000+76562500000+79375000000+83750000000+87500000000
1537+88750000000+90000000000+90625000000+90625000000+89375000000+87812500000
1505+84687500000+84375000000+85937500000+87500000000+87812500000+88437500000
1474+89062500000+81250000000+80625000000+79687500000+74375000000+75625000000
1442+72812500000+72500000000+78125000000+85312500000+89375000000+91250000000
1411+91875000000+92187500000+92187500000+92500000000+92812500000+92812500000
1379+92187500000+88750000000+85625000000+85000000000+85312500000+87812500000
1347+90312500000+84062500000+83125000000+86250000000+91250000000+91875000000
1316+87500000000+86875000000+89375000000+92500000000+93125000000+93125000000
1284+93125000000+92500000000+92187500000+91875000000+91562500000+89062500000
1253+84687500000+87812500000+88437500000+74375000000+82187500000+90000000000
1221+91562500000+91875000000+92187500000+92500000000+92812500000+93125000000
1189+93437500000+93437500000+93125000000+92812500000+92500000000+92500000000
1158+92500000000+92500000000+92812500000+92812500000+93125000000+93437500000
1126+93750000000+93750000000+93437500000+93125000000+90937500000+88437500000
1095+86562500000+86562500000+90000000000+90312500000+90937500000+91875000000
1063+92812500000+93125000000+93125000000+93437500000+93750000000+93750000000
1032+93437500000+92812500000+90000000000+86250000000+86250000000+89375000000
1000+90937500000+92187500000+93437500000+94062500000+94062500000+94375000000
968+94375000000+94687500000+94687500000+94687500000+95000000000+94687500000
937+94687500000+94687500000+94375000000+93750000000+92187500000+90625000000
905+85937500000+85000000000+72812500000+61875000000+71250000000+85000000000
874+89062500000+90625000000+89687500000+88750000000+71875000000+73437500000
842+83750000000+83750000000+85312500000+86875000000+88750000000+90312500000
811+89062500000+81562500000+82500000000+89687500000+90937500000+92500000000
779+91250000000+90000000000+89062500000+87812500000+87187500000+87187500000
747+88750000000+91250000000+92187500000+92812500000+93125000000+93437500000
716+93437500000+93437500000+93750000000+93750000000+94062500000+94062500000
684+93125000000+89375000000+87187500000+88437500000+88750000000+88437500000
653+88437500000+88750000000+89375000000+90000000000+90312500000+90937500000
621+90937500000+91250000000+91250000000+91562500000+91562500000+91875000000
589+91875000000+91875000000+91562500000+91250000000+90937500000+90625000000
558+90625000000+90312500000+90000000000+89687500000+89375000000+89062500000
526+89062500000+89062500000+89062500000+89062500000+89375000000+89687500000
495+90312500000+90625000000+90625000000+90000000000+88750000000+87187500000
463+85625000000+83437500000+81250000000+80000000000+79375000000+78750000000
432+78437500000+77500000000+76875000000+75937500000+75000000000+74062500000
400+74062500000
##END=
