##TITLE=N,N,N',N'-tetramethylbenzidine
##JCAMP-DX=4.24
##DATA TYPE=INFRARED SPECTRUM
##DATE=10/06/2025
##SAMPLING PROCEDURE=ATR
##ORIGIN=SDBS
##XUNITS=1/CM
##YUNITS=TRANSMITTANCE
##RESOLUTION=5.2631578947368425
##FIRSTX=4000.0
##LASTX=400.0
##DELTAX=-5.2631578947368425
##MAXY=94.375
##MINY=0.0
##XFACTOR=1
##YFACTOR=1
##NPOINTS=685
##FIRSTY=0.0
##XYDATA=(X++(Y..Y))
4000+0+73750000000+73750000000+74062500000+74062500000+73750000000
3968+73125000000+72812500000+72812500000+73125000000+73125000000+73125000000
3937+73125000000+72812500000+72187500000+71875000000+71875000000+71875000000
3905+71875000000+71562500000+71250000000+71250000000+70937500000+70625000000
3874+70625000000+70625000000+70312500000+70000000000+70000000000+70000000000
3842+70312500000+70000000000+70000000000+70000000000+70000000000+69687500000
3811+69375000000+69062500000+68750000000+68750000000+68750000000+68750000000
3779+68750000000+68750000000+68750000000+69062500000+68750000000+68125000000
3747+68125000000+68125000000+68125000000+68125000000+68125000000+67812500000
3716+67812500000+67812500000+67500000000+67500000000+67500000000+67500000000
3684+67500000000+67187500000+67187500000+66875000000+66562500000+66562500000
3653+66562500000+66562500000+66562500000+66250000000+65937500000+65937500000
3621+65625000000+65625000000+65312500000+65000000000+65000000000+64687500000
3589+64687500000+64687500000+64375000000+64375000000+64375000000+64375000000
3558+64375000000+64375000000+64375000000+64375000000+64062500000+64062500000
3526+64062500000+64062500000+64062500000+64062500000+64062500000+64062500000
3495+64062500000+64062500000+64062500000+64062500000+64062500000+64062500000
3463+63750000000+63437500000+63437500000+63437500000+63750000000+63750000000
3432+63750000000+63750000000+63750000000+63750000000+63750000000+64062500000
3400+64062500000+64062500000+64062500000+63437500000+62812500000+62500000000
3368+61875000000+61875000000+61875000000+61875000000+60312500000+58437500000
3337+58437500000+56250000000+54375000000+54375000000+54687500000+52812500000
3305+49687499999+45312500000+35625000000+25625000000+15625000000+11250000000
3274+10625000000+10625000000+7500000000+4687500000+4375000000+4687500000
3242+8125000000+11562500000+14062500000+16562500000+19375000000+17812500000
3211+14687500000+11562500000+12187500000+21562500000+39062500000+48437500000
3179+50000000000+49375000000+49375000000+49687499999+52187500000+55937500000
3147+59375000000+61250000000+62812500000+63750000000+64687500000+65000000000
3116+65312500000+65625000000+65625000000+65625000000+65625000000+65625000000
3084+65937500000+65937500000+66250000000+66562500000+66875000000+66562500000
3053+66562500000+66562500000+66562500000+66875000000+67187500000+67812500000
3021+68125000000+68437500000+68437500000+68125000000+68125000000+68125000000
2989+68125000000+68750000000+69062500000+69375000000+69375000000+69375000000
2958+69375000000+69687500000+70000000000+70312500000+70625000000+70625000000
2926+70625000000+70625000000+70625000000+70625000000+70625000000+70625000000
2895+70937500000+70937500000+71250000000+71250000000+71562500000+71562500000
2863+71562500000+71875000000+71875000000+71875000000+71875000000+71875000000
2832+72187500000+72187500000+72187500000+72187500000+71875000000+71875000000
2800+72187500000+72500000000+72500000000+72812500000+72812500000+72812500000
2768+73125000000+73125000000+73437500000+73750000000+73750000000+73750000000
2737+73750000000+74062500000+74062500000+74375000000+74687500000+74375000000
2705+74375000000+74687500000+74687500000+74375000000+74062500000+74062500000
2674+74375000000+74375000000+74687500000+75000000000+75312500000+75625000000
2642+75937500000+76250000000+76250000000+76562500000+76875000000+76875000000
2611+76875000000+76875000000+76875000000+76562500000+76562500000+76562500000
2579+76562500000+76562500000+76562500000+76875000000+76875000000+76875000000
2547+77187500000+77187500000+77500000000+77500000000+77500000000+77500000000
2516+77812500000+78125000000+78437500000+78437500000+78437500000+78437500000
2484+78125000000+78125000000+77812500000+77187500000+76562500000+76250000000
2453+75625000000+75312500000+75000000000+75000000000+75000000000+76875000000
2421+78125000000+78750000000+79062500000+79687500000+80312500000+80937500000
2389+81250000000+81562500000+81562500000+81875000000+81875000000+81875000000
2358+82187500000+82500000000+82500000000+82812500000+83125000000+83125000000
2326+83437500000+83125000000+83125000000+83125000000+82812500000+82812500000
2295+82812500000+83125000000+83437500000+83437500000+83437500000+83437500000
2263+83437500000+83437500000+83750000000+83750000000+84687500000+85625000000
2232+85937500000+86250000000+86875000000+87812500000+87812500000+87812500000
2200+88125000000+88750000000+89687500000+90000000000+90312500000+90625000000
2168+90625000000+90937500000+92187500000+93125000000+93437500000+93750000000
2137+94375000000+94375000000+93125000000+91250000000+88437500000+84687500000
2105+81875000000+75312500000+65937500000+52187500000+39375000000+28437500000
2074+21250000000+21250000000+24687500000+32500000000+40000000000+48437500000
2042+56562500000+62500000000+67187500000+70937500000+73750000000+75000000000
2011+77500000000+79062500000+81562500000+81875000000+77812500000+75937500000
1979+77500000000+75937500000+73437500000+67187500000+59687500000+47187500000
1947+34375000000+23750000000+16875000000+13437500000+13437500000+14375000000
1916+18125000000+22187500000+26875000000+30937500000+34062500000+33437500000
1884+30312500000+26250000000+23125000000+23125000000+24375000000+26562500000
1853+28437500000+32500000000+32500000000+29062500000+28750000000+34687500000
1821+42812500000+48437500000+51250000000+55625000000+58125000000+60312500000
1789+61875000000+61875000000+64375000000+66875000000+67187500000+64062500000
1758+60000000000+54062500000+51875000000+52812500000+42812500000+39375000000
1726+33437500000+24375000000+19062500000+18750000000+19375000000+22187500000
1695+25937500000+29375000000+32187500000+36562500000+39687500000+42812500000
1663+44999999999+46875000000+48437500000+49687499999+50312500000+51562500000
1632+53125000000+54062500000+55000000000+55312500000+55312500000+55312500000
1600+55937500000+56250000000+56562500000+56562500000+56250000000+55312500000
1568+53750000000+50625000000+44062500000+38125000000+30000000000+27500000000
1537+27500000000+32812500000+43750000000+53750000000+60000000000+64062500000
1505+55000000000+27187500000+20625000000+25000000000+35937500000+42500000000
1474+47500000000+50000000000+45312500000+38125000000+36562500000+37187499999
1442+40000000000+43437499999+45937500000+48124999999+50312500000+51250000000
1411+50937500000+49687499999+50000000000+50000000000+50625000000+52187500000
1379+53750000000+55312500000+56250000000+56875000000+57500000000+57812500000
1347+58125000000+57812500000+57187500000+55937500000+53125000000+48437500000
1316+46250000000+46250000000+51250000000+56562500000+60312500000+62500000000
1284+63750000000+65312500000+64062500000+56875000000+57812500000+62187500000
1253+64375000000+65625000000+66562500000+67187500000+68125000000+68750000000
1221+70625000000+50625000000+49062500000+62812500000+65937500000+67500000000
1189+69062500000+70000000000+71250000000+72500000000+72812500000+66875000000
1158+60937500000+41874999999+34375000000+37187499999+47812500000+54687500000
1126+58750000000+61250000000+64062500000+65625000000+66250000000+66875000000
1095+67812500000+68437500000+69062500000+69375000000+69687500000+70000000000
1063+70000000000+70312500000+70625000000+70937500000+71250000000+71250000000
1032+71562500000+71875000000+71875000000+71562500000+71250000000+70625000000
1000+68750000000+60937500000+60000000000+67812500000+64062500000+53437500000
968+39687500000+17187500000+14375000000+20312500000+36562500000+51250000000
937+65625000000+70000000000+71875000000+72812500000+73437500000+74687500000
905+75312500000+75937500000+76250000000+76562500000+76562500000+76250000000
874+75937500000+75312500000+75000000000+74375000000+74062500000+73750000000
842+73437500000+73125000000+72500000000+72500000000+74375000000+77500000000
811+78437500000+78750000000+79062500000+78750000000+78750000000+78750000000
779+78750000000+79062500000+79375000000+79687500000+80000000000+80000000000
747+79687500000+79062500000+74375000000+77187500000+80000000000+79687500000
716+79687500000+79687500000+79687500000+79687500000+79687500000+79687500000
684+79687500000+79687500000+80000000000+80000000000+80000000000+79687500000
653+79687500000+79375000000+79375000000+79375000000+79375000000+79375000000
621+79687500000+80000000000+80312500000+80625000000+80312500000+79687500000
589+77812500000+74687500000+65937500000+64687500000+65625000000+66562500000
558+63750000000+62187500000+62187500000+63437500000+68125000000+70000000000
526+74062500000+74687500000+74687500000+75312500000+75937500000+76875000000
495+77812500000+78750000000+79687500000+80312500000+80937500000+81875000000
463+82812500000+83750000000+85000000000+85937500000+85625000000+84687500000
432+83125000000+81562500000+80312500000+79375000000+78437500000+78125000000
400+78125000000
##END=
