##TITLE=N,N-dimethylacetamide
##JCAMP-DX=4.24
##DATA TYPE=INFRARED SPECTRUM
##DATE=10/06/2025
##SAMPLING PROCEDURE=ATR
##ORIGIN=SDBS
##XUNITS=1/CM
##YUNITS=TRANSMITTANCE
##RESOLUTION=5.2631578947368425
##FIRSTX=4000.0
##LASTX=400.0
##DELTAX=-5.2631578947368425
##MAXY=94.6875
##MINY=0.0
##XFACTOR=1
##YFACTOR=1
##NPOINTS=685
##FIRSTY=0.0
##XYDATA=(X++(Y..Y))
4000+0+88125000000+88125000000+88125000000+88125000000+88125000000
3968+88125000000+88437500000+89062500000+89375000000+90000000000+90625000000
3937+90937500000+90937500000+91250000000+91250000000+91562500000+91562500000
3905+91875000000+91875000000+92187500000+92500000000+92812500000+92812500000
3874+93125000000+93125000000+93125000000+93437500000+93437500000+93437500000
3842+93750000000+93750000000+93750000000+93750000000+93750000000+93750000000
3811+93437500000+93437500000+93437500000+93125000000+92500000000+92187500000
3779+91562500000+90937500000+90312500000+89375000000+88437500000+87187500000
3747+85937500000+84375000000+82500000000+80625000000+79062500000+77187500000
3716+74687500000+72812500000+70312500000+68125000000+65937500000+64687500000
3684+63750000000+63437500000+63437500000+63750000000+64062500000+65000000000
3653+65625000000+66250000000+66562500000+66875000000+67187500000+67812500000
3621+68125000000+69062500000+70000000000+71250000000+72500000000+74062500000
3589+75312500000+76875000000+78125000000+79375000000+80312500000+81562500000
3558+82187500000+83125000000+83437500000+83750000000+83125000000+82500000000
3526+81250000000+79375000000+77187500000+75000000000+73750000000+73437500000
3495+73750000000+75000000000+77812500000+80625000000+82187500000+83750000000
3463+84375000000+85000000000+85000000000+84687500000+84375000000+83750000000
3432+83125000000+82187500000+80937500000+80000000000+78750000000+77812500000
3400+77187500000+76562500000+75625000000+74375000000+73125000000+72187500000
3368+70312500000+68750000000+66562500000+64375000000+61875000000+58750000000
3337+55000000000+51562500000+45625000000+40000000000+38437500000+38437500000
3305+40000000000+42500000000+40000000000+37187499999+33750000000+30312500000
3274+26250000000+23437500000+21875000000+21562500000+22187500000+23750000000
3242+25937500000+27812500000+29375000000+30312500000+31250000000+31875000000
3211+32812500000+34687500000+38749999999+43125000000+46875000000+49375000000
3179+50937500000+51250000000+54375000000+58750000000+64062500000+67812500000
3147+70625000000+73750000000+77500000000+79375000000+80937500000+81875000000
3116+83125000000+84062500000+84375000000+84687500000+85000000000+85625000000
3084+86250000000+86562500000+87187500000+87812500000+88437500000+89062500000
3053+89375000000+88750000000+88125000000+87187500000+87187500000+87187500000
3021+87500000000+88437500000+89375000000+89687500000+89687500000+89062500000
2989+88437500000+87500000000+86875000000+86875000000+86875000000+88125000000
2958+89062500000+89687500000+90312500000+90312500000+90312500000+90625000000
2926+90937500000+90937500000+91250000000+91250000000+91250000000+90937500000
2895+90000000000+87812500000+85937500000+85625000000+85937500000+86250000000
2863+87187500000+88125000000+88750000000+89375000000+90312500000+90937500000
2832+91562500000+92187500000+93125000000+93437500000+93125000000+93125000000
2800+93125000000+93125000000+92187500000+90625000000+88437500000+87187500000
2768+86250000000+86250000000+87500000000+88437500000+89062500000+89375000000
2737+90312500000+90937500000+90625000000+87500000000+83125000000+82812500000
2705+81875000000+81875000000+83750000000+88125000000+90312500000+90000000000
2674+89687500000+90625000000+92187500000+93125000000+93437500000+94062500000
2642+94375000000+94687500000+94687500000+94687500000+94375000000+93750000000
2611+93437500000+93125000000+93125000000+93125000000+93125000000+92812500000
2579+92812500000+92812500000+92812500000+92812500000+92187500000+92187500000
2547+91875000000+91875000000+91875000000+92187500000+92500000000+92812500000
2516+92500000000+91250000000+90312500000+89375000000+89375000000+89687500000
2484+90625000000+91875000000+92812500000+93437500000+94062500000+94375000000
2453+94375000000+94375000000+94375000000+94687500000+94687500000+94375000000
2421+94375000000+94375000000+94375000000+94062500000+94062500000+93750000000
2389+93437500000+93125000000+92812500000+92500000000+92187500000+91562500000
2358+90937500000+90312500000+89687500000+88750000000+87812500000+87187500000
2326+86250000000+85625000000+85000000000+84375000000+83437500000+82500000000
2295+80937500000+78125000000+74062500000+67812500000+61250000000+54062500000
2263+51250000000+51250000000+53437500000+56562500000+59687500000+61250000000
2232+61875000000+61250000000+60000000000+58437500000+56250000000+52812500000
2200+48750000000+43750000000+39062500000+34062500000+29062500000+23437500000
2168+19062500000+14375000000+10312500000+7500000000+6250000000+5625000000
2137+5000000000+4687500000+4687500000+4687500000+4687500000+5000000000
2105+5312500000+6250000000+7812500000+10625000000+14375000000+17812500000
2074+21562500000+24375000000+26562500000+29062500000+32187500000+35312500000
2042+38437500000+40625000000+42500000000+43125000000+42812500000+41874999999
2011+40312499999+37187499999+33750000000+29062500000+25937500000+25625000000
1979+28125000000+30312500000+31562500000+30000000000+28125000000+25937500000
1947+23750000000+21562500000+19375000000+16875000000+15000000000+14375000000
1916+14375000000+14687500000+15312500000+16562500000+17500000000+18125000000
1884+18750000000+19062500000+19062500000+18750000000+18437500000+18125000000
1853+17812500000+17500000000+17187500000+17187500000+16875000000+16562500000
1821+16250000000+15312500000+13750000000+11250000000+9687500000+9687500000
1789+10312500000+9687500000+7812500000+7500000000+7812500000+9375000000
1758+12812500000+17187500000+20937500000+25000000000+27812500000+27187500000
1726+22500000000+19375000000+19375000000+23750000000+30312500000+37187499999
1695+41874999999+45625000000+47812500000+50312500000+52500000000+54375000000
1663+55937500000+57500000000+58750000000+59687500000+60000000000+59687500000
1632+58125000000+56250000000+52500000000+46250000000+37500000000+28750000000
1600+20625000000+19062500000+19375000000+23750000000+30625000000+39375000000
1568+46562499999+50937500000+54062500000+56250000000+57500000000+57812500000
1537+56875000000+55312500000+52187500000+49375000000+44687500000+39062500000
1505+32500000000+26562500000+19687500000+15937500000+15625000000+17187500000
1474+21562500000+23125000000+25937500000+33437500000+40312499999+46875000000
1442+51250000000+54062500000+55625000000+56875000000+58750000000+60312500000
1411+63437500000+65625000000+67187500000+68125000000+69062500000+69375000000
1379+69687500000+69375000000+68750000000+67500000000+66875000000+65937500000
1347+64687500000+62812500000+60000000000+55312500000+49062500000+41562500000
1316+37187499999+35625000000+35937500000+38437500000+42500000000+43437499999
1284+38125000000+33437500000+33125000000+34062500000+32187500000+23437500000
1253+15312500000+11250000000+10937500000+13125000000+20625000000+29375000000
1221+39375000000+48124999999+55000000000+60312500000+64687500000+68125000000
1189+70937500000+72812500000+72187500000+65937500000+64062500000+65625000000
1158+72187500000+76562500000+79062500000+80937500000+82500000000+84062500000
1126+85312500000+85937500000+86562500000+87500000000+88125000000+88437500000
1095+89062500000+89687500000+90312500000+90625000000+90937500000+91250000000
1063+91562500000+91875000000+92187500000+92500000000+92500000000+92812500000
1032+92812500000+92812500000+92812500000+93125000000+93125000000+93125000000
1000+93125000000+93125000000+93125000000+93125000000+93125000000+93125000000
968+93125000000+93125000000+93125000000+93437500000+93437500000+93437500000
937+93750000000+93750000000+93437500000+93437500000+93437500000+93125000000
905+92812500000+92500000000+92187500000+91875000000+90937500000+90312500000
874+87812500000+81562500000+69375000000+67500000000+72812500000+83750000000
842+88125000000+89375000000+90000000000+90625000000+90625000000+90625000000
811+90625000000+90312500000+90000000000+89687500000+89062500000+88750000000
779+88437500000+88125000000+87500000000+86250000000+85625000000+85000000000
747+85000000000+84687500000+84375000000+84062500000+83125000000+81875000000
716+80312500000+78750000000+77187500000+74375000000+70312500000+65312500000
684+57187500000+45937500000+37187499999+35000000000+24375000000+14687500000
653+16875000000+41874999999+57500000000+67500000000+71875000000+74687500000
621+75937500000+76875000000+77500000000+77812500000+78125000000+78125000000
589+78125000000+77812500000+77812500000+77500000000+77187500000+76875000000
558+76250000000+75625000000+75000000000+74375000000+73750000000+72500000000
526+70312500000+67812500000+63125000000+55937500000+41874999999+30625000000
495+29062500000+30312500000+38437500000+45312500000+57187500000+58125000000
463+64375000000+67500000000+69375000000+69375000000+69062500000+68125000000
432+67500000000+67187500000+67187500000+67500000000+67812500000+68437500000
400+68750000000
##END=
