##TITLE=N-(2,3,4,6-tetra-O-acetyl-D-glucopyranosyl)urea
##JCAMP-DX=4.24
##DATA TYPE=INFRARED SPECTRUM
##DATE=10/06/2025
##SAMPLING PROCEDURE=ATR
##ORIGIN=SDBS
##XUNITS=1/CM
##YUNITS=TRANSMITTANCE
##RESOLUTION=5.2631578947368425
##FIRSTX=4000.0
##LASTX=400.0
##DELTAX=-5.2631578947368425
##MAXY=94.6875
##MINY=0.0
##XFACTOR=1
##YFACTOR=1
##NPOINTS=685
##FIRSTY=0.0
##XYDATA=(X++(Y..Y))
4000+0+94687500000+94687500000+94687500000+94375000000+94062500000
3968+94062500000+94375000000+94375000000+94375000000+94062500000+94062500000
3937+93750000000+93750000000+93750000000+94062500000+93750000000+93750000000
3905+93750000000+93437500000+93437500000+93437500000+93437500000+93437500000
3874+93437500000+93125000000+93125000000+92812500000+92812500000+92812500000
3842+92812500000+92500000000+92187500000+92187500000+92187500000+92187500000
3811+92187500000+92500000000+92187500000+91875000000+91250000000+90625000000
3779+90000000000+89375000000+89375000000+89062500000+88750000000+88125000000
3747+87500000000+86875000000+86250000000+85625000000+85312500000+84687500000
3716+84375000000+84375000000+83750000000+83437500000+82812500000+82187500000
3684+81250000000+80625000000+79687500000+78750000000+77187500000+75312500000
3653+73437500000+70937500000+63437500000+49062500000+31562500000+30312500000
3621+41562500000+54062500000+58437500000+55625000000+49375000000+42812500000
3589+41250000000+41562500000+44687500000+44999999999+38437500000+29375000000
3558+28750000000+37500000000+43437499999+44687500000+43750000000+42187500000
3526+40625000000+39062500000+36250000000+32500000000+31250000000+30625000000
3495+28750000000+28125000000+28437500000+30312500000+32187500000+34062500000
3463+33437500000+32812500000+33125000000+35937500000+40937500000+45937500000
3432+50937500000+56250000000+59687500000+61875000000+63125000000+63750000000
3400+65312500000+67500000000+69375000000+70312500000+70625000000+70312500000
3368+70312500000+67500000000+64062500000+61875000000+62187500000+64687500000
3337+67500000000+68750000000+69062500000+69375000000+68437500000+65937500000
3305+65625000000+60937500000+50937500000+41874999999+27500000000+20937500000
3274+18437500000+18125000000+17500000000+13125000000+12500000000+12500000000
3242+18125000000+23125000000+27500000000+28125000000+33750000000+32187500000
3211+29062500000+24375000000+24687500000+37187499999+55937500000+68437500000
3179+74687500000+78125000000+80000000000+81562500000+83125000000+84062500000
3147+84687500000+85000000000+85312500000+85000000000+85000000000+85000000000
3116+85000000000+85000000000+85625000000+86250000000+86562500000+86875000000
3084+87187500000+87187500000+87500000000+87500000000+87812500000+87812500000
3053+88125000000+88437500000+88750000000+89062500000+89375000000+89687500000
3021+89687500000+90000000000+90625000000+90937500000+91250000000+91562500000
2989+91562500000+91562500000+91562500000+91562500000+91562500000+91562500000
2958+91562500000+91562500000+91562500000+91875000000+91875000000+91875000000
2926+91875000000+91875000000+91875000000+91875000000+91875000000+92187500000
2895+92187500000+92500000000+92812500000+93125000000+93437500000+93437500000
2863+93437500000+93750000000+93750000000+93750000000+94062500000+94062500000
2832+94062500000+94062500000+93750000000+93750000000+93750000000+93750000000
2800+93750000000+93750000000+94062500000+94062500000+94062500000+94062500000
2768+94375000000+94375000000+94687500000+94687500000+94375000000+94062500000
2737+93750000000+93437500000+93437500000+93125000000+92812500000+92187500000
2705+91875000000+91562500000+91250000000+91250000000+91250000000+92187500000
2674+93437500000+94062500000+94375000000+94375000000+94687500000+94375000000
2642+94375000000+94062500000+94062500000+94375000000+94687500000+94687500000
2611+94375000000+94375000000+94062500000+94062500000+93750000000+93750000000
2579+93437500000+93125000000+92812500000+92812500000+92500000000+92187500000
2547+92187500000+91875000000+91875000000+91875000000+91562500000+91562500000
2516+91875000000+91875000000+91875000000+92187500000+92187500000+92187500000
2484+92500000000+92500000000+92500000000+92187500000+92187500000+91875000000
2453+91562500000+90937500000+90625000000+90312500000+89687500000+89375000000
2421+89062500000+88437500000+87500000000+86562500000+85625000000+84687500000
2389+83750000000+82500000000+81250000000+80000000000+78437500000+76562500000
2358+74375000000+73125000000+70937500000+68437500000+66250000000+62812500000
2326+59687500000+56562500000+52500000000+47812500000+41874999999+35937500000
2295+30625000000+22812500000+14375000000+8125000000+5625000000+5312500000
2263+4687500000+5000000000+6875000000+8437500000+10937500000+13125000000
2232+22187500000+33750000000+44062500000+46875000000+40625000000+31250000000
2200+30937500000+35000000000+43750000000+45625000000+39687500000+39687500000
2168+41562500000+33125000000+27500000000+25625000000+21562500000+16562500000
2137+12187500000+10937500000+10937500000+12500000000+16562500000+20625000000
2105+25000000000+30312500000+31250000000+31250000000+38749999999+50000000000
2074+59687500000+64375000000+68125000000+70937500000+72500000000+73750000000
2042+74375000000+73750000000+73125000000+70937500000+69062500000+64375000000
2011+57500000000+47187500000+37500000000+32812500000+29687500000+25312500000
1979+24687500000+26562500000+30000000000+24062500000+22500000000+22812500000
1947+29062500000+41250000000+51875000000+58437500000+64375000000+69687500000
1916+72500000000+73750000000+75000000000+74687500000+72812500000+69687500000
1884+62500000000+50937500000+42500000000+41250000000+40312499999+39375000000
1853+39375000000+40000000000+41562500000+43437499999+44062500000+44375000000
1821+46875000000+51875000000+56250000000+57500000000+57812500000+57812500000
1789+58125000000+59375000000+57500000000+51875000000+42187500000+32500000000
1758+21562500000+13125000000+11562500000+12812500000+14375000000+15000000000
1726+22812500000+33437500000+43125000000+47500000000+44687500000+44062500000
1695+48124999999+50625000000+49687499999+53125000000+61562500000+65625000000
1663+64687500000+63125000000+60625000000+57812500000+55000000000+50937500000
1632+46250000000+40625000000+33125000000+26250000000+20000000000+16250000000
1600+13750000000+11250000000+8125000000+6250000000+5937500000+6562500000
1568+7500000000+10312500000+9375000000+7500000000+7500000000+7500000000
1537+5000000000+4687500000+5937500000+7187500000+10937500000+18750000000
1505+25625000000+24687500000+22187500000+23750000000+36250000000+46562499999
1474+54375000000+59375000000+63437500000+65000000000+65937500000+67812500000
1442+67187500000+60937500000+46875000000+45312500000+48437500000+53125000000
1411+61250000000+64062500000+60625000000+54375000000+44999999999+42187500000
1379+41250000000+43750000000+48750000000+50000000000+50000000000+44687500000
1347+34687500000+28437500000+28437500000+30312500000+29062500000+21562500000
1316+18437500000+18750000000+25000000000+19062500000+13125000000+11250000000
1284+10312500000+10312500000+10625000000+11562500000+13750000000+20625000000
1253+30937500000+40937500000+46562499999+51875000000+55937500000+55312500000
1221+49687499999+49062500000+51562500000+55937500000+58437500000+58750000000
1189+60312500000+63437500000+71250000000+70937500000+75312500000+80937500000
1158+84062500000+85625000000+86875000000+87500000000+85625000000+83125000000
1126+77500000000+57500000000+45625000000+45625000000+55937500000+51875000000
1095+51875000000+70312500000+77187500000+75625000000+68437500000+66875000000
1063+75000000000+84062500000+87500000000+89375000000+88750000000+88125000000
1032+88125000000+88750000000+90312500000+91562500000+92187500000+93125000000
1000+93437500000+94062500000+94062500000+94375000000+94687500000+94687500000
968+94687500000+94375000000+93750000000+92812500000+91875000000+91562500000
937+91562500000+89062500000+81875000000+82500000000+89375000000+90000000000
905+89375000000+88437500000+87500000000+86562500000+85312500000+84062500000
874+82187500000+79687500000+76562500000+74062500000+71250000000+68125000000
842+65312500000+65312500000+66562500000+66250000000+62812500000+62500000000
811+63125000000+65000000000+65625000000+65937500000+66562500000+70312500000
779+74375000000+73125000000+70937500000+72500000000+75000000000+74062500000
747+70937500000+70312500000+66250000000+65937500000+68750000000+71875000000
716+73750000000+72812500000+67500000000+59062500000+55625000000+49062500000
684+41250000000+41562500000+48750000000+50937500000+55000000000+64687500000
653+64687500000+65312500000+65312500000+66250000000+68750000000+71562500000
621+61562500000+50937500000+54375000000+68437500000+75312500000+77500000000
589+69687500000+67500000000+68750000000+79687500000+85625000000+87500000000
558+86250000000+84687500000+79375000000+77500000000+80937500000+81875000000
526+82500000000+83125000000+82187500000+60625000000+59062500000+81562500000
495+83125000000+84062500000+85937500000+89062500000+89687500000+90312500000
463+90625000000+90625000000+90625000000+90312500000+90000000000+89687500000
432+89062500000+88437500000+88437500000+88437500000+88125000000+88125000000
400+88437500000
##END=
