##TITLE=n-(trimethylsilyl)acetamide
##JCAMP-DX=4.24
##DATA TYPE=INFRARED SPECTRUM
##DATE=10/06/2025
##SAMPLING PROCEDURE=ATR
##ORIGIN=SDBS
##XUNITS=1/CM
##YUNITS=TRANSMITTANCE
##RESOLUTION=5.2631578947368425
##FIRSTX=4000.0
##LASTX=400.0
##DELTAX=-5.2631578947368425
##MAXY=95.0
##MINY=0.0
##XFACTOR=1
##YFACTOR=1
##NPOINTS=685
##FIRSTY=0.0
##XYDATA=(X++(Y..Y))
4000+0+85937500000+85937500000+86562500000+86875000000+86875000000
3968+86875000000+86875000000+86875000000+86875000000+87187500000+87187500000
3937+87187500000+87187500000+87187500000+87187500000+87500000000+87500000000
3905+87500000000+87812500000+88125000000+88125000000+88125000000+88125000000
3874+88125000000+88125000000+88125000000+88437500000+88437500000+88437500000
3842+88437500000+88437500000+88750000000+89062500000+88750000000+88750000000
3811+88750000000+88750000000+88750000000+88750000000+88750000000+89062500000
3779+89062500000+89062500000+89062500000+89062500000+89062500000+89062500000
3747+89062500000+88750000000+88437500000+88437500000+88125000000+88125000000
3716+87812500000+87812500000+87500000000+87500000000+87187500000+86875000000
3684+86562500000+86250000000+85625000000+85312500000+84687500000+84062500000
3653+83125000000+82500000000+81562500000+80312500000+79062500000+77500000000
3621+75312500000+73437500000+70625000000+67812500000+64062500000+59062500000
3589+53125000000+48124999999+41874999999+36250000000+31562500000+28437500000
3558+25937500000+24062500000+23125000000+22812500000+22812500000+22812500000
3526+22812500000+22812500000+23437500000+24062500000+25312500000+26562500000
3495+27500000000+28750000000+29687500000+30625000000+30937500000+30625000000
3463+30000000000+28750000000+25937500000+23437500000+20312500000+18437500000
3432+16562500000+15312500000+15000000000+15000000000+15312500000+16562500000
3400+18750000000+21875000000+25000000000+29687500000+33750000000+37812500000
3368+40937500000+44375000000+47812500000+50937500000+54375000000+56250000000
3337+58125000000+59375000000+60312500000+61250000000+62500000000+62812500000
3305+60937500000+57500000000+50000000000+38437500000+23125000000+15625000000
3274+14375000000+15000000000+10000000000+5625000000+4687500000+5000000000
3242+9687500000+16250000000+22187500000+28750000000+30937500000+26250000000
3211+21250000000+15000000000+15000000000+29687500000+50312500000+60625000000
3179+63437500000+66250000000+72500000000+77187500000+80625000000+83125000000
3147+85625000000+86875000000+87812500000+88437500000+88750000000+88750000000
3116+89062500000+89375000000+89687500000+90000000000+90000000000+90000000000
3084+90000000000+90312500000+90625000000+91250000000+91562500000+91875000000
3053+92187500000+92187500000+92187500000+92187500000+92500000000+92812500000
3021+93125000000+93125000000+93125000000+92812500000+92500000000+92500000000
2989+92500000000+92812500000+93437500000+93437500000+93437500000+93437500000
2958+93437500000+93437500000+93750000000+94062500000+94375000000+94375000000
2926+94687500000+94687500000+94687500000+94375000000+94375000000+94062500000
2895+94062500000+94062500000+94375000000+94687500000+95000000000+94687500000
2863+94375000000+94062500000+94062500000+93750000000+93437500000+93125000000
2832+92812500000+91562500000+90625000000+90625000000+92187500000+93125000000
2800+93125000000+93125000000+93125000000+93437500000+93437500000+93750000000
2768+94062500000+94375000000+94375000000+94687500000+94687500000+94687500000
2737+94687500000+94687500000+94375000000+94062500000+93750000000+93750000000
2705+93750000000+94062500000+94375000000+94375000000+94375000000+94687500000
2674+94687500000+94687500000+94687500000+94375000000+94375000000+94062500000
2642+93750000000+93437500000+93437500000+93437500000+93437500000+93750000000
2611+93750000000+94062500000+94062500000+94062500000+94062500000+93750000000
2579+93750000000+93750000000+93750000000+93750000000+93750000000+93750000000
2547+93750000000+93750000000+93750000000+93437500000+93437500000+93437500000
2516+93437500000+93125000000+93125000000+93125000000+93125000000+93125000000
2484+92812500000+92812500000+92500000000+92500000000+92187500000+91875000000
2453+91875000000+91562500000+91250000000+91250000000+91250000000+90937500000
2421+90937500000+90937500000+90937500000+90937500000+90625000000+90625000000
2389+90625000000+90312500000+90000000000+90000000000+89687500000+89375000000
2358+88750000000+88437500000+88125000000+87500000000+87187500000+86562500000
2326+85937500000+85625000000+85312500000+84687500000+84375000000+83750000000
2295+82812500000+81875000000+80625000000+78750000000+76875000000+74062500000
2263+70000000000+65937500000+63750000000+62812500000+62500000000+62500000000
2232+61562500000+60000000000+56562500000+51250000000+45625000000+38125000000
2200+29687500000+21875000000+16562500000+13125000000+11250000000+10937500000
2168+10937500000+11562500000+13437500000+16250000000+19375000000+22187500000
2137+24375000000+24062500000+22500000000+21250000000+20625000000+20625000000
2105+20937500000+21562500000+23437500000+25937500000+27812500000+28437500000
2074+29062500000+29375000000+29062500000+28750000000+28437500000+28437500000
2042+28750000000+29375000000+30000000000+30625000000+31875000000+33437500000
2011+35625000000+38749999999+41562500000+44687500000+47500000000+50000000000
1979+52187500000+53437500000+55000000000+55937500000+56562500000+56875000000
1947+57187500000+56875000000+56875000000+56562500000+56250000000+55937500000
1916+55312500000+55000000000+54375000000+52812500000+51250000000+47812500000
1884+42812500000+35625000000+28437500000+26875000000+26875000000+27500000000
1853+28750000000+32187500000+35000000000+37500000000+39062500000+40000000000
1821+39687500000+38437500000+36250000000+33125000000+30625000000+28750000000
1789+26875000000+25625000000+25625000000+26250000000+27500000000+29687500000
1758+31562500000+32812500000+32812500000+35937500000+43437499999+44687500000
1726+40937500000+40000000000+39375000000+44375000000+50312500000+55000000000
1695+58125000000+60625000000+62187500000+63750000000+65625000000+67187500000
1663+68125000000+69062500000+70312500000+71250000000+72187500000+73125000000
1632+74062500000+75312500000+76250000000+77187500000+78125000000+78750000000
1600+79062500000+79687500000+80000000000+80625000000+80937500000+81562500000
1568+82187500000+82812500000+83437500000+84062500000+84687500000+85000000000
1537+85312500000+85625000000+86250000000+86562500000+86562500000+86875000000
1505+87187500000+87187500000+87187500000+86875000000+85937500000+85312500000
1474+84375000000+83750000000+81875000000+79687500000+75312500000+68750000000
1442+54062500000+36562500000+34687500000+45937500000+65000000000+73125000000
1411+79687500000+82500000000+84375000000+85312500000+85937500000+86562500000
1379+86875000000+87187500000+87500000000+87500000000+87812500000+87812500000
1347+87812500000+87812500000+87812500000+87812500000+87500000000+87187500000
1316+86875000000+85312500000+84687500000+83437500000+83125000000+83125000000
1284+83750000000+84687500000+85312500000+85937500000+86562500000+86250000000
1253+85312500000+84062500000+81562500000+80312500000+80312500000+81250000000
1221+83437500000+85937500000+87187500000+87812500000+88437500000+88437500000
1189+88750000000+89062500000+89062500000+89375000000+89375000000+89687500000
1158+89687500000+89687500000+89687500000+89375000000+89375000000+89062500000
1126+89062500000+89062500000+89062500000+89062500000+89375000000+89375000000
1095+89375000000+89062500000+88437500000+87500000000+86250000000+84375000000
1063+79687500000+69687500000+63437500000+64375000000+75937500000+80625000000
1032+82812500000+84062500000+84375000000+84375000000+83750000000+83125000000
1000+82187500000+81250000000+79687500000+78125000000+76875000000+74687500000
968+72812500000+71562500000+70625000000+70312500000+70312500000+70312500000
937+70625000000+70625000000+70312500000+69375000000+68125000000+66562500000
905+64375000000+62500000000+60000000000+56875000000+52812500000+50000000000
874+45625000000+41250000000+36562500000+33437500000+30625000000+27187500000
842+25000000000+24375000000+24062500000+24375000000+24687500000+25625000000
811+26875000000+28750000000+31250000000+34062500000+36250000000+39062500000
779+42812500000+46562499999+49375000000+52500000000+55937500000+57812500000
747+61250000000+64375000000+66562500000+68437500000+70000000000+71562500000
716+72812500000+74375000000+75312500000+76250000000+78125000000+79687500000
684+80000000000+79062500000+77187500000+72812500000+64062500000+55937500000
653+37187499999+35937500000+44687500000+64687500000+75312500000+78750000000
621+82187500000+86875000000+90000000000+91875000000+93125000000+94062500000
589+94375000000+94687500000+94375000000+94375000000+94062500000+94062500000
558+94062500000+94062500000+94062500000+94375000000+94687500000+94687500000
526+94375000000+93750000000+92812500000+90937500000+89062500000+82812500000
495+67812500000+42187500000+40000000000+55312500000+70312500000+71250000000
463+77187500000+84062500000+91250000000+92187500000+92187500000+90937500000
432+87500000000+84062500000+82187500000+80000000000+78125000000+77187500000
400+76562500000
##END=
