##TITLE=N-acetyl-N'-(2,3,4,6-tetra-O-acetyl-beta-D-glucopyranosyl)urea
##JCAMP-DX=4.24
##DATA TYPE=INFRARED SPECTRUM
##DATE=10/06/2025
##SAMPLING PROCEDURE=ATR
##ORIGIN=SDBS
##XUNITS=1/CM
##YUNITS=TRANSMITTANCE
##RESOLUTION=5.2631578947368425
##FIRSTX=4000.0
##LASTX=400.0
##DELTAX=-5.2631578947368425
##MAXY=94.6875
##MINY=0.0
##XFACTOR=1
##YFACTOR=1
##NPOINTS=685
##FIRSTY=0.0
##XYDATA=(X++(Y..Y))
4000+0+92500000000+92500000000+92187500000+92187500000+92500000000
3968+92500000000+92500000000+92187500000+91875000000+91875000000+91875000000
3937+91875000000+91875000000+91875000000+91875000000+92187500000+92187500000
3905+91875000000+91562500000+91250000000+90937500000+90937500000+90937500000
3874+91250000000+91250000000+90937500000+90937500000+90937500000+90937500000
3842+90625000000+90625000000+90625000000+90625000000+90625000000+90312500000
3811+90312500000+90312500000+90625000000+90625000000+90625000000+90625000000
3779+90312500000+89375000000+88125000000+86562500000+84375000000+82500000000
3747+81875000000+80937500000+79375000000+75625000000+73750000000+73750000000
3716+74687500000+77500000000+81250000000+83125000000+84375000000+85000000000
3684+85000000000+85312500000+85937500000+85937500000+85937500000+85000000000
3653+84062500000+82812500000+81875000000+80937500000+80625000000+80312500000
3621+79687500000+78437500000+76875000000+75312500000+73125000000+71562500000
3589+71562500000+71562500000+71875000000+72187500000+72812500000+72187500000
3558+70937500000+67187500000+63125000000+58125000000+53125000000+48437500000
3526+45937500000+44375000000+42500000000+39375000000+36250000000+34687500000
3495+33750000000+33750000000+35937500000+40312499999+45625000000+51562500000
3463+56562500000+59375000000+61250000000+62812500000+63437500000+63437500000
3432+63437500000+64062500000+65000000000+66562500000+67812500000+68750000000
3400+70000000000+71250000000+72187500000+73125000000+74375000000+75312500000
3368+75937500000+76250000000+76875000000+76875000000+76562500000+76250000000
3337+75625000000+74062500000+72500000000+71250000000+68437500000+66250000000
3305+61875000000+55000000000+44999999999+34062500000+19062500000+12187500000
3274+10625000000+11562500000+7812500000+5312500000+4687500000+5000000000
3242+8750000000+13750000000+18437500000+23437500000+25937500000+22812500000
3211+18125000000+12812500000+13125000000+26875000000+49375000000+63125000000
3179+70625000000+74687500000+77187500000+79687500000+81250000000+82187500000
3147+83750000000+84687500000+84687500000+84687500000+84375000000+84062500000
3116+83750000000+83750000000+84375000000+85312500000+86250000000+86250000000
3084+86250000000+86562500000+86562500000+86562500000+86875000000+87187500000
3053+87500000000+88125000000+88750000000+88750000000+89062500000+89375000000
3021+89687500000+90000000000+90312500000+90625000000+90937500000+91250000000
2989+91562500000+91875000000+91875000000+91875000000+92187500000+92187500000
2958+92187500000+92187500000+91875000000+91875000000+91875000000+91875000000
2926+91875000000+91875000000+91875000000+91875000000+91875000000+92187500000
2895+92500000000+92812500000+92812500000+93125000000+93125000000+93125000000
2863+93125000000+93125000000+93125000000+93437500000+93437500000+93750000000
2832+93750000000+93750000000+93750000000+93750000000+93437500000+93437500000
2800+93437500000+93437500000+93437500000+93750000000+94062500000+94062500000
2768+94062500000+94062500000+94375000000+94375000000+94375000000+94062500000
2737+94062500000+93750000000+93437500000+93125000000+92812500000+92500000000
2705+92500000000+92187500000+92500000000+92812500000+93125000000+93125000000
2674+93750000000+94062500000+94375000000+94687500000+94687500000+94687500000
2642+94375000000+94062500000+94062500000+94062500000+94062500000+94062500000
2611+94375000000+94375000000+94375000000+94062500000+94062500000+93437500000
2579+93437500000+92812500000+92812500000+92812500000+92812500000+92812500000
2547+92812500000+92812500000+92812500000+93125000000+93125000000+93125000000
2516+93125000000+93125000000+93125000000+93125000000+93125000000+93125000000
2484+92812500000+92812500000+92500000000+92187500000+91875000000+91562500000
2453+91250000000+90937500000+90937500000+90312500000+90000000000+89687500000
2421+89375000000+88750000000+88125000000+87187500000+86250000000+85625000000
2389+84375000000+83437500000+81875000000+80937500000+79375000000+77500000000
2358+75937500000+74375000000+73125000000+71875000000+70625000000+69062500000
2326+66562500000+64062500000+61250000000+58437500000+53750000000+47812500000
2295+42812500000+36562500000+28750000000+18437500000+10625000000+6250000000
2263+5937500000+7500000000+11562500000+7500000000+7812500000+20937500000
2232+31875000000+29687500000+21562500000+19375000000+18750000000+20000000000
2200+31875000000+35937500000+35312500000+26250000000+17812500000+16562500000
2168+16875000000+24062500000+34375000000+41874999999+49375000000+55312500000
2137+59375000000+61875000000+64687500000+67187500000+70000000000+71875000000
2105+73437500000+74375000000+75312500000+76562500000+77500000000+77500000000
2074+78437500000+79375000000+80312500000+81250000000+81875000000+82500000000
2042+83125000000+83125000000+82500000000+81250000000+80312500000+78125000000
2011+74375000000+70312500000+65000000000+56250000000+44687500000+29687500000
1979+23125000000+19375000000+19062500000+22500000000+29687500000+36250000000
1947+41562500000+44062500000+44999999999+46875000000+49375000000+50625000000
1916+50625000000+50937500000+52500000000+54062500000+55312500000+55937500000
1884+53437500000+45625000000+38437500000+38125000000+39062500000+41250000000
1853+43437499999+48124999999+50625000000+53125000000+55625000000+57812500000
1821+59687500000+60312500000+61250000000+62187500000+62187500000+64375000000
1789+65937500000+64375000000+60937500000+55625000000+48124999999+36875000000
1758+25312500000+20625000000+20625000000+25000000000+33437500000+41250000000
1726+51250000000+62187500000+69062500000+72187500000+74062500000+76562500000
1695+78437500000+78750000000+75625000000+70937500000+70312500000+70625000000
1663+71875000000+73750000000+72500000000+70625000000+68437500000+65000000000
1632+60000000000+54687500000+48750000000+40937500000+33125000000+32187500000
1600+27812500000+21250000000+16875000000+14375000000+12187500000+10625000000
1568+9375000000+9375000000+10000000000+9062500000+8750000000+8125000000
1537+8437500000+10312500000+17187500000+23750000000+28125000000+30937500000
1505+43437499999+55000000000+61562500000+68125000000+73437500000+75937500000
1474+76875000000+73125000000+72812500000+75625000000+79375000000+81562500000
1442+79062500000+72500000000+68125000000+68750000000+73750000000+77812500000
1411+79687500000+76562500000+70937500000+63750000000+57187500000+50312500000
1379+41250000000+35000000000+35312500000+40937500000+47812500000+54687500000
1347+60312500000+60312500000+52812500000+39375000000+34375000000+34375000000
1316+35312500000+38749999999+40000000000+35312500000+30000000000+25312500000
1284+24375000000+24687500000+26875000000+31562500000+41874999999+52812500000
1253+61562500000+67500000000+72500000000+74062500000+74375000000+74375000000
1221+74375000000+74375000000+74687500000+75312500000+77812500000+79375000000
1189+83750000000+86250000000+83437500000+82812500000+83750000000+86562500000
1158+89062500000+90937500000+91562500000+91562500000+91250000000+90625000000
1126+88750000000+83437500000+70937500000+65312500000+67187500000+60625000000
1095+59687500000+62500000000+71250000000+82812500000+87187500000+89062500000
1063+90625000000+90312500000+89687500000+89687500000+90625000000+92500000000
1032+93437500000+93437500000+93437500000+93437500000+93437500000+93437500000
1000+93437500000+93437500000+93437500000+93750000000+93437500000+93437500000
968+92812500000+92187500000+91875000000+91250000000+90625000000+90000000000
937+88437500000+86250000000+83750000000+82500000000+82500000000+84375000000
905+88437500000+89687500000+90000000000+87812500000+86250000000+85937500000
874+85625000000+85312500000+84687500000+83750000000+81250000000+76875000000
842+71875000000+70000000000+69375000000+69687500000+70625000000+74375000000
811+76562500000+72500000000+68125000000+68437500000+74062500000+79062500000
779+81250000000+82500000000+83125000000+83750000000+84375000000+86250000000
747+87187500000+86250000000+82812500000+82500000000+84375000000+87500000000
716+86875000000+80312500000+78437500000+78750000000+77812500000+76875000000
684+66875000000+65625000000+70937500000+79062500000+75312500000+68750000000
653+69062500000+80000000000+75312500000+73750000000+76875000000+86875000000
621+90000000000+91875000000+90000000000+79062500000+75937500000+81562500000
589+91875000000+93437500000+94062500000+94687500000+94375000000+93750000000
558+92812500000+91562500000+89375000000+86562500000+85937500000+86875000000
526+86875000000+87500000000+88125000000+89062500000+89687500000+90000000000
495+90000000000+90000000000+90312500000+90937500000+91250000000+90937500000
463+90000000000+88437500000+86250000000+84062500000+81875000000+79375000000
432+77500000000+75625000000+74687500000+73750000000+73125000000+72812500000
400+72500000000
##END=
