##TITLE=N-acetyl-S-benzyl-DL-cysteine
##JCAMP-DX=4.24
##DATA TYPE=INFRARED SPECTRUM
##DATE=10/06/2025
##SAMPLING PROCEDURE=ATR
##ORIGIN=SDBS
##XUNITS=1/CM
##YUNITS=TRANSMITTANCE
##RESOLUTION=5.2631578947368425
##FIRSTX=4000.0
##LASTX=400.0
##DELTAX=-5.2631578947368425
##MAXY=95.0
##MINY=0.0
##XFACTOR=1
##YFACTOR=1
##NPOINTS=685
##FIRSTY=0.0
##XYDATA=(X++(Y..Y))
4000+0+91250000000+91250000000+91250000000+91562500000+91875000000
3968+91875000000+91875000000+91875000000+91875000000+91875000000+92187500000
3937+92187500000+92187500000+92187500000+92500000000+92500000000+92500000000
3905+92187500000+92187500000+92187500000+92187500000+92500000000+92500000000
3874+92812500000+92812500000+92812500000+92812500000+92812500000+92812500000
3842+92812500000+92812500000+92812500000+93125000000+93437500000+93437500000
3811+93437500000+93437500000+93437500000+93437500000+93750000000+94062500000
3779+94062500000+94375000000+94062500000+94062500000+93750000000+93750000000
3747+93437500000+93750000000+93750000000+94062500000+94062500000+94062500000
3716+94062500000+94375000000+94375000000+94687500000+94687500000+94687500000
3684+95000000000+94687500000+94687500000+94375000000+94062500000+94062500000
3653+93750000000+93750000000+93750000000+93750000000+93437500000+93437500000
3621+93125000000+92812500000+92187500000+92187500000+91875000000+91562500000
3589+90937500000+90312500000+89687500000+89375000000+88437500000+86875000000
3558+81875000000+67187500000+49062500000+48750000000+61250000000+72812500000
3526+77812500000+80625000000+81875000000+83125000000+83437500000+83750000000
3495+84062500000+83750000000+83437500000+83437500000+83437500000+83437500000
3463+83437500000+83750000000+83750000000+83750000000+83437500000+83437500000
3432+83750000000+84062500000+84375000000+84375000000+84687500000+85000000000
3400+85312500000+85937500000+86250000000+85312500000+85312500000+85000000000
3368+85000000000+83125000000+84062500000+82500000000+82500000000+83125000000
3337+82812500000+81875000000+77812500000+77812500000+75937500000+72812500000
3305+68437500000+61250000000+49062500000+34062500000+18437500000+12187500000
3274+11250000000+11562500000+8125000000+5312500000+4687500000+4687500000
3242+7812500000+11250000000+14687500000+18437500000+20625000000+16875000000
3211+14375000000+10625000000+10937500000+20937500000+40937500000+55625000000
3179+63437500000+67812500000+70937500000+72500000000+74687500000+76562500000
3147+78125000000+78750000000+80000000000+80625000000+80625000000+80625000000
3116+80625000000+80625000000+80937500000+81250000000+80937500000+80625000000
3084+80312500000+80000000000+80000000000+80000000000+79687500000+79375000000
3053+79062500000+78750000000+78750000000+78750000000+78750000000+79062500000
3021+79375000000+79687500000+80000000000+80312500000+80625000000+80625000000
2989+80312500000+80000000000+80000000000+79687500000+79375000000+78750000000
2958+78750000000+78437500000+78437500000+78437500000+78437500000+78750000000
2926+78750000000+79062500000+79375000000+79687500000+80000000000+80312500000
2895+80625000000+80937500000+81250000000+81562500000+81875000000+82187500000
2863+82500000000+82812500000+82812500000+83125000000+83125000000+83125000000
2832+83437500000+83750000000+84062500000+84375000000+84687500000+85000000000
2800+85312500000+85625000000+85625000000+85625000000+85937500000+86250000000
2768+86250000000+86562500000+86562500000+86875000000+86875000000+87187500000
2737+87187500000+87500000000+87500000000+87500000000+87812500000+87812500000
2705+88125000000+88125000000+88125000000+88125000000+88125000000+88125000000
2674+88125000000+88125000000+88125000000+88437500000+88437500000+88125000000
2642+88125000000+88125000000+87812500000+87812500000+87500000000+87500000000
2611+87500000000+87500000000+87500000000+87500000000+87812500000+87812500000
2579+87812500000+87812500000+87812500000+87812500000+87812500000+87812500000
2547+87812500000+87812500000+87812500000+87812500000+87812500000+87812500000
2516+88125000000+88125000000+88125000000+88125000000+88125000000+88125000000
2484+88125000000+87812500000+87812500000+87812500000+87812500000+87812500000
2453+87812500000+87812500000+87812500000+88125000000+88125000000+88437500000
2421+88750000000+89062500000+89375000000+89687500000+90000000000+90312500000
2389+90625000000+90937500000+90937500000+91250000000+91250000000+91250000000
2358+91250000000+90937500000+90937500000+90937500000+90937500000+90937500000
2326+90937500000+91250000000+91250000000+91562500000+91562500000+91562500000
2295+91875000000+91875000000+91562500000+91250000000+90937500000+90625000000
2263+90312500000+89687500000+89062500000+87500000000+85000000000+82500000000
2232+78125000000+72812500000+65000000000+54687500000+44687500000+38437500000
2200+38437500000+43437499999+51250000000+59062500000+67812500000+74687500000
2168+78750000000+80937500000+82500000000+83437500000+84062500000+85312500000
2137+85937500000+85625000000+85000000000+83750000000+80937500000+75625000000
2105+70625000000+64062500000+59375000000+56875000000+56875000000+55937500000
2074+55312500000+55312500000+56562500000+59687500000+63437500000+68437500000
2042+72812500000+75000000000+76562500000+76562500000+75312500000+71875000000
2011+65625000000+56875000000+49375000000+44999999999+44999999999+47812500000
1979+54687500000+59687500000+64687500000+68437500000+71562500000+73437500000
1947+75625000000+77187500000+78437500000+79062500000+79687500000+79062500000
1916+75312500000+69062500000+69375000000+73750000000+72812500000+68437500000
1884+59062500000+44999999999+33125000000+32500000000+32500000000+33750000000
1853+35625000000+35312500000+44999999999+50312500000+55312500000+59375000000
1821+64375000000+66875000000+69687500000+72500000000+74375000000+76875000000
1789+79062500000+80625000000+81250000000+80937500000+77500000000+66875000000
1758+58125000000+48124999999+44999999999+47812500000+59687500000+62500000000
1726+66250000000+73437500000+75625000000+76562500000+77500000000+75625000000
1695+75312500000+76875000000+77500000000+73437500000+68437500000+68125000000
1663+64687500000+62187500000+63750000000+69062500000+72500000000+74062500000
1632+72187500000+65937500000+59687500000+59062500000+61875000000+68125000000
1600+72812500000+76562500000+80312500000+82500000000+83750000000+78437500000
1568+70937500000+70937500000+74687500000+77187500000+81562500000+83125000000
1537+83750000000+84375000000+85000000000+85312500000+84687500000+82812500000
1505+84062500000+83125000000+86250000000+89062500000+88750000000+88125000000
1474+89062500000+89062500000+88750000000+88750000000+88437500000+87812500000
1442+87500000000+86875000000+86562500000+86562500000+86562500000+87500000000
1411+89375000000+90000000000+88750000000+84687500000+83125000000+84062500000
1379+88125000000+89375000000+90312500000+90625000000+90937500000+90937500000
1347+90937500000+90625000000+90312500000+89687500000+89062500000+87187500000
1316+88750000000+89062500000+89062500000+85000000000+85000000000+85625000000
1284+86250000000+85937500000+85937500000+85937500000+86250000000+85937500000
1253+85937500000+85937500000+86250000000+86250000000+86250000000+86250000000
1221+86250000000+85625000000+84687500000+83437500000+82187500000+81250000000
1189+80937500000+80937500000+81250000000+82187500000+82812500000+83437500000
1158+84687500000+85312500000+85937500000+86250000000+86250000000+85937500000
1126+85625000000+85312500000+85000000000+85000000000+85000000000+85000000000
1095+85625000000+85937500000+86562500000+86875000000+87187500000+87812500000
1063+88125000000+88437500000+88750000000+89062500000+89062500000+89062500000
1032+89062500000+89062500000+89062500000+89062500000+89062500000+89062500000
1000+89375000000+89375000000+89687500000+89687500000+90000000000+90312500000
968+90312500000+90312500000+90312500000+90312500000+90312500000+90625000000
937+90625000000+90937500000+90937500000+90625000000+89687500000+88750000000
905+86250000000+79062500000+79687500000+86250000000+88437500000+87812500000
874+86562500000+85312500000+84062500000+83125000000+80312500000+74687500000
842+73750000000+73750000000+78125000000+82500000000+84375000000+81562500000
811+69062500000+50937500000+55625000000+77500000000+76562500000+81875000000
779+87500000000+88125000000+87500000000+83750000000+82187500000+83125000000
747+79687500000+74062500000+71875000000+72812500000+79687500000+85312500000
716+87500000000+89375000000+89687500000+90312500000+90625000000+90937500000
684+90937500000+90937500000+90625000000+89687500000+88125000000+85000000000
653+80625000000+78125000000+78125000000+80000000000+82812500000+83750000000
621+67812500000+79375000000+85625000000+85000000000+84687500000+84687500000
589+85625000000+86250000000+86562500000+87187500000+87812500000+88437500000
558+88437500000+88750000000+89062500000+89062500000+89062500000+88750000000
526+88125000000+87812500000+87500000000+87187500000+87187500000+86875000000
495+86250000000+85625000000+85000000000+84375000000+84062500000+83125000000
463+82187500000+80937500000+79687500000+78437500000+77500000000+76562500000
432+75312500000+74687500000+73750000000+73125000000+72500000000+72187500000
400+71875000000
##END=
