##TITLE=N-methyldibenzylamine
##JCAMP-DX=4.24
##DATA TYPE=INFRARED SPECTRUM
##DATE=10/06/2025
##SAMPLING PROCEDURE=ATR
##ORIGIN=SDBS
##XUNITS=1/CM
##YUNITS=TRANSMITTANCE
##RESOLUTION=5.2631578947368425
##FIRSTX=4000.0
##LASTX=400.0
##DELTAX=-5.2631578947368425
##MAXY=95.0
##MINY=0.0
##XFACTOR=1
##YFACTOR=1
##NPOINTS=685
##FIRSTY=0.0
##XYDATA=(X++(Y..Y))
4000+0+92187500000+92187500000+92187500000+92187500000+92187500000
3968+92187500000+92187500000+92187500000+92187500000+91875000000+91562500000
3937+91562500000+91562500000+91562500000+91562500000+91562500000+91562500000
3905+91875000000+92500000000+92812500000+93125000000+92812500000+92812500000
3874+92500000000+92500000000+92812500000+92812500000+92812500000+92812500000
3842+92812500000+92812500000+92500000000+92500000000+92500000000+92500000000
3811+92812500000+92812500000+92812500000+93125000000+93125000000+92500000000
3779+91875000000+91250000000+90937500000+90937500000+90937500000+90937500000
3747+90937500000+91250000000+91562500000+91875000000+92187500000+92500000000
3716+92500000000+92812500000+92812500000+92812500000+93125000000+93437500000
3684+93125000000+92500000000+92500000000+92187500000+92187500000+92187500000
3653+92500000000+92500000000+92500000000+92812500000+92500000000+92187500000
3621+92187500000+92187500000+91875000000+91875000000+91875000000+91875000000
3589+91875000000+91875000000+91875000000+91875000000+91562500000+91562500000
3558+91562500000+91875000000+91875000000+92187500000+92187500000+92500000000
3526+92500000000+92187500000+92187500000+92187500000+92187500000+92187500000
3495+92187500000+92187500000+92187500000+92187500000+92500000000+92187500000
3463+91875000000+91875000000+91562500000+91250000000+91250000000+91250000000
3432+90937500000+90625000000+90625000000+90625000000+90937500000+90937500000
3400+90625000000+89687500000+88437500000+83437500000+80000000000+79375000000
3368+58437500000+54375000000+63437500000+46562499999+42500000000+50625000000
3337+60312500000+42812500000+31250000000+30937500000+52500000000+68750000000
3305+68125000000+65312500000+57187500000+56875000000+59687500000+64062500000
3274+54062500000+46875000000+46875000000+52500000000+52812500000+54687500000
3242+57187500000+59062500000+62187500000+58750000000+53437500000+53437500000
3211+60625000000+63125000000+48750000000+32812500000+32812500000+40625000000
3179+50312500000+42500000000+33437500000+22187500000+17812500000+18125000000
3147+25937500000+36562500000+41250000000+50625000000+62187500000+69687500000
3116+74687500000+71250000000+67500000000+67187500000+73125000000+79375000000
3084+82812500000+86250000000+88437500000+89062500000+89375000000+89687500000
3053+90312500000+90625000000+90937500000+90625000000+90625000000+90937500000
3021+91562500000+91875000000+92500000000+92812500000+93125000000+93437500000
2989+93437500000+93750000000+93750000000+94062500000+94062500000+93750000000
2958+93437500000+93437500000+93437500000+93750000000+93750000000+94062500000
2926+94062500000+94062500000+94375000000+94375000000+94062500000+93750000000
2895+93750000000+93750000000+93750000000+94062500000+94375000000+94375000000
2863+94375000000+94375000000+94375000000+94062500000+94062500000+94062500000
2832+94062500000+94062500000+94062500000+94062500000+94375000000+94375000000
2800+94375000000+94062500000+93750000000+93750000000+93750000000+93750000000
2768+94062500000+94375000000+94375000000+94375000000+94375000000+94375000000
2737+94375000000+94375000000+94375000000+94375000000+94375000000+94687500000
2705+94687500000+94687500000+94687500000+94687500000+95000000000+94687500000
2674+94687500000+94687500000+94687500000+94687500000+94687500000+94375000000
2642+94375000000+94375000000+94375000000+94062500000+93437500000+92812500000
2611+92187500000+92187500000+91875000000+91875000000+91875000000+91875000000
2579+90937500000+89687500000+88125000000+87187500000+85937500000+84687500000
2547+83125000000+82500000000+82500000000+83750000000+86562500000+89687500000
2516+90937500000+91875000000+92812500000+93125000000+93437500000+92812500000
2484+92187500000+91562500000+90312500000+88437500000+87500000000+86875000000
2453+85937500000+85312500000+85000000000+85000000000+85312500000+86875000000
2421+89062500000+90937500000+91875000000+92500000000+92812500000+92500000000
2389+91875000000+90625000000+89687500000+89062500000+87812500000+86250000000
2358+84687500000+84062500000+83750000000+83750000000+85625000000+87812500000
2326+90312500000+91562500000+92187500000+92187500000+92187500000+91875000000
2295+91562500000+91250000000+90312500000+89687500000+89375000000+89375000000
2263+89687500000+90937500000+92187500000+93125000000+93750000000+93750000000
2232+93437500000+92812500000+91875000000+90937500000+88750000000+85312500000
2200+85000000000+85937500000+87812500000+85937500000+82187500000+79062500000
2168+78437500000+78437500000+80000000000+81562500000+83125000000+84375000000
2137+85625000000+86250000000+85000000000+83750000000+83750000000+85937500000
2105+88125000000+89062500000+89687500000+89687500000+89375000000+87812500000
2074+84375000000+72500000000+66250000000+64062500000+66562500000+75625000000
2042+79687500000+73125000000+75000000000+82500000000+85937500000+88437500000
2011+90000000000+90937500000+91562500000+90625000000+89375000000+87812500000
1979+87500000000+87500000000+88125000000+88437500000+88750000000+89062500000
1947+89375000000+89062500000+88125000000+85312500000+80312500000+65937500000
1916+30000000000+18125000000+29375000000+55312500000+69062500000+75937500000
1884+74687500000+68437500000+57500000000+47187500000+34375000000+20937500000
1853+15312500000+17812500000+30312500000+39375000000+49687499999+63750000000
1821+72812500000+77812500000+75937500000+65625000000+66250000000+81250000000
1789+85000000000+86250000000+84687500000+83125000000+80625000000+77500000000
1758+73437500000+69687500000+62500000000+43125000000+30937500000+30312500000
1726+33750000000+47812500000+61562500000+57500000000+55937500000+57187500000
1695+64687500000+69687500000+66875000000+65937500000+65000000000+63750000000
1663+62500000000+62500000000+63125000000+68750000000+73437500000+71562500000
1632+70000000000+70000000000+72187500000+72187500000+69687500000+65625000000
1600+61250000000+60937500000+62500000000+68437500000+72500000000+69375000000
1568+64687500000+61562500000+61562500000+65625000000+73750000000+80312500000
1537+83437500000+82500000000+76875000000+68437500000+67187500000+69687500000
1505+70625000000+71875000000+66875000000+66562500000+70937500000+75937500000
1474+74687500000+74375000000+74687500000+77500000000+80625000000+75000000000
1442+68125000000+68125000000+68125000000+68125000000+67500000000+53125000000
1411+49062500000+50312500000+56562500000+56562500000+60937500000+74062500000
1379+78750000000+80625000000+84687500000+87187500000+88437500000+88750000000
1347+86250000000+79687500000+60312500000+44062500000+44999999999+63125000000
1316+76875000000+81875000000+84687500000+84062500000+81250000000+75000000000
1284+62187500000+45312500000+39687500000+30000000000+15625000000+15312500000
1253+21562500000+34375000000+50000000000+61875000000+69375000000+69375000000
1221+75312500000+68437500000+61875000000+57187500000+53437500000+52187500000
1189+53125000000+57812500000+62812500000+69375000000+76875000000+81875000000
1158+84375000000+85937500000+86562500000+87187500000+87500000000+87187500000
1126+85625000000+81250000000+72187500000+60625000000+56562500000+56250000000
1095+58750000000+64687500000+75000000000+82187500000+84687500000+85312500000
1063+84375000000+79062500000+68437500000+57500000000+52812500000+51875000000
1032+53750000000+61250000000+70312500000+71875000000+71562500000+73125000000
1000+78125000000+76562500000+72500000000+72500000000+72812500000+75000000000
968+78437500000+79375000000+80312500000+81562500000+83437500000+85000000000
937+85625000000+86562500000+86562500000+86250000000+85312500000+83750000000
905+80625000000+74375000000+64687500000+44062500000+21562500000+13125000000
874+11250000000+10312500000+9062500000+9062500000+10625000000+22187500000
842+44999999999+58437500000+62187500000+56562500000+35625000000+14687500000
811+5625000000+4687500000+8750000000+37500000000+60000000000+73125000000
779+79375000000+78750000000+77812500000+79375000000+83125000000+87187500000
747+87812500000+88125000000+88125000000+87187500000+80000000000+80000000000
716+85937500000+81875000000+74375000000+74062500000+75000000000+76250000000
684+76250000000+82187500000+84062500000+86562500000+87812500000+87812500000
653+88125000000+88750000000+89375000000+90000000000+90312500000+91250000000
621+91875000000+92500000000+93125000000+93437500000+93750000000+94062500000
589+94062500000+93750000000+93437500000+92812500000+91562500000+90000000000
558+86875000000+81562500000+71250000000+69375000000+69062500000+69687500000
526+70625000000+69687500000+68750000000+68437500000+68437500000+69375000000
495+70937500000+73125000000+75000000000+77187500000+78750000000+80312500000
463+81250000000+80937500000+80312500000+78750000000+77500000000+75937500000
432+73750000000+71875000000+70937500000+70000000000+69375000000+69375000000
400+69375000000
##END=
