##TITLE=nonane
##JCAMP-DX=4.24
##DATA TYPE=INFRARED SPECTRUM
##DATE=10/06/2025
##SAMPLING PROCEDURE=ATR
##ORIGIN=SDBS
##XUNITS=1/CM
##YUNITS=TRANSMITTANCE
##RESOLUTION=5.2631578947368425
##FIRSTX=4000.0
##LASTX=400.0
##DELTAX=-5.2631578947368425
##MAXY=95.0
##MINY=0.0
##XFACTOR=1
##YFACTOR=1
##NPOINTS=685
##FIRSTY=0.0
##XYDATA=(X++(Y..Y))
4000+0+91250000000+91562500000+91562500000+91875000000+91875000000
3968+91875000000+91875000000+92187500000+92187500000+92187500000+92187500000
3937+92187500000+92187500000+91875000000+91875000000+91875000000+91875000000
3905+91562500000+91562500000+91875000000+91875000000+91875000000+91875000000
3874+92187500000+91875000000+91875000000+91875000000+91875000000+92187500000
3842+91875000000+91875000000+91875000000+91875000000+91875000000+91875000000
3811+91875000000+92187500000+92187500000+92187500000+92187500000+91875000000
3779+91875000000+91875000000+91875000000+91875000000+91875000000+91875000000
3747+91875000000+91875000000+91875000000+91875000000+91875000000+91875000000
3716+92187500000+92187500000+92187500000+92500000000+92500000000+92500000000
3684+92500000000+92500000000+92500000000+92500000000+92500000000+92500000000
3653+92500000000+92500000000+92500000000+92187500000+92187500000+92187500000
3621+91875000000+91875000000+91875000000+91875000000+91875000000+91875000000
3589+91875000000+91562500000+91562500000+91562500000+91562500000+91562500000
3558+91562500000+91562500000+91562500000+91562500000+91562500000+91875000000
3526+91562500000+91562500000+91562500000+91562500000+91562500000+91562500000
3495+91562500000+91250000000+91250000000+91250000000+90937500000+90937500000
3463+90937500000+90937500000+90625000000+90625000000+90625000000+90625000000
3432+90625000000+90625000000+90625000000+90625000000+90937500000+90937500000
3400+90937500000+90937500000+91250000000+91250000000+91250000000+91250000000
3368+90937500000+90937500000+90625000000+90312500000+89375000000+88750000000
3337+87812500000+87187500000+85937500000+84375000000+81875000000+80000000000
3305+76562500000+70625000000+60000000000+44375000000+18750000000+10625000000
3274+10625000000+17812500000+10937500000+5625000000+4687500000+5625000000
3242+13125000000+21562500000+28750000000+35937500000+26250000000+24062500000
3211+16562500000+14375000000+16250000000+37812500000+61250000000+70000000000
3179+76875000000+80312500000+83125000000+85000000000+86250000000+87812500000
3147+89062500000+89687500000+90312500000+90312500000+89375000000+88437500000
3116+88437500000+90312500000+90937500000+91250000000+91250000000+90625000000
3084+90312500000+90000000000+90000000000+90312500000+90937500000+91250000000
3053+91562500000+91875000000+91875000000+91875000000+92187500000+92187500000
3021+92500000000+92812500000+93125000000+93437500000+93437500000+93750000000
2989+93750000000+94062500000+94062500000+94062500000+94062500000+94062500000
2958+94062500000+94375000000+94375000000+94687500000+94687500000+94375000000
2926+94375000000+94375000000+94375000000+94375000000+94375000000+94375000000
2895+94375000000+94375000000+94375000000+94375000000+94375000000+94375000000
2863+94062500000+94062500000+94062500000+94062500000+94062500000+94062500000
2832+94062500000+94062500000+94062500000+94375000000+94375000000+94375000000
2800+94375000000+94375000000+94375000000+94375000000+94375000000+94375000000
2768+94375000000+94375000000+94375000000+94375000000+94375000000+94375000000
2737+94687500000+94687500000+94375000000+94375000000+94687500000+94687500000
2705+94687500000+94687500000+94687500000+94687500000+94687500000+94687500000
2674+94687500000+94687500000+94687500000+94687500000+94687500000+94375000000
2642+94375000000+94375000000+94375000000+94375000000+94375000000+94687500000
2611+94687500000+94687500000+94687500000+94687500000+94687500000+94687500000
2579+94687500000+94687500000+94687500000+94687500000+94687500000+94687500000
2547+94687500000+94687500000+94687500000+94687500000+94687500000+94687500000
2516+94687500000+94687500000+94687500000+94687500000+94687500000+94687500000
2484+94687500000+94687500000+94687500000+94687500000+94687500000+94687500000
2453+94687500000+94687500000+94687500000+94687500000+94687500000+94687500000
2421+94687500000+94687500000+94687500000+94687500000+94687500000+94687500000
2389+95000000000+95000000000+95000000000+95000000000+95000000000+94687500000
2358+94687500000+94687500000+94687500000+94687500000+94687500000+94687500000
2326+94687500000+94687500000+94687500000+94687500000+94687500000+94687500000
2295+94687500000+94687500000+94687500000+94687500000+94687500000+94687500000
2263+94687500000+94687500000+94687500000+94687500000+94375000000+94375000000
2232+94375000000+94375000000+94375000000+94375000000+94375000000+94062500000
2200+94062500000+94062500000+94062500000+94062500000+94062500000+94062500000
2168+94062500000+94062500000+94062500000+94062500000+94062500000+94062500000
2137+94062500000+94062500000+94062500000+94062500000+94062500000+94062500000
2105+94062500000+94062500000+94062500000+94062500000+94062500000+94062500000
2074+94375000000+94375000000+94375000000+94375000000+94375000000+94062500000
2042+94062500000+94062500000+94062500000+93750000000+93750000000+93750000000
2011+93437500000+93437500000+93437500000+93125000000+93125000000+93125000000
1979+93125000000+92812500000+92812500000+92500000000+92187500000+91875000000
1947+91875000000+91562500000+91562500000+91250000000+90937500000+89687500000
1916+89062500000+88750000000+88125000000+86250000000+84062500000+78750000000
1884+67500000000+50000000000+42187500000+43437499999+47187500000+48124999999
1853+52187500000+61875000000+68437500000+73125000000+76875000000+80312500000
1821+84375000000+86250000000+87187500000+88437500000+89062500000+89375000000
1789+89687500000+89687500000+89375000000+88750000000+87187500000+84375000000
1758+77500000000+64062500000+63125000000+75937500000+82812500000+84687500000
1726+86875000000+88437500000+88750000000+89062500000+88437500000+86875000000
1695+86875000000+89687500000+90625000000+91250000000+91875000000+91562500000
1663+90937500000+90312500000+89687500000+89375000000+89375000000+89687500000
1632+90000000000+90312500000+90625000000+90937500000+91250000000+91562500000
1600+91875000000+91875000000+91875000000+91875000000+92187500000+92187500000
1568+92500000000+92500000000+92812500000+93125000000+93437500000+93437500000
1537+93437500000+93437500000+93437500000+93437500000+93437500000+93437500000
1505+93437500000+93437500000+93437500000+93437500000+93437500000+93437500000
1474+93437500000+93437500000+93437500000+93437500000+93125000000+93125000000
1442+91562500000+92812500000+92500000000+91875000000+91562500000+91250000000
1411+91250000000+91562500000+92500000000+92812500000+93125000000+93437500000
1379+93437500000+93437500000+93125000000+92500000000+91875000000+90937500000
1347+90625000000+90625000000+90625000000+90937500000+90937500000+91250000000
1316+91562500000+91562500000+91875000000+92187500000+92187500000+92187500000
1284+92187500000+92500000000+92500000000+92500000000+92500000000+92812500000
1253+92812500000+92812500000+93125000000+93125000000+93437500000+93437500000
1221+93437500000+93437500000+93437500000+93125000000+93125000000+93125000000
1189+93125000000+93125000000+93125000000+93437500000+93437500000+93437500000
1158+93750000000+93750000000+93750000000+93750000000+93437500000+93437500000
1126+93437500000+93750000000+93750000000+93750000000+93750000000+93437500000
1095+93125000000+92187500000+91250000000+90312500000+90312500000+90937500000
1063+91562500000+91875000000+92187500000+92500000000+93125000000+93125000000
1032+93125000000+93125000000+93125000000+93125000000+93125000000+93125000000
1000+93125000000+93125000000+93125000000+93437500000+93437500000+93437500000
968+93750000000+93750000000+93750000000+93750000000+93437500000+93437500000
937+93125000000+92812500000+92812500000+92500000000+92500000000+92187500000
905+91875000000+91562500000+91250000000+90937500000+90625000000+90312500000
874+89687500000+88750000000+87187500000+85937500000+84062500000+81562500000
842+75625000000+75625000000+81250000000+86250000000+90000000000+91875000000
811+92500000000+93437500000+93750000000+94062500000+94375000000+94375000000
779+94375000000+94375000000+94375000000+94375000000+94375000000+94687500000
747+94687500000+94687500000+94375000000+94375000000+94375000000+94375000000
716+94687500000+94687500000+94687500000+94687500000+94687500000+94687500000
684+94687500000+94687500000+94375000000+94375000000+94062500000+94062500000
653+94062500000+94062500000+94062500000+94062500000+94062500000+94062500000
621+94062500000+94375000000+94687500000+94687500000+94687500000+95000000000
589+94687500000+94687500000+94687500000+94375000000+94062500000+94062500000
558+93750000000+93750000000+93437500000+93437500000+93125000000+92812500000
526+92187500000+92187500000+91875000000+91875000000+91875000000+91562500000
495+91562500000+91562500000+91875000000+92187500000+92500000000+92812500000
463+93125000000+92812500000+92187500000+91250000000+90000000000+88125000000
432+86250000000+84062500000+82187500000+80000000000+78437500000+77187500000
400+76562500000
##END=
