##TITLE=o-bromophenol
##JCAMP-DX=4.24
##DATA TYPE=INFRARED SPECTRUM
##DATE=10/06/2025
##SAMPLING PROCEDURE=ATR
##ORIGIN=SDBS
##XUNITS=1/CM
##YUNITS=TRANSMITTANCE
##RESOLUTION=5.2631578947368425
##FIRSTX=4000.0
##LASTX=400.0
##DELTAX=-5.2631578947368425
##MAXY=94.6875
##MINY=0.0
##XFACTOR=1
##YFACTOR=1
##NPOINTS=685
##FIRSTY=0.0
##XYDATA=(X++(Y..Y))
4000+0+89687500000+89687500000+89687500000+89687500000+89687500000
3968+89687500000+89375000000+89062500000+88750000000+88125000000+87187500000
3937+86875000000+86875000000+86875000000+87187500000+87500000000+88125000000
3905+88437500000+88437500000+88437500000+88437500000+88750000000+89062500000
3874+89062500000+89375000000+89687500000+89687500000+90000000000+90000000000
3842+89687500000+89375000000+89062500000+88437500000+88125000000+87812500000
3811+87812500000+87812500000+87812500000+87812500000+87500000000+86875000000
3779+85937500000+84687500000+83437500000+81875000000+80625000000+79375000000
3747+79062500000+78437500000+78125000000+77812500000+77187500000+75625000000
3716+73437500000+70937500000+67812500000+63750000000+59062500000+54375000000
3684+47500000000+38749999999+30312500000+24062500000+20312500000+19375000000
3653+19375000000+20000000000+20625000000+21875000000+23125000000+24062500000
3621+25000000000+25937500000+26875000000+28125000000+29062500000+30625000000
3589+31875000000+33437500000+34687500000+36562500000+38125000000+40000000000
3558+41250000000+43125000000+44999999999+46562499999+48124999999+49687499999
3526+51250000000+53125000000+54375000000+55937500000+57500000000+59062500000
3495+60000000000+61562500000+63125000000+64375000000+65312500000+66562500000
3463+67500000000+68437500000+69375000000+70312500000+70937500000+71562500000
3432+71875000000+72187500000+72500000000+73125000000+73750000000+74687500000
3400+75000000000+75625000000+75625000000+75000000000+74062500000+72500000000
3368+70312500000+65937500000+60625000000+60937500000+62812500000+66875000000
3337+71875000000+70312500000+69375000000+72812500000+73437500000+75625000000
3305+79375000000+81250000000+82187500000+82812500000+83125000000+83437500000
3274+83125000000+82812500000+82812500000+82812500000+83437500000+83750000000
3242+84375000000+84687500000+85000000000+85000000000+85000000000+84687500000
3211+84687500000+84375000000+84062500000+83750000000+83750000000+84062500000
3179+84062500000+84375000000+84375000000+84687500000+84687500000+84687500000
3147+84375000000+84375000000+84375000000+84375000000+84687500000+84375000000
3116+84375000000+84062500000+84062500000+84062500000+84062500000+84062500000
3084+83750000000+83750000000+83750000000+83750000000+84375000000+84687500000
3053+84375000000+83437500000+83437500000+83437500000+84062500000+84687500000
3021+85000000000+85000000000+84687500000+83750000000+83437500000+82500000000
2989+81875000000+81562500000+81875000000+82500000000+83437500000+84062500000
2958+83437500000+82812500000+82812500000+82812500000+83437500000+84375000000
2926+85000000000+85312500000+85000000000+85000000000+84687500000+84687500000
2895+84687500000+85000000000+85625000000+86250000000+86562500000+86562500000
2863+86562500000+86250000000+86250000000+85937500000+85937500000+85625000000
2832+85000000000+84687500000+84687500000+85625000000+87187500000+87187500000
2800+87187500000+88125000000+88437500000+89062500000+89062500000+89062500000
2768+89375000000+89375000000+89375000000+89687500000+89687500000+89687500000
2737+89687500000+89687500000+89687500000+89687500000+89687500000+89375000000
2705+88750000000+87812500000+87187500000+87500000000+88125000000+88750000000
2674+88437500000+88125000000+87812500000+87812500000+88125000000+89062500000
2642+89687500000+89687500000+89375000000+89375000000+89375000000+89375000000
2611+89687500000+89687500000+89687500000+89687500000+90000000000+90000000000
2579+90000000000+90000000000+90000000000+89687500000+89062500000+88437500000
2547+87187500000+85625000000+84062500000+83125000000+83125000000+83437500000
2516+84375000000+85625000000+87187500000+87187500000+86250000000+84375000000
2484+82187500000+81250000000+81250000000+81562500000+83437500000+85937500000
2453+87500000000+88750000000+88750000000+88125000000+87500000000+87500000000
2421+87500000000+87500000000+88125000000+88437500000+89062500000+89375000000
2389+89687500000+89375000000+89062500000+88750000000+88125000000+87500000000
2358+87187500000+87187500000+87187500000+87500000000+87812500000+87812500000
2326+87187500000+85625000000+84375000000+82812500000+82187500000+82187500000
2295+82500000000+84062500000+86250000000+88437500000+89687500000+90312500000
2263+90625000000+90937500000+90937500000+90937500000+90937500000+90937500000
2232+90937500000+90625000000+90625000000+90000000000+89687500000+89062500000
2200+88125000000+86875000000+86562500000+86250000000+85937500000+85937500000
2168+85937500000+86250000000+86875000000+87500000000+88125000000+88437500000
2137+88750000000+88437500000+88437500000+88125000000+87187500000+86250000000
2105+85625000000+84062500000+82812500000+80937500000+79375000000+76562500000
2074+71250000000+57500000000+40625000000+27187500000+23750000000+25625000000
2042+33437500000+30625000000+30625000000+30312500000+31875000000+37187499999
2011+53750000000+69687500000+78750000000+81875000000+83750000000+84687500000
1979+85625000000+86250000000+87500000000+88125000000+87500000000+86250000000
1947+83437500000+77500000000+69687500000+60312500000+54687500000+51250000000
1916+44999999999+33437500000+33125000000+34375000000+20937500000+7500000000
1884+4375000000+5625000000+15000000000+35937500000+42812500000+35312500000
1853+31562500000+14687500000+14687500000+43750000000+64375000000+77500000000
1821+81875000000+84375000000+84687500000+83750000000+81562500000+79375000000
1789+77187500000+77187500000+77500000000+77500000000+74062500000+69687500000
1758+67500000000+67187500000+67187500000+65937500000+63437500000+60312500000
1726+56250000000+51562500000+46875000000+42812500000+36875000000+30000000000
1695+25312500000+25000000000+25000000000+31250000000+40937500000+49062500000
1663+56250000000+65625000000+69687500000+61562500000+45625000000+26250000000
1632+19062500000+19062500000+23437500000+34375000000+47500000000+58437500000
1600+62812500000+60625000000+58437500000+52812500000+34062500000+20937500000
1568+20000000000+21562500000+29687500000+39687500000+47187500000+51562500000
1537+47187500000+39687500000+33125000000+27812500000+21875000000+17187500000
1505+14062500000+13125000000+13125000000+14375000000+16250000000+17187500000
1474+16875000000+16875000000+19062500000+23437500000+29062500000+36250000000
1442+32187500000+32187500000+43750000000+55312500000+60937500000+64062500000
1411+68125000000+70312500000+67812500000+53125000000+41562500000+41562500000
1379+50937500000+63437500000+72187500000+77187500000+80625000000+82500000000
1347+84687500000+86250000000+87500000000+88125000000+88750000000+89375000000
1316+89375000000+88125000000+85000000000+80937500000+60000000000+39687500000
1284+31562500000+36875000000+62812500000+30000000000+19062500000+13125000000
1253+18750000000+55937500000+71875000000+76562500000+86250000000+88437500000
1221+89687500000+90625000000+91250000000+91250000000+90312500000+88437500000
1189+87500000000+87500000000+88125000000+88750000000+89062500000+89375000000
1158+89375000000+88437500000+85312500000+75937500000+67812500000+67500000000
1126+72187500000+83437500000+90625000000+92812500000+93750000000+94062500000
1095+94687500000+94687500000+94687500000+94375000000+94062500000+93125000000
1063+91562500000+89687500000+89062500000+89062500000+89687500000+89062500000
1032+86250000000+81562500000+76562500000+73437500000+73125000000+75937500000
1000+70000000000+45625000000+29062500000+29375000000+45625000000+66250000000
968+78750000000+82812500000+84687500000+86250000000+86875000000+87187500000
937+87187500000+86562500000+84687500000+82500000000+78437500000+71875000000
905+59687500000+42812500000+26562500000+15625000000+10625000000+9062500000
874+8750000000+10937500000+25625000000+49687499999+64062500000+73437500000
842+78125000000+80312500000+81250000000+78750000000+73125000000+69375000000
811+69375000000+77812500000+81875000000+82187500000+83750000000+84687500000
779+85000000000+84062500000+82187500000+78750000000+66875000000+26875000000
747+17812500000+27500000000+69687500000+83750000000+86875000000+87187500000
716+86875000000+86250000000+85312500000+84687500000+84062500000+83437500000
684+82500000000+81875000000+81562500000+80937500000+80625000000+80000000000
653+79375000000+79062500000+78437500000+78125000000+77187500000+76562500000
621+74687500000+70312500000+60625000000+55625000000+56250000000+68125000000
589+69375000000+70000000000+71562500000+72187500000+72500000000+72500000000
558+72812500000+72500000000+72187500000+71875000000+71250000000+70000000000
526+68125000000+64375000000+61250000000+58750000000+57187500000+57812500000
495+58125000000+59375000000+60625000000+61875000000+62187500000+60937500000
463+59687500000+57812500000+55937500000+54062500000+52812500000+51250000000
432+50000000000+49062500000+48124999999+47500000000+46875000000+46562499999
400+46250000000
##END=
