##TITLE=o-fluorobenzoic acid
##JCAMP-DX=4.24
##DATA TYPE=INFRARED SPECTRUM
##DATE=10/06/2025
##SAMPLING PROCEDURE=ATR
##ORIGIN=SDBS
##XUNITS=1/CM
##YUNITS=TRANSMITTANCE
##RESOLUTION=5.2631578947368425
##FIRSTX=4000.0
##LASTX=400.0
##DELTAX=-5.2631578947368425
##MAXY=94.6875
##MINY=0.0
##XFACTOR=1
##YFACTOR=1
##NPOINTS=685
##FIRSTY=0.0
##XYDATA=(X++(Y..Y))
4000+0+78750000000+79062500000+79062500000+79375000000+79687500000
3968+79687500000+80000000000+80000000000+80312500000+80312500000+80312500000
3937+80625000000+80625000000+80625000000+80937500000+81250000000+81250000000
3905+81250000000+81562500000+81562500000+81875000000+81875000000+82187500000
3874+82500000000+82500000000+82812500000+83125000000+83125000000+83437500000
3842+83437500000+83750000000+83750000000+84062500000+84375000000+84375000000
3811+84687500000+84687500000+85000000000+85000000000+85312500000+85312500000
3779+85625000000+85937500000+85937500000+86250000000+86250000000+86250000000
3747+86562500000+86562500000+86875000000+86875000000+87187500000+87500000000
3716+87500000000+88125000000+88125000000+88437500000+88437500000+88750000000
3684+88750000000+89062500000+89062500000+89062500000+89062500000+89062500000
3653+89062500000+89062500000+89062500000+89062500000+89062500000+89062500000
3621+89062500000+89062500000+89062500000+89062500000+89062500000+89062500000
3589+89062500000+89062500000+88750000000+88750000000+88437500000+88437500000
3558+88125000000+87812500000+87500000000+87500000000+87187500000+86875000000
3526+86562500000+86250000000+85937500000+85312500000+85000000000+84687500000
3495+84062500000+83437500000+82500000000+81875000000+80937500000+79687500000
3463+78437500000+77500000000+76562500000+75625000000+74062500000+73125000000
3432+72187500000+70937500000+70000000000+69062500000+68125000000+67187500000
3400+65937500000+65000000000+62812500000+61875000000+59062500000+58750000000
3368+57500000000+56250000000+55000000000+55000000000+54375000000+54062500000
3337+53437500000+52500000000+50937500000+48750000000+46875000000+44375000000
3305+40937500000+36250000000+29062500000+21250000000+13125000000+9062500000
3274+8125000000+8125000000+6875000000+5000000000+4687500000+5000000000
3242+6562500000+8750000000+10312500000+12812500000+13750000000+11875000000
3211+10937500000+9687500000+10000000000+14687500000+25000000000+34375000000
3179+40937500000+45312500000+49375000000+52500000000+55937500000+58437500000
3147+60312500000+61562500000+62500000000+63125000000+62812500000+62187500000
3116+61562500000+60312500000+59687500000+59687500000+59687500000+59687500000
3084+58437500000+56250000000+56250000000+56562500000+58437500000+59375000000
3053+60937500000+61875000000+63125000000+63750000000+62500000000+61875000000
3021+61875000000+62500000000+63750000000+65625000000+64375000000+63750000000
2989+63750000000+64375000000+65937500000+67500000000+69687500000+70625000000
2958+71562500000+72812500000+74375000000+75625000000+76562500000+77187500000
2926+77812500000+78437500000+79062500000+79687500000+80000000000+80625000000
2895+80937500000+81250000000+81875000000+82187500000+82812500000+83437500000
2863+83750000000+84375000000+84687500000+85000000000+85625000000+85937500000
2832+86562500000+86875000000+87187500000+87500000000+87812500000+88125000000
2800+88437500000+89062500000+89375000000+90000000000+90312500000+90312500000
2768+90312500000+90312500000+90625000000+90937500000+91250000000+91562500000
2737+91562500000+91875000000+92187500000+92500000000+92812500000+93125000000
2705+93437500000+94062500000+94062500000+94375000000+94375000000+94062500000
2674+93437500000+93125000000+92812500000+92812500000+92812500000+92812500000
2642+93125000000+93437500000+94062500000+94375000000+94687500000+94687500000
2611+94687500000+94687500000+94687500000+94375000000+94062500000+93125000000
2579+92500000000+92500000000+93437500000+94375000000+94687500000+94375000000
2547+93437500000+92500000000+90937500000+90625000000+92187500000+93125000000
2516+93750000000+94062500000+93750000000+93750000000+93750000000+93750000000
2484+93750000000+93750000000+93750000000+93750000000+93750000000+93750000000
2453+93750000000+93437500000+93437500000+93437500000+93437500000+93437500000
2421+93437500000+93437500000+93437500000+93437500000+93125000000+93125000000
2389+92500000000+91562500000+91250000000+91250000000+91250000000+91562500000
2358+91562500000+91875000000+91875000000+92187500000+91875000000+91875000000
2326+91875000000+91562500000+91562500000+91250000000+90937500000+90625000000
2295+90312500000+89375000000+88125000000+86250000000+84687500000+82500000000
2263+79687500000+76875000000+74687500000+71875000000+67812500000+61875000000
2232+54687500000+46250000000+37187499999+29375000000+24062500000+19375000000
2200+15937500000+14062500000+13437500000+13750000000+15937500000+21250000000
2168+27812500000+34062500000+40937500000+46250000000+51250000000+55625000000
2137+59687500000+63750000000+66875000000+68750000000+70625000000+72500000000
2105+73750000000+75000000000+76562500000+74062500000+46250000000+24375000000
2074+30625000000+56250000000+67187500000+72500000000+77187500000+78125000000
2042+76875000000+75000000000+73750000000+73750000000+76250000000+80000000000
2011+82500000000+83437500000+84375000000+85312500000+86250000000+87187500000
1979+87500000000+87500000000+87187500000+86875000000+86562500000+85937500000
1947+85000000000+82500000000+79687500000+78437500000+78437500000+75937500000
1916+65625000000+49062500000+46562499999+48124999999+59062500000+58125000000
1884+45625000000+27500000000+13437500000+13437500000+20312500000+22500000000
1853+24062500000+31562500000+36875000000+42500000000+48437500000+54062500000
1821+51250000000+47187500000+43750000000+43750000000+46562499999+53125000000
1789+60000000000+65312500000+69062500000+70625000000+66875000000+57187500000
1758+49062500000+40625000000+38437500000+40625000000+51875000000+54062500000
1726+58437500000+65625000000+68125000000+68750000000+68125000000+65937500000
1695+63437500000+58437500000+47812500000+40312499999+38437500000+33750000000
1663+28750000000+27500000000+27812500000+30937500000+35937500000+40000000000
1632+44375000000+39687500000+39687500000+45937500000+51875000000+51562500000
1600+49687499999+59687500000+64375000000+62187500000+66250000000+70937500000
1568+73125000000+69687500000+57500000000+42812500000+43437499999+51250000000
1537+57812500000+63750000000+69375000000+73125000000+74375000000+75000000000
1505+76562500000+78125000000+78750000000+79375000000+79687500000+80312500000
1474+80312500000+76562500000+67812500000+66562500000+66250000000+69375000000
1442+75937500000+78750000000+80000000000+79062500000+77187500000+60625000000
1411+62812500000+77187500000+79062500000+80312500000+81875000000+82500000000
1379+82812500000+82812500000+78750000000+74375000000+64062500000+48750000000
1347+51875000000+69062500000+75937500000+79062500000+80625000000+81562500000
1316+81875000000+82187500000+82187500000+81875000000+81562500000+81250000000
1284+80000000000+78125000000+77812500000+78125000000+79375000000+80625000000
1253+81562500000+81875000000+82187500000+82812500000+83125000000+83125000000
1221+82812500000+82187500000+81562500000+80937500000+80000000000+79375000000
1189+78750000000+77812500000+76875000000+76250000000+75312500000+72187500000
1158+71562500000+70937500000+69375000000+67187500000+64687500000+61875000000
1126+59375000000+56562500000+54687500000+54687500000+56250000000+59062500000
1095+62500000000+65937500000+68437500000+70937500000+73125000000+75312500000
1063+77500000000+79062500000+79375000000+78750000000+78750000000+80312500000
1032+82187500000+80937500000+77187500000+40625000000+38437500000+63437500000
1000+75625000000+79062500000+81562500000+82812500000+83750000000+84375000000
968+85312500000+85937500000+86562500000+86562500000+84375000000+78750000000
937+79062500000+81562500000+72500000000+66250000000+66250000000+73750000000
905+78125000000+74375000000+58125000000+31250000000+15312500000+15625000000
874+49687499999+66875000000+72187500000+74062500000+75312500000+73750000000
842+73125000000+73750000000+78125000000+82812500000+86250000000+88750000000
811+90000000000+89687500000+85000000000+66875000000+66562500000+83437500000
779+88437500000+90000000000+90625000000+90312500000+88750000000+86562500000
747+53125000000+50937500000+63750000000+82187500000+87187500000+89375000000
716+90000000000+90312500000+90625000000+90937500000+90937500000+90937500000
684+90312500000+90000000000+89687500000+89375000000+88750000000+86875000000
653+83125000000+78437500000+69062500000+59687500000+59062500000+66875000000
621+77187500000+84062500000+86875000000+81250000000+74375000000+75937500000
589+86562500000+89062500000+90000000000+88750000000+86250000000+84062500000
558+81875000000+81875000000+84375000000+88437500000+87500000000+88750000000
526+90000000000+90937500000+91562500000+91875000000+92187500000+92812500000
495+93125000000+94062500000+94375000000+94687500000+93750000000+92187500000
463+90625000000+88750000000+87500000000+87500000000+87500000000+87812500000
432+88125000000+86562500000+84687500000+81875000000+78750000000+76875000000
400+75937500000
##END=
