##TITLE=o-terphenyl
##JCAMP-DX=4.24
##DATA TYPE=INFRARED SPECTRUM
##DATE=10/06/2025
##SAMPLING PROCEDURE=ATR
##ORIGIN=SDBS
##XUNITS=1/CM
##YUNITS=TRANSMITTANCE
##RESOLUTION=5.2631578947368425
##FIRSTX=4000.0
##LASTX=400.0
##DELTAX=-5.2631578947368425
##MAXY=94.6875
##MINY=0.0
##XFACTOR=1
##YFACTOR=1
##NPOINTS=685
##FIRSTY=0.0
##XYDATA=(X++(Y..Y))
4000+0+83125000000+83125000000+83125000000+83125000000+82812500000
3968+82812500000+83125000000+83125000000+83437500000+83125000000+83125000000
3937+82812500000+82812500000+82500000000+82500000000+82500000000+82500000000
3905+82500000000+82500000000+82500000000+82500000000+82500000000+82500000000
3874+82500000000+82500000000+82500000000+82500000000+82812500000+82500000000
3842+82500000000+82187500000+82187500000+81875000000+81875000000+81875000000
3811+81875000000+82187500000+82187500000+82187500000+82187500000+82187500000
3779+82187500000+82187500000+82187500000+82187500000+82187500000+81875000000
3747+81875000000+81875000000+81875000000+81875000000+81875000000+81875000000
3716+82187500000+82187500000+82187500000+82500000000+82500000000+82500000000
3684+82500000000+82500000000+82500000000+82500000000+82187500000+82187500000
3653+81875000000+81562500000+81250000000+81250000000+80937500000+80937500000
3621+80937500000+80625000000+80625000000+80000000000+79687500000+79375000000
3589+79375000000+79062500000+79062500000+78750000000+78750000000+78750000000
3558+78750000000+78437500000+78125000000+78125000000+78125000000+77812500000
3526+77500000000+77500000000+77187500000+76875000000+76875000000+76562500000
3495+76562500000+76250000000+75937500000+75937500000+75937500000+75625000000
3463+75625000000+75625000000+75625000000+75625000000+75937500000+75937500000
3432+75937500000+75937500000+76250000000+76562500000+76562500000+76875000000
3400+76875000000+77187500000+77500000000+77500000000+77500000000+77500000000
3368+75937500000+70312500000+70000000000+66875000000+64062500000+63750000000
3337+64375000000+65312500000+61875000000+57500000000+57812500000+60000000000
3305+57187500000+51875000000+42500000000+31875000000+18125000000+12500000000
3274+11875000000+12812500000+8125000000+5000000000+4687500000+5312500000
3242+10937500000+17500000000+23437500000+29375000000+30937500000+25937500000
3211+21250000000+16562500000+17187500000+34687500000+61875000000+76875000000
3179+84062500000+86250000000+88125000000+89375000000+90312500000+90625000000
3147+90937500000+91250000000+90937500000+90312500000+90000000000+89375000000
3116+89375000000+89375000000+89375000000+89375000000+89062500000+88750000000
3084+88750000000+88750000000+88750000000+88750000000+88750000000+89062500000
3053+89062500000+89062500000+89062500000+89062500000+89062500000+89062500000
3021+89375000000+89375000000+89687500000+90000000000+90312500000+90312500000
2989+90625000000+90625000000+90625000000+90625000000+90625000000+90937500000
2958+90937500000+90625000000+90625000000+90937500000+90937500000+90937500000
2926+90937500000+90937500000+90937500000+90937500000+90937500000+90937500000
2895+90937500000+90937500000+90937500000+90937500000+90937500000+90937500000
2863+90937500000+90625000000+90625000000+90625000000+90625000000+90625000000
2832+90625000000+90625000000+90625000000+90625000000+90625000000+90937500000
2800+90937500000+90937500000+90937500000+90937500000+90937500000+90937500000
2768+90937500000+90937500000+90937500000+91250000000+91250000000+91250000000
2737+91562500000+91562500000+91562500000+91562500000+91562500000+91562500000
2705+91875000000+91875000000+91875000000+91875000000+91875000000+91875000000
2674+91875000000+91875000000+92187500000+92187500000+92187500000+92187500000
2642+92187500000+92187500000+92187500000+92187500000+92187500000+92187500000
2611+92500000000+92500000000+92500000000+92500000000+92500000000+92500000000
2579+92500000000+92812500000+92812500000+92500000000+91250000000+89687500000
2547+89062500000+89062500000+89062500000+89375000000+90312500000+91250000000
2516+91562500000+91250000000+90000000000+89375000000+90000000000+91875000000
2484+91875000000+91875000000+91875000000+91250000000+90937500000+90625000000
2453+90312500000+90312500000+90312500000+90625000000+90937500000+91250000000
2421+91562500000+91875000000+91875000000+91875000000+92187500000+92187500000
2389+92187500000+92187500000+92187500000+91875000000+91250000000+90937500000
2358+90312500000+90625000000+90625000000+90625000000+90937500000+91250000000
2326+91562500000+91875000000+91875000000+92187500000+92187500000+91875000000
2295+91562500000+91250000000+90937500000+90625000000+90625000000+90625000000
2263+90625000000+90625000000+90937500000+90937500000+90937500000+91250000000
2232+91250000000+91250000000+91250000000+91250000000+90937500000+90937500000
2200+90625000000+90625000000+90625000000+90625000000+90625000000+90625000000
2168+90625000000+90625000000+90625000000+90312500000+90000000000+89687500000
2137+89687500000+89687500000+89687500000+89687500000+89687500000+89687500000
2105+89687500000+89375000000+89375000000+89375000000+89375000000+89062500000
2074+88750000000+88750000000+87500000000+84062500000+80312500000+80312500000
2042+85625000000+87187500000+87500000000+86562500000+86250000000+86875000000
2011+88437500000+89375000000+89375000000+89375000000+89375000000+89375000000
1979+89687500000+89687500000+89687500000+89687500000+89687500000+90000000000
1947+90312500000+90312500000+90312500000+89375000000+88437500000+87500000000
1916+82187500000+67812500000+74375000000+82500000000+79062500000+69375000000
1884+51875000000+41250000000+36250000000+38749999999+43125000000+46562499999
1853+38437500000+47812500000+60000000000+53750000000+65625000000+70312500000
1821+56250000000+59375000000+76562500000+81562500000+84062500000+84687500000
1789+85312500000+85937500000+84687500000+83437500000+81562500000+75000000000
1758+69375000000+62500000000+61250000000+64687500000+74375000000+75312500000
1726+78125000000+82500000000+84375000000+85000000000+85625000000+85937500000
1695+86250000000+86875000000+87500000000+88125000000+88125000000+88125000000
1663+87812500000+87812500000+87500000000+87500000000+87187500000+85937500000
1632+86250000000+88125000000+88437500000+88125000000+87812500000+87812500000
1600+88437500000+88437500000+88437500000+88750000000+88750000000+88750000000
1568+89062500000+89062500000+89375000000+89687500000+90312500000+90625000000
1537+90937500000+90937500000+90937500000+90937500000+90937500000+91250000000
1505+91250000000+91250000000+91250000000+91250000000+91250000000+87812500000
1474+85312500000+89062500000+89687500000+90000000000+89687500000+88437500000
1442+87187500000+87187500000+87812500000+89062500000+89687500000+90000000000
1411+90312500000+90000000000+89375000000+85937500000+85000000000+87187500000
1379+89375000000+90000000000+90625000000+90625000000+90937500000+90937500000
1347+90937500000+90625000000+89062500000+78437500000+77812500000+77812500000
1316+84687500000+86562500000+86562500000+87500000000+88750000000+89687500000
1284+90000000000+84687500000+84375000000+87812500000+89375000000+89687500000
1253+90000000000+89375000000+74375000000+73750000000+78750000000+79375000000
1221+78750000000+89062500000+89062500000+89062500000+88750000000+88750000000
1189+89375000000+89375000000+90000000000+90625000000+90937500000+90312500000
1158+79062500000+81562500000+89375000000+90625000000+90937500000+91250000000
1126+91250000000+87812500000+80312500000+87500000000+83750000000+82812500000
1095+88125000000+90312500000+90937500000+91250000000+91562500000+91562500000
1063+91562500000+91562500000+91250000000+90937500000+90625000000+90000000000
1032+90000000000+89375000000+89375000000+89375000000+90625000000+91250000000
1000+92187500000+92812500000+92812500000+92812500000+92812500000+92812500000
968+92812500000+92500000000+92500000000+92187500000+92187500000+92187500000
937+92187500000+91250000000+75312500000+70000000000+61562500000+67187500000
905+62500000000+75625000000+78750000000+65937500000+30000000000+26562500000
874+26250000000+25312500000+25000000000+59375000000+72812500000+78125000000
842+80312500000+80312500000+82812500000+74062500000+63750000000+52812500000
811+19062500000+18750000000+35937500000+66562500000+76875000000+82812500000
779+84375000000+89062500000+90000000000+90000000000+90000000000+90312500000
747+90625000000+90937500000+91562500000+91875000000+92187500000+92500000000
716+92187500000+91562500000+87812500000+87187500000+86562500000+73750000000
684+80000000000+90625000000+92187500000+93125000000+93437500000+93437500000
653+93750000000+94062500000+94062500000+93437500000+92812500000+91875000000
621+84062500000+59687500000+60000000000+87187500000+91875000000+93125000000
589+94687500000+94687500000+93750000000+92187500000+83437500000+87187500000
558+91875000000+93125000000+92500000000+91250000000+90625000000+89375000000
526+88750000000+88437500000+88437500000+88437500000+88437500000+88750000000
495+89062500000+89375000000+89375000000+89687500000+90000000000+90625000000
463+90937500000+91562500000+91250000000+90312500000+89062500000+86875000000
432+84375000000+81250000000+78750000000+75937500000+73750000000+72187500000
400+71250000000
##END=
