##TITLE=octylbenzene
##JCAMP-DX=4.24
##DATA TYPE=INFRARED SPECTRUM
##DATE=10/06/2025
##SAMPLING PROCEDURE=ATR
##ORIGIN=SDBS
##XUNITS=1/CM
##YUNITS=TRANSMITTANCE
##RESOLUTION=5.2631578947368425
##FIRSTX=4000.0
##LASTX=400.0
##DELTAX=-5.2631578947368425
##MAXY=95.0
##MINY=0.0
##XFACTOR=1
##YFACTOR=1
##NPOINTS=685
##FIRSTY=0.0
##XYDATA=(X++(Y..Y))
4000+0+92812500000+92812500000+92812500000+92812500000+92812500000
3968+92812500000+92812500000+92812500000+92812500000+93125000000+93125000000
3937+92812500000+92812500000+92812500000+92812500000+92812500000+92812500000
3905+92812500000+93125000000+93125000000+93125000000+93125000000+93125000000
3874+93125000000+93125000000+93125000000+93437500000+93437500000+93437500000
3842+93125000000+93125000000+93125000000+93125000000+93125000000+93125000000
3811+93125000000+93125000000+93125000000+93125000000+93125000000+93125000000
3779+93125000000+93125000000+93125000000+93125000000+93125000000+92812500000
3747+92812500000+92812500000+92812500000+92812500000+92812500000+92812500000
3716+92812500000+93125000000+93125000000+93437500000+93437500000+93437500000
3684+93437500000+93125000000+93125000000+93125000000+93125000000+93125000000
3653+92812500000+92812500000+92812500000+92812500000+92812500000+92812500000
3621+92812500000+92500000000+92500000000+92500000000+92500000000+92500000000
3589+92500000000+92187500000+92187500000+92187500000+92187500000+92500000000
3558+92187500000+92187500000+92187500000+92187500000+92187500000+92187500000
3526+92187500000+92187500000+92187500000+91875000000+91875000000+91875000000
3495+91875000000+91875000000+91875000000+91875000000+91875000000+91875000000
3463+91875000000+91875000000+91875000000+91875000000+91875000000+91875000000
3432+91875000000+91875000000+91875000000+91875000000+91875000000+91875000000
3400+91875000000+91562500000+90937500000+87500000000+86562500000+86875000000
3368+74375000000+72187500000+78125000000+66562500000+65000000000+74062500000
3337+77500000000+66562500000+47187500000+46875000000+66250000000+76875000000
3305+75312500000+76562500000+70312500000+58437500000+34375000000+19375000000
3274+18750000000+20312500000+9062500000+4687500000+4687500000+5625000000
3242+12500000000+21250000000+29687500000+37187499999+38437500000+32187500000
3211+17812500000+11562500000+13125000000+34062500000+61562500000+72187500000
3179+79062500000+82500000000+84687500000+85937500000+87187500000+88437500000
3147+90000000000+90625000000+91250000000+91250000000+90937500000+90937500000
3116+90937500000+91250000000+91562500000+91875000000+91562500000+91250000000
3084+91250000000+91250000000+91250000000+91562500000+91562500000+91562500000
3053+91875000000+92187500000+92187500000+92500000000+92500000000+92812500000
3021+92812500000+93125000000+93125000000+93437500000+93750000000+93750000000
2989+94062500000+94062500000+94062500000+94375000000+94375000000+94375000000
2958+94375000000+94375000000+94375000000+94375000000+94687500000+94687500000
2926+94687500000+94687500000+94687500000+94687500000+94375000000+94375000000
2895+94375000000+94375000000+94375000000+94375000000+94375000000+94375000000
2863+94375000000+94375000000+94375000000+94375000000+94375000000+94375000000
2832+94062500000+94062500000+94062500000+94375000000+94375000000+94375000000
2800+94687500000+94687500000+94687500000+94687500000+94687500000+94687500000
2768+94687500000+94687500000+94687500000+94687500000+94687500000+94687500000
2737+94375000000+94375000000+94375000000+94687500000+94687500000+94687500000
2705+94687500000+95000000000+94687500000+94687500000+94687500000+94687500000
2674+95000000000+95000000000+94687500000+94687500000+94687500000+94687500000
2642+94687500000+94687500000+94687500000+94687500000+94687500000+94687500000
2611+94687500000+94687500000+94687500000+94687500000+94687500000+94687500000
2579+94687500000+94375000000+94062500000+93750000000+92812500000+92187500000
2547+92187500000+92187500000+91562500000+89687500000+89062500000+89687500000
2516+91875000000+93437500000+94062500000+94375000000+94375000000+94375000000
2484+94687500000+94375000000+94375000000+94062500000+93750000000+93437500000
2453+93125000000+92812500000+92500000000+91875000000+91562500000+91562500000
2421+91562500000+91875000000+92812500000+93437500000+94062500000+94375000000
2389+94375000000+94375000000+94375000000+94375000000+94062500000+93750000000
2358+93437500000+93125000000+92812500000+91562500000+90312500000+90000000000
2326+90625000000+92187500000+93437500000+93750000000+93750000000+94062500000
2295+94062500000+94375000000+94375000000+94062500000+94062500000+93437500000
2263+92812500000+92500000000+92500000000+92500000000+92812500000+93125000000
2232+93437500000+93750000000+93750000000+93750000000+93750000000+93437500000
2200+93437500000+93125000000+93125000000+93125000000+93125000000+92812500000
2168+92812500000+92812500000+92500000000+92187500000+91875000000+91875000000
2137+91562500000+91562500000+91562500000+91875000000+91875000000+92187500000
2105+92187500000+92500000000+92500000000+92500000000+92187500000+91250000000
2074+88437500000+74687500000+71562500000+75937500000+83750000000+87187500000
2042+88750000000+86875000000+87187500000+91250000000+92187500000+92187500000
2011+92187500000+92500000000+92187500000+92187500000+91875000000+91562500000
1979+90937500000+90312500000+90312500000+90312500000+90937500000+90937500000
1947+90937500000+90312500000+89687500000+88125000000+84375000000+71562500000
1916+46562499999+44375000000+65000000000+76875000000+83125000000+82500000000
1884+74687500000+59687500000+45625000000+45625000000+47187500000+41250000000
1853+35625000000+48750000000+61875000000+66875000000+72500000000+76250000000
1821+81250000000+85000000000+87187500000+88437500000+89375000000+89687500000
1789+90000000000+90312500000+90312500000+90000000000+89687500000+88125000000
1758+83437500000+74687500000+73125000000+79062500000+83125000000+83437500000
1726+85000000000+86250000000+85937500000+85937500000+86250000000+86562500000
1695+86875000000+88437500000+88750000000+89062500000+89062500000+89062500000
1663+88750000000+88437500000+88437500000+88437500000+88437500000+88437500000
1632+89062500000+89375000000+89687500000+90000000000+90312500000+90625000000
1600+90625000000+90937500000+91250000000+91250000000+90937500000+90625000000
1568+90312500000+90312500000+90625000000+91562500000+91875000000+92187500000
1537+92187500000+92500000000+92500000000+92500000000+91875000000+90937500000
1505+89687500000+85937500000+85312500000+88125000000+89375000000+89375000000
1474+89062500000+89062500000+90312500000+90937500000+90937500000+90625000000
1442+89687500000+89687500000+90625000000+91562500000+91562500000+91250000000
1411+90625000000+89687500000+88437500000+86250000000+84687500000+82187500000
1379+82187500000+85000000000+86875000000+88125000000+89687500000+90625000000
1347+90312500000+89375000000+87500000000+84062500000+82187500000+82187500000
1316+84687500000+86875000000+88750000000+90000000000+90937500000+90625000000
1284+89687500000+87500000000+81562500000+73125000000+76250000000+85937500000
1253+88437500000+90000000000+90625000000+90937500000+91250000000+91875000000
1221+92187500000+92500000000+92812500000+92812500000+92812500000+92500000000
1189+92500000000+92500000000+92500000000+92500000000+92500000000+92500000000
1158+92500000000+92500000000+92187500000+92187500000+92187500000+91875000000
1126+91875000000+91875000000+91875000000+91250000000+89687500000+87187500000
1095+85937500000+85937500000+87812500000+90000000000+90937500000+91562500000
1063+91875000000+91875000000+92187500000+92187500000+92187500000+92187500000
1032+91875000000+91875000000+91562500000+91562500000+91562500000+91562500000
1000+91562500000+91562500000+91562500000+91562500000+91562500000+91562500000
968+91250000000+90937500000+90625000000+90312500000+90312500000+90312500000
937+90312500000+90312500000+90312500000+90312500000+89375000000+87812500000
905+85312500000+82187500000+77500000000+69062500000+54062500000+43437499999
874+38749999999+39687500000+47500000000+55000000000+59062500000+59687500000
842+55625000000+56562500000+64687500000+69375000000+65312500000+50625000000
811+19062500000+15000000000+27500000000+66250000000+80625000000+86562500000
779+89375000000+90937500000+91250000000+91875000000+91875000000+92500000000
747+92812500000+93125000000+93437500000+93437500000+93750000000+93750000000
716+93750000000+93750000000+93750000000+93750000000+94062500000+94062500000
684+94062500000+93750000000+92187500000+91562500000+90625000000+89687500000
653+88437500000+87500000000+86875000000+85000000000+84687500000+85625000000
621+88437500000+91875000000+93125000000+94062500000+94687500000+94687500000
589+94062500000+93437500000+92500000000+91562500000+90625000000+90000000000
558+89375000000+88750000000+88125000000+87187500000+86562500000+85625000000
526+85000000000+85000000000+84687500000+84687500000+85000000000+85312500000
495+86250000000+87187500000+88437500000+89687500000+90625000000+91562500000
463+92187500000+92187500000+92187500000+91875000000+91562500000+90937500000
432+90000000000+88125000000+86250000000+84062500000+81875000000+80312500000
400+79687500000
##END=
