##TITLE=p-(ethoxycarbonyloxy)benzoic acid
##JCAMP-DX=4.24
##DATA TYPE=INFRARED SPECTRUM
##DATE=10/06/2025
##SAMPLING PROCEDURE=ATR
##ORIGIN=SDBS
##XUNITS=1/CM
##YUNITS=TRANSMITTANCE
##RESOLUTION=5.2631578947368425
##FIRSTX=4000.0
##LASTX=400.0
##DELTAX=-5.2631578947368425
##MAXY=95.0
##MINY=0.0
##XFACTOR=1
##YFACTOR=1
##NPOINTS=685
##FIRSTY=0.0
##XYDATA=(X++(Y..Y))
4000+0+81562500000+81250000000+81250000000+81250000000+81562500000
3968+81875000000+82187500000+82187500000+82500000000+82500000000+82500000000
3937+82500000000+82500000000+82500000000+82500000000+82500000000+82500000000
3905+82812500000+83125000000+83437500000+83437500000+83750000000+83750000000
3874+84062500000+84375000000+84375000000+84062500000+83750000000+83750000000
3842+84062500000+84375000000+85000000000+85312500000+85000000000+85000000000
3811+85312500000+85312500000+85625000000+86250000000+86562500000+86562500000
3779+86562500000+86562500000+86562500000+86562500000+86875000000+86875000000
3747+86875000000+86562500000+86562500000+86562500000+86562500000+86562500000
3716+86875000000+87187500000+86875000000+86562500000+86250000000+86250000000
3684+86250000000+85937500000+85000000000+84062500000+83750000000+83750000000
3653+84375000000+85312500000+86250000000+86875000000+87187500000+87187500000
3621+87187500000+87187500000+87187500000+87187500000+86875000000+86875000000
3589+86250000000+85937500000+85937500000+85937500000+85937500000+85937500000
3558+85937500000+85937500000+85937500000+85937500000+85937500000+85625000000
3526+85312500000+85000000000+84687500000+84375000000+83750000000+83437500000
3495+83125000000+82500000000+81875000000+81562500000+80937500000+80000000000
3463+79062500000+78437500000+77500000000+76562500000+75625000000+75000000000
3432+74687500000+73750000000+72812500000+72187500000+70937500000+70000000000
3400+67500000000+62812500000+62187500000+60000000000+60625000000+61562500000
3368+58750000000+55312500000+55937500000+58125000000+58437500000+59062500000
3337+58125000000+56562500000+54687500000+51562500000+44999999999+40937500000
3305+42187500000+36250000000+29062500000+28437500000+18750000000+13437500000
3274+12500000000+13125000000+9375000000+5312500000+4687500000+5000000000
3242+8750000000+12812500000+16875000000+20312500000+22500000000+20000000000
3211+16875000000+12812500000+13125000000+22500000000+37187499999+44999999999
3179+50625000000+53125000000+55625000000+57500000000+59687500000+62187500000
3147+63750000000+64687500000+65625000000+66250000000+65937500000+65625000000
3116+65625000000+65625000000+65937500000+64687500000+62500000000+60625000000
3084+59062500000+58437500000+58437500000+59375000000+60937500000+61562500000
3053+62500000000+63437500000+64062500000+64687500000+64687500000+65000000000
3021+65312500000+65312500000+64062500000+63125000000+62812500000+62812500000
2989+63125000000+63437500000+64062500000+66250000000+67500000000+68750000000
2958+70625000000+71875000000+72812500000+73750000000+75000000000+75625000000
2926+76562500000+77187500000+77812500000+78437500000+78750000000+79375000000
2895+79687500000+80312500000+80937500000+81875000000+82500000000+83125000000
2863+83750000000+84375000000+85000000000+85625000000+86250000000+86875000000
2832+87500000000+87500000000+87812500000+87812500000+88125000000+88125000000
2800+88125000000+88125000000+88437500000+88750000000+89375000000+89687500000
2768+90000000000+90312500000+90312500000+90937500000+91250000000+91562500000
2737+91562500000+91875000000+92187500000+92187500000+92812500000+93125000000
2705+93750000000+93437500000+93437500000+93437500000+93437500000+93750000000
2674+93750000000+93750000000+93437500000+93125000000+93125000000+93125000000
2642+93437500000+93750000000+94062500000+94062500000+94375000000+94375000000
2611+94687500000+94687500000+95000000000+94687500000+94687500000+94687500000
2579+94687500000+94687500000+94375000000+94375000000+94375000000+94375000000
2547+94375000000+94062500000+93750000000+92187500000+90000000000+90000000000
2516+91250000000+91250000000+91250000000+91250000000+91562500000+91562500000
2484+91562500000+91875000000+91875000000+91875000000+91562500000+91562500000
2453+91562500000+91250000000+90937500000+90625000000+90312500000+90000000000
2421+89687500000+89062500000+88750000000+88437500000+88125000000+88125000000
2389+87500000000+87187500000+86875000000+86250000000+85625000000+84687500000
2358+83437500000+82187500000+80625000000+78750000000+77187500000+74375000000
2326+70937500000+67500000000+62500000000+54687500000+44062500000+28750000000
2295+15625000000+6875000000+4687500000+4687500000+5937500000+12187500000
2263+28750000000+48750000000+63125000000+71250000000+75625000000+80937500000
2232+79375000000+66562500000+69687500000+72187500000+63125000000+46875000000
2200+27500000000+15625000000+11562500000+10312500000+10312500000+13125000000
2168+18125000000+24375000000+33437500000+42187500000+50312500000+58125000000
2137+65312500000+70937500000+73750000000+75312500000+78125000000+81562500000
2105+83437500000+85000000000+86250000000+85937500000+83437500000+71875000000
2074+41250000000+35000000000+43437499999+61562500000+66875000000+60000000000
2042+64375000000+76250000000+83125000000+86562500000+88750000000+89062500000
2011+89062500000+88437500000+88125000000+87500000000+87187500000+87500000000
1979+88750000000+89687500000+90625000000+91562500000+92187500000+92500000000
1947+91562500000+88750000000+83125000000+74687500000+75625000000+82500000000
1916+88125000000+89687500000+90625000000+88437500000+81562500000+64062500000
1884+64375000000+64062500000+53437500000+49062500000+45312500000+47500000000
1853+54062500000+59062500000+55937500000+47187500000+43750000000+37500000000
1821+34062500000+34062500000+40000000000+47187500000+57500000000+62500000000
1789+64062500000+67500000000+70937500000+76562500000+76875000000+69687500000
1758+63125000000+53750000000+41562500000+30312500000+34687500000+65312500000
1726+74062500000+79062500000+77500000000+74375000000+69375000000+65937500000
1695+63750000000+59375000000+53125000000+42500000000+33125000000+31562500000
1663+32187500000+31875000000+24062500000+18437500000+15937500000+15937500000
1632+15312500000+14062500000+11875000000+11250000000+11250000000+10312500000
1600+10312500000+10937500000+14062500000+18750000000+23125000000+28125000000
1568+31875000000+33750000000+34062500000+35000000000+33750000000+27187500000
1537+27187500000+34375000000+41874999999+47187500000+51250000000+55000000000
1505+59062500000+63437500000+66562500000+69375000000+73750000000+76250000000
1474+78437500000+80625000000+76875000000+47187500000+19062500000+18437500000
1442+32187500000+44999999999+52500000000+61562500000+67812500000+70625000000
1411+68125000000+49375000000+47187500000+50625000000+49687499999+61875000000
1379+51875000000+51250000000+63125000000+70000000000+71875000000+73437500000
1347+75937500000+79062500000+80937500000+80937500000+77187500000+67500000000
1316+53125000000+47500000000+48124999999+55937500000+62500000000+67500000000
1284+71250000000+73750000000+75625000000+76875000000+78437500000+80625000000
1253+75937500000+42187500000+47187500000+51250000000+35312500000+35625000000
1221+50625000000+63437500000+70625000000+73750000000+76875000000+78437500000
1189+79375000000+80000000000+79687500000+75625000000+75000000000+75000000000
1158+73437500000+70312500000+65937500000+61875000000+56875000000+53750000000
1126+52812500000+52812500000+53437500000+56562500000+56562500000+44687500000
1095+44687500000+54687500000+67500000000+72812500000+75937500000+78437500000
1063+80312500000+81250000000+81875000000+81562500000+79375000000+61875000000
1032+45312500000+54062500000+74062500000+77187500000+69375000000+59375000000
1000+61562500000+73750000000+77812500000+80312500000+82187500000+83125000000
968+84687500000+85937500000+87187500000+88437500000+88437500000+86875000000
937+80000000000+72187500000+62812500000+33437500000+30625000000+48437500000
905+62812500000+82187500000+87187500000+89687500000+90000000000+89062500000
874+87187500000+79375000000+46562499999+43437499999+61875000000+79687500000
842+82500000000+83437500000+86250000000+90625000000+92500000000+93125000000
811+93437500000+94062500000+93437500000+84375000000+75000000000+83750000000
779+93437500000+94687500000+93125000000+91562500000+90312500000+82812500000
747+47500000000+49375000000+80000000000+87812500000+88437500000+88437500000
716+78437500000+82187500000+91250000000+92500000000+92500000000+92500000000
684+92187500000+91875000000+91562500000+91562500000+91250000000+91250000000
653+90937500000+90937500000+90312500000+89687500000+88437500000+86250000000
621+83125000000+77500000000+64687500000+55625000000+55625000000+63437500000
589+75937500000+83750000000+85937500000+87500000000+89062500000+89062500000
558+87812500000+85000000000+72187500000+53750000000+55625000000+82187500000
526+87500000000+88125000000+89375000000+88437500000+87812500000+87187500000
495+86875000000+86562500000+86250000000+85937500000+85625000000+85000000000
463+84687500000+83750000000+82812500000+81875000000+80937500000+79062500000
432+76562500000+72500000000+68437500000+63437500000+59062500000+55937500000
400+54375000000
##END=
