##TITLE=p-(heptyloxy)nitrobenzene
##JCAMP-DX=4.24
##DATA TYPE=INFRARED SPECTRUM
##DATE=10/06/2025
##SAMPLING PROCEDURE=ATR
##ORIGIN=SDBS
##XUNITS=1/CM
##YUNITS=TRANSMITTANCE
##RESOLUTION=5.2631578947368425
##FIRSTX=4000.0
##LASTX=400.0
##DELTAX=-5.2631578947368425
##MAXY=94.6875
##MINY=0.0
##XFACTOR=1
##YFACTOR=1
##NPOINTS=685
##FIRSTY=0.0
##XYDATA=(X++(Y..Y))
4000+0+92812500000+92812500000+93125000000+93437500000+93437500000
3968+93437500000+93125000000+93125000000+93125000000+93125000000+93125000000
3937+93125000000+93125000000+92812500000+92812500000+92812500000+92812500000
3905+92812500000+92500000000+92500000000+92500000000+92500000000+92500000000
3874+92187500000+92187500000+92187500000+92500000000+92812500000+92500000000
3842+92187500000+92187500000+91875000000+91875000000+91875000000+91875000000
3811+91875000000+92187500000+91875000000+91875000000+91562500000+91250000000
3779+91250000000+90937500000+90937500000+90937500000+90937500000+90937500000
3747+90937500000+90625000000+90625000000+90312500000+90312500000+90312500000
3716+90000000000+89687500000+89687500000+89687500000+89375000000+89375000000
3684+89375000000+89375000000+89375000000+89375000000+89062500000+89062500000
3653+89062500000+89062500000+88750000000+88750000000+88750000000+88750000000
3621+88437500000+88437500000+88437500000+88437500000+88125000000+88125000000
3589+88125000000+88125000000+88125000000+88125000000+88125000000+88125000000
3558+88437500000+88437500000+88437500000+88750000000+88750000000+89062500000
3526+89062500000+89062500000+88750000000+88750000000+88750000000+88750000000
3495+88750000000+89062500000+89062500000+89062500000+89062500000+88750000000
3463+88437500000+88125000000+87500000000+87500000000+87500000000+87812500000
3432+88125000000+88750000000+89062500000+89375000000+89062500000+89687500000
3400+89062500000+87500000000+84375000000+84062500000+85937500000+86250000000
3368+81562500000+81562500000+84375000000+86875000000+89375000000+89687500000
3337+90000000000+90000000000+89687500000+89375000000+88437500000+87500000000
3305+85625000000+82187500000+75000000000+63125000000+43750000000+30937500000
3274+27500000000+27187500000+21875000000+20000000000+20625000000+24687500000
3242+35000000000+44375000000+52500000000+57500000000+48124999999+44375000000
3211+38437500000+36562500000+42187500000+59687500000+74687500000+81562500000
3179+85937500000+88125000000+89375000000+90000000000+90625000000+90937500000
3147+90625000000+90625000000+90625000000+90937500000+91875000000+92187500000
3116+92187500000+92187500000+92187500000+92187500000+92187500000+92187500000
3084+91562500000+90625000000+90312500000+90312500000+91250000000+92187500000
3053+92500000000+92500000000+92500000000+91875000000+90937500000+90625000000
3021+90937500000+91250000000+92187500000+92812500000+93125000000+93437500000
2989+93750000000+93437500000+93125000000+92812500000+92500000000+92500000000
2958+92812500000+93437500000+94062500000+94062500000+93125000000+91875000000
2926+90000000000+90000000000+90625000000+92500000000+93750000000+94062500000
2895+94062500000+94062500000+94062500000+94062500000+94062500000+93750000000
2863+93750000000+93750000000+94062500000+94062500000+94062500000+94062500000
2832+94062500000+94062500000+94062500000+94062500000+94375000000+94375000000
2800+94375000000+94375000000+94687500000+94687500000+94375000000+94375000000
2768+94062500000+94062500000+94062500000+94375000000+94375000000+94687500000
2737+94687500000+94687500000+94687500000+94687500000+94375000000+94375000000
2705+94062500000+94062500000+94062500000+94062500000+94062500000+94062500000
2674+93750000000+93750000000+93437500000+93437500000+93437500000+93750000000
2642+93750000000+93750000000+93437500000+93437500000+93125000000+92812500000
2611+92812500000+92812500000+92812500000+92812500000+92812500000+93125000000
2579+93125000000+93125000000+93125000000+93125000000+93125000000+93125000000
2547+93437500000+93437500000+93437500000+93750000000+93437500000+93125000000
2516+92812500000+92187500000+91875000000+91562500000+91250000000+90937500000
2484+91250000000+91562500000+91875000000+92187500000+92500000000+92812500000
2453+93125000000+93437500000+93437500000+93750000000+93750000000+93750000000
2421+93750000000+93750000000+94062500000+94062500000+94062500000+94062500000
2389+94062500000+94062500000+94062500000+94062500000+93750000000+93750000000
2358+93750000000+93750000000+93437500000+93437500000+93437500000+93437500000
2326+93125000000+93125000000+93125000000+92812500000+92812500000+91875000000
2295+91562500000+91250000000+91250000000+91562500000+92187500000+92812500000
2263+93125000000+93437500000+93437500000+93437500000+93437500000+93437500000
2232+93437500000+93437500000+93437500000+93437500000+93437500000+93437500000
2200+93437500000+93437500000+93125000000+92812500000+92500000000+92187500000
2168+92187500000+91875000000+91875000000+91562500000+90625000000+89687500000
2137+89375000000+89062500000+89062500000+88750000000+88437500000+87812500000
2105+87500000000+85937500000+83437500000+79375000000+72812500000+55312500000
2074+29375000000+22500000000+23750000000+19687500000+8750000000+7812500000
2042+10937500000+27812500000+47187500000+60625000000+70000000000+75000000000
2011+77500000000+79375000000+80312500000+80625000000+80000000000+78750000000
1979+77187500000+74687500000+69687500000+61250000000+47187500000+26250000000
1947+12812500000+8750000000+8437500000+9062500000+13750000000+16562500000
1916+15000000000+18750000000+40625000000+55937500000+64687500000+59687500000
1884+48750000000+44687500000+41250000000+43437499999+52812500000+56875000000
1853+59687500000+65000000000+68437500000+71562500000+74062500000+76562500000
1821+78437500000+79375000000+78437500000+80625000000+84375000000+85937500000
1789+84687500000+80937500000+75312500000+73125000000+73125000000+73125000000
1758+70312500000+68125000000+68125000000+72187500000+75625000000+73750000000
1726+69062500000+58750000000+38125000000+15312500000+6250000000+4687500000
1695+5000000000+7812500000+10000000000+13750000000+33125000000+51875000000
1663+58437500000+59687500000+55312500000+48437500000+36875000000+34375000000
1632+39687500000+56875000000+56562500000+46875000000+30000000000+15937500000
1600+8437500000+5625000000+5625000000+6250000000+9687500000+18437500000
1568+30312500000+38749999999+45312500000+53750000000+64687500000+72187500000
1537+75000000000+75312500000+77187500000+81250000000+83750000000+85312500000
1505+84062500000+81875000000+78437500000+76250000000+74687500000+70625000000
1474+55312500000+35937500000+34687500000+45937500000+69062500000+81250000000
1442+85937500000+88125000000+88437500000+88750000000+89062500000+88437500000
1411+86250000000+82500000000+76250000000+62812500000+40312499999+20312500000
1379+19062500000+26562500000+47812500000+67500000000+78750000000+81562500000
1347+83125000000+82187500000+80937500000+79687500000+77812500000+77500000000
1316+77187500000+77187500000+77187500000+77187500000+76875000000+75625000000
1284+72500000000+68125000000+65937500000+65312500000+63437500000+57500000000
1253+54062500000+53125000000+53437500000+55625000000+60625000000+67187500000
1221+72187500000+76562500000+80312500000+82812500000+85937500000+84375000000
1189+81875000000+80312500000+80312500000+81250000000+81562500000+81562500000
1158+81562500000+82187500000+85000000000+88125000000+90625000000+91875000000
1126+91875000000+91875000000+91875000000+91875000000+92187500000+92187500000
1095+92187500000+92187500000+91875000000+91562500000+89687500000+85625000000
1063+83437500000+83750000000+84375000000+81562500000+74062500000+52187500000
1032+51562500000+55000000000+44062500000+30937500000+28750000000+32500000000
1000+58125000000+79062500000+86562500000+90000000000+90625000000+90000000000
968+89062500000+88437500000+88437500000+89375000000+91250000000+92812500000
937+92812500000+93125000000+93125000000+93125000000+93125000000+93125000000
905+93125000000+92500000000+88750000000+64062500000+30625000000+34687500000
874+77500000000+85937500000+90937500000+90000000000+86875000000+84062500000
842+84062500000+87500000000+90937500000+92500000000+93125000000+91875000000
811+89062500000+80312500000+63125000000+63125000000+75000000000+88125000000
779+90625000000+91562500000+91562500000+88437500000+78750000000+51250000000
747+42812500000+55000000000+78125000000+88750000000+89375000000+88125000000
716+87187500000+83437500000+83437500000+87500000000+87500000000+89062500000
684+91875000000+93437500000+93750000000+94375000000+94375000000+94062500000
653+93437500000+93437500000+93125000000+93125000000+93125000000+93437500000
621+93750000000+94062500000+94375000000+94375000000+93750000000+93437500000
589+92812500000+92187500000+92187500000+91875000000+91562500000+91562500000
558+91562500000+91250000000+88437500000+83750000000+82187500000+82187500000
526+83437500000+83437500000+83750000000+85000000000+86250000000+87187500000
495+88125000000+89062500000+90000000000+90625000000+91250000000+91250000000
463+90937500000+90625000000+89687500000+88437500000+86875000000+84375000000
432+81875000000+79062500000+77187500000+74687500000+72812500000+71562500000
400+70625000000
##END=
