##TITLE=p-(p-pentyloxybenzylideneamino)benzonitrile
##JCAMP-DX=4.24
##DATA TYPE=INFRARED SPECTRUM
##DATE=10/06/2025
##SAMPLING PROCEDURE=ATR
##ORIGIN=SDBS
##XUNITS=1/CM
##YUNITS=TRANSMITTANCE
##RESOLUTION=5.2631578947368425
##FIRSTX=4000.0
##LASTX=400.0
##DELTAX=-5.2631578947368425
##MAXY=94.375
##MINY=0.0
##XFACTOR=1
##YFACTOR=1
##NPOINTS=685
##FIRSTY=0.0
##XYDATA=(X++(Y..Y))
4000+0+62187500000+62187500000+62500000000+62812500000+62500000000
3968+62500000000+62500000000+62500000000+62500000000+62500000000+61875000000
3937+61250000000+61250000000+61250000000+61250000000+61562500000+61875000000
3905+62187500000+62187500000+62187500000+61875000000+61562500000+61250000000
3874+60937500000+60312500000+60312500000+60312500000+60625000000+61250000000
3842+60937500000+60312500000+60000000000+59687500000+59687500000+59687500000
3811+59687500000+60000000000+60312500000+60937500000+60937500000+60000000000
3779+59062500000+59062500000+59062500000+59375000000+59687500000+59687500000
3747+59687500000+59375000000+59062500000+58437500000+58437500000+58437500000
3716+58437500000+59062500000+59375000000+59375000000+59062500000+58750000000
3684+58750000000+58750000000+58750000000+58437500000+58125000000+58125000000
3653+58125000000+57812500000+57812500000+57812500000+57812500000+57812500000
3621+57812500000+57812500000+57812500000+57812500000+58125000000+58125000000
3589+57812500000+57187500000+57187500000+57187500000+57187500000+57187500000
3558+56875000000+56875000000+56875000000+57187500000+56875000000+56875000000
3526+56875000000+56875000000+56875000000+56875000000+56875000000+56562500000
3495+56562500000+56875000000+56875000000+56875000000+56875000000+56250000000
3463+55937500000+55625000000+55625000000+55625000000+55937500000+55937500000
3432+55625000000+55625000000+55625000000+55312500000+55312500000+54687500000
3400+55000000000+55000000000+55000000000+54062500000+53125000000+55625000000
3368+55000000000+55000000000+53437500000+51875000000+52500000000+51562500000
3337+51250000000+50937500000+50625000000+49687499999+48124999999+46562499999
3305+43750000000+39687500000+32812500000+23437500000+13125000000+7812500000
3274+7187500000+7812500000+5937500000+4062500000+4062500000+4375000000
3242+8437500000+11250000000+15937500000+19062500000+17812500000+11875000000
3211+13437500000+11250000000+11875000000+22812500000+40312499999+49375000000
3179+54062500000+55000000000+57500000000+57500000000+59687500000+59687500000
3147+60312500000+60000000000+60000000000+60000000000+60312500000+60000000000
3116+58437500000+58750000000+59375000000+60000000000+60000000000+60000000000
3084+60000000000+60312500000+60312500000+60625000000+60937500000+60937500000
3053+60937500000+60937500000+60937500000+60937500000+60937500000+61250000000
3021+61562500000+61875000000+61875000000+61250000000+60937500000+60625000000
2989+60937500000+61250000000+61875000000+62187500000+62187500000+62187500000
2958+62187500000+62187500000+62500000000+62812500000+63125000000+63125000000
2926+63125000000+63437500000+63437500000+63437500000+63437500000+63437500000
2895+63750000000+63750000000+63750000000+64062500000+64062500000+64375000000
2863+64375000000+64687500000+64687500000+64687500000+65000000000+65000000000
2832+65000000000+65312500000+65625000000+65937500000+66562500000+66875000000
2800+67500000000+68750000000+69375000000+70937500000+73750000000+70000000000
2768+39375000000+39375000000+49375000000+55312500000+58750000000+60312500000
2737+61875000000+61875000000+62187500000+63437500000+64062500000+64375000000
2705+64687500000+65000000000+65000000000+65000000000+65000000000+65312500000
2674+65312500000+65625000000+65937500000+66250000000+66250000000+66250000000
2642+66250000000+65937500000+65937500000+65625000000+65625000000+66562500000
2611+67187500000+67187500000+67500000000+67500000000+67812500000+68125000000
2579+68125000000+68125000000+68125000000+68125000000+68125000000+67812500000
2547+67812500000+67812500000+67812500000+68125000000+68125000000+68437500000
2516+68437500000+68750000000+69062500000+69062500000+69062500000+69062500000
2484+68750000000+68750000000+69062500000+69375000000+70000000000+70625000000
2453+70937500000+71250000000+71562500000+71250000000+70937500000+70937500000
2421+70937500000+70937500000+71250000000+71875000000+72500000000+73125000000
2389+73437500000+73437500000+73750000000+73750000000+73750000000+73750000000
2358+73750000000+73750000000+73750000000+73750000000+73750000000+74062500000
2326+74062500000+74687500000+74687500000+75000000000+75312500000+75312500000
2295+75625000000+75937500000+76250000000+76250000000+76562500000+76562500000
2263+76875000000+76875000000+76875000000+76875000000+76875000000+77187500000
2232+77500000000+77812500000+78125000000+78125000000+77812500000+77812500000
2200+78125000000+79375000000+80625000000+81250000000+81875000000+82187500000
2168+82812500000+83125000000+84062500000+85000000000+86562500000+87812500000
2137+88437500000+89375000000+90312500000+90937500000+92500000000+94375000000
2105+94062500000+90625000000+76875000000+57500000000+56250000000+58125000000
2074+58750000000+41562500000+39687500000+43125000000+52812500000+33125000000
2042+26562500000+26562500000+32812500000+47187500000+41874999999+28437500000
2011+23750000000+23750000000+25312500000+28437500000+32812500000+36875000000
1979+41874999999+44999999999+48437500000+52500000000+56562500000+57500000000
1947+52812500000+41250000000+30312500000+29062500000+30625000000+35312500000
1916+38125000000+35000000000+37500000000+40937500000+44375000000+44687500000
1884+37500000000+20625000000+20312500000+21875000000+25625000000+27500000000
1853+27812500000+36250000000+40937500000+45937500000+51562500000+57187500000
1821+55312500000+30937500000+31250000000+42187500000+47187500000+50000000000
1789+53437500000+56875000000+59062500000+47812500000+43125000000+46562499999
1758+44062500000+38437500000+38125000000+42812500000+51562500000+53750000000
1726+56562500000+60625000000+63125000000+64062500000+65937500000+67500000000
1695+68437500000+70312500000+72500000000+74375000000+74375000000+68750000000
1663+57812500000+51250000000+38437500000+34375000000+34687500000+49687499999
1632+61250000000+68750000000+71875000000+74687500000+73437500000+69687500000
1600+61250000000+49687499999+40000000000+30625000000+22812500000+20937500000
1568+21875000000+23437500000+23750000000+27812500000+33437500000+37812500000
1537+40000000000+42812500000+46875000000+50000000000+51875000000+54687500000
1505+52812500000+44062500000+44375000000+55000000000+62187500000+67812500000
1474+71875000000+74062500000+54375000000+31250000000+20312500000+19375000000
1442+19062500000+21562500000+25312500000+30625000000+34687500000+37500000000
1411+40625000000+43125000000+40312499999+40312499999+41874999999+39687500000
1379+32812500000+33125000000+44375000000+48750000000+50625000000+51562500000
1347+53125000000+54375000000+54687500000+55312500000+56875000000+57812500000
1316+55312500000+51250000000+51562500000+53125000000+55000000000+56250000000
1284+58437500000+60000000000+60937500000+60312500000+56875000000+37812500000
1253+26875000000+27187500000+35625000000+40000000000+44687500000+47187500000
1221+50312500000+52187500000+53750000000+52500000000+52500000000+54375000000
1189+56562500000+57500000000+58437500000+59062500000+59687500000+60312500000
1158+60937500000+61250000000+61562500000+61875000000+62187500000+62500000000
1126+63125000000+63437500000+64062500000+65000000000+65625000000+66250000000
1095+66875000000+67187500000+65937500000+57500000000+39687500000+40000000000
1063+48437500000+53750000000+56562500000+57812500000+59062500000+55625000000
1032+49687499999+35625000000+36250000000+49375000000+52812500000+55625000000
1000+42187500000+40312499999+49375000000+51250000000+60937500000+62500000000
968+65000000000+55625000000+53750000000+66250000000+64687500000+64687500000
937+66250000000+67812500000+69062500000+69687500000+69687500000+69687500000
905+70000000000+70312500000+70937500000+71250000000+71562500000+71562500000
874+70625000000+68750000000+65937500000+58437500000+56875000000+57187500000
842+60000000000+62812500000+62500000000+62812500000+68125000000+69687500000
811+70312500000+71875000000+73125000000+73437500000+73437500000+73750000000
779+74062500000+74062500000+74375000000+74687500000+74687500000+74687500000
747+75000000000+67187500000+67500000000+74375000000+75000000000+74062500000
716+71562500000+73750000000+75312500000+76250000000+76562500000+75937500000
684+58750000000+52187500000+60312500000+66875000000+70312500000+71562500000
653+72187500000+73125000000+72812500000+71250000000+66875000000+56562500000
621+44375000000+50625000000+69375000000+72812500000+73437500000+75000000000
589+76250000000+77187500000+76250000000+72187500000+66562500000+67812500000
558+75000000000+77500000000+77500000000+77812500000+77500000000+75625000000
526+74375000000+73125000000+71875000000+71250000000+70937500000+70937500000
495+71250000000+71875000000+73125000000+74062500000+75625000000+77187500000
463+78125000000+78750000000+78750000000+78125000000+77187500000+75625000000
432+73750000000+71562500000+70000000000+68125000000+66250000000+65312500000
400+64687500000
##END=
