##TITLE=p-benzoquinone
##JCAMP-DX=4.24
##DATA TYPE=INFRARED SPECTRUM
##DATE=10/06/2025
##SAMPLING PROCEDURE=ATR
##ORIGIN=SDBS
##XUNITS=1/CM
##YUNITS=TRANSMITTANCE
##RESOLUTION=5.2631578947368425
##FIRSTX=4000.0
##LASTX=400.0
##DELTAX=-5.2631578947368425
##MAXY=94.6875
##MINY=0.0
##XFACTOR=1
##YFACTOR=1
##NPOINTS=685
##FIRSTY=0.0
##XYDATA=(X++(Y..Y))
4000+0+81562500000+81562500000+81562500000+81562500000+81250000000
3968+80937500000+80937500000+81250000000+81250000000+81562500000+81562500000
3937+81562500000+80937500000+80312500000+80000000000+79687500000+79687500000
3905+79375000000+79375000000+79375000000+79375000000+79375000000+78750000000
3874+78437500000+78437500000+78437500000+78437500000+78437500000+78437500000
3842+78750000000+78750000000+78750000000+78437500000+78437500000+78125000000
3811+78125000000+78125000000+78437500000+78437500000+78750000000+78750000000
3779+78437500000+78437500000+77812500000+77500000000+77187500000+77187500000
3747+77187500000+77187500000+77187500000+77187500000+76875000000+76875000000
3716+76875000000+76875000000+76875000000+76875000000+76875000000+76562500000
3684+76250000000+75625000000+75312500000+75312500000+75312500000+75312500000
3653+75312500000+75000000000+75000000000+75000000000+74687500000+74687500000
3621+74687500000+74375000000+73750000000+73437500000+72500000000+71875000000
3589+71250000000+70625000000+70312500000+69687500000+69062500000+68750000000
3558+68125000000+67500000000+66875000000+65937500000+65312500000+64375000000
3526+60937500000+56875000000+55000000000+55625000000+58437500000+59062500000
3495+57187500000+54375000000+47812500000+46562499999+47187500000+47500000000
3463+48437500000+49062500000+50000000000+51562500000+52500000000+53750000000
3432+54687500000+55625000000+56562500000+57187500000+56875000000+56250000000
3400+55937500000+55937500000+55937500000+56250000000+56250000000+56875000000
3368+57187500000+56562500000+40937500000+35937500000+29375000000+28437500000
3337+35000000000+38125000000+45312500000+45312500000+43750000000+46562499999
3305+45937500000+41250000000+30937500000+25312500000+15312500000+12812500000
3274+11875000000+11875000000+9687500000+7187500000+6875000000+7500000000
3242+11250000000+16562500000+20000000000+23750000000+25000000000+22187500000
3211+19062500000+15937500000+16250000000+28437500000+48437500000+59375000000
3179+64687500000+67500000000+68750000000+70625000000+72187500000+73125000000
3147+73437500000+73437500000+72812500000+72187500000+71875000000+71875000000
3116+71875000000+71875000000+71875000000+71875000000+72187500000+72500000000
3084+72500000000+72812500000+73437500000+73750000000+73750000000+74062500000
3053+74375000000+74375000000+74375000000+73125000000+72187500000+71562500000
3021+71562500000+72500000000+74062500000+75000000000+75625000000+75625000000
2989+75312500000+75312500000+75625000000+75937500000+76250000000+76875000000
2958+77187500000+77187500000+77187500000+75312500000+75000000000+75312500000
2926+77187500000+77500000000+77812500000+78125000000+78125000000+78437500000
2895+78437500000+78437500000+78437500000+78437500000+78437500000+78437500000
2863+78437500000+78437500000+78750000000+78750000000+79062500000+79062500000
2832+79062500000+79062500000+79375000000+79687500000+80000000000+80312500000
2800+80937500000+81250000000+80937500000+80312500000+78437500000+78437500000
2768+79687500000+81250000000+81562500000+81875000000+82187500000+82187500000
2737+81875000000+81875000000+82187500000+82187500000+81875000000+81562500000
2705+81562500000+82187500000+82812500000+83437500000+83437500000+83437500000
2674+83437500000+83437500000+84062500000+84375000000+84375000000+84375000000
2642+84375000000+84687500000+84375000000+83125000000+78437500000+78437500000
2611+83125000000+85000000000+85625000000+85937500000+86250000000+86562500000
2579+86875000000+86875000000+86562500000+85937500000+85625000000+86250000000
2547+87187500000+87500000000+87812500000+88125000000+88437500000+88437500000
2516+88750000000+88750000000+88437500000+88125000000+86875000000+85000000000
2484+82500000000+81250000000+83125000000+85937500000+88125000000+89062500000
2453+89375000000+89375000000+89687500000+89687500000+90000000000+90312500000
2421+90625000000+90625000000+90625000000+90937500000+90937500000+91562500000
2389+91562500000+91875000000+92187500000+92187500000+91875000000+91562500000
2358+91250000000+91250000000+90937500000+90937500000+90937500000+90937500000
2326+90937500000+90937500000+90625000000+89062500000+85000000000+76562500000
2295+74062500000+74375000000+77500000000+79062500000+80000000000+82812500000
2263+86250000000+88437500000+90312500000+90937500000+90312500000+89062500000
2232+87187500000+83125000000+65937500000+56250000000+61250000000+74687500000
2200+74375000000+70937500000+65000000000+57500000000+48437500000+28750000000
2168+18750000000+18437500000+25937500000+19375000000+9375000000+5625000000
2137+4687500000+4687500000+4687500000+4687500000+5000000000+5937500000
2105+6562500000+7187500000+8750000000+14062500000+19687500000+23750000000
2074+29062500000+33125000000+37812500000+41250000000+43437499999+7500000000
2042+8125000000+21562500000+34375000000+40312499999+41874999999+42812500000
2011+44687500000+47500000000+51250000000+53125000000+54375000000+55000000000
1979+54375000000+54062500000+54062500000+54375000000+54375000000+54375000000
1947+53750000000+53750000000+54375000000+55937500000+57812500000+58437500000
1916+58125000000+57500000000+55000000000+50625000000+45937500000+40937500000
1884+35625000000+30625000000+27187500000+27500000000+28125000000+29687500000
1853+32812500000+40000000000+44999999999+50000000000+54375000000+58437500000
1821+63437500000+66250000000+67812500000+68750000000+70000000000+70625000000
1789+70937500000+70937500000+70625000000+70000000000+68125000000+62187500000
1758+56875000000+49687499999+47187500000+48124999999+40625000000+20312500000
1726+34375000000+50312500000+55937500000+58750000000+53750000000+52187500000
1695+53437500000+58437500000+62187500000+64687500000+55937500000+53750000000
1663+28750000000+16250000000+15312500000+14687500000+26250000000+36875000000
1632+50312500000+56562500000+60000000000+62812500000+64687500000+66250000000
1600+66562500000+64687500000+54062500000+50625000000+52500000000+61250000000
1568+63125000000+63437500000+64375000000+65000000000+63125000000+57812500000
1537+51875000000+50000000000+48437500000+49062500000+52812500000+57812500000
1505+61875000000+64687500000+66562500000+68125000000+69062500000+70000000000
1474+71250000000+71875000000+72187500000+72812500000+73125000000+73750000000
1442+74375000000+74687500000+74375000000+74062500000+73750000000+73437500000
1411+73437500000+73750000000+75312500000+75625000000+76250000000+77187500000
1379+77187500000+74375000000+67500000000+68125000000+65312500000+47187500000
1347+17812500000+13437500000+22812500000+36250000000+26250000000+42187500000
1316+61250000000+65937500000+70000000000+71875000000+73437500000+74375000000
1284+75000000000+75312500000+75625000000+75937500000+76875000000+77500000000
1253+78125000000+78750000000+79062500000+77500000000+73750000000+74375000000
1221+78125000000+78750000000+79062500000+79375000000+79687500000+80000000000
1189+80000000000+80312500000+80000000000+79687500000+79062500000+75625000000
1158+63750000000+28125000000+21875000000+23437500000+45937500000+56250000000
1126+61562500000+62812500000+63125000000+60625000000+55937500000+45312500000
1095+31250000000+24375000000+22500000000+23125000000+28750000000+38749999999
1063+51562500000+55312500000+53125000000+58750000000+70625000000+74062500000
1032+77187500000+79062500000+80000000000+80937500000+81250000000+76250000000
1000+76250000000+70937500000+74687500000+80312500000+81875000000+82500000000
968+83125000000+83750000000+84062500000+84375000000+84687500000+85000000000
937+85000000000+85625000000+85625000000+85937500000+85937500000+85937500000
905+83437500000+75000000000+75000000000+78125000000+81562500000+84062500000
874+77812500000+77187500000+77812500000+79375000000+80937500000+80937500000
842+80312500000+80312500000+80937500000+83125000000+84375000000+85312500000
811+84375000000+82187500000+80625000000+80312500000+80312500000+80312500000
779+80937500000+81875000000+82812500000+83750000000+85000000000+86562500000
747+86875000000+86562500000+85937500000+85937500000+87812500000+88125000000
716+88125000000+88437500000+88750000000+89062500000+89062500000+89062500000
684+89375000000+89687500000+90000000000+90000000000+89687500000+89062500000
653+88750000000+88750000000+88750000000+88750000000+89062500000+89687500000
621+90312500000+91250000000+92500000000+93437500000+94375000000+94687500000
589+93437500000+89375000000+84375000000+84375000000+84062500000+84375000000
558+84687500000+87187500000+89687500000+90312500000+91562500000+92187500000
526+92812500000+92812500000+92812500000+93125000000+93437500000+93750000000
495+93125000000+92187500000+91562500000+90937500000+90625000000+90625000000
463+90312500000+89687500000+87812500000+84375000000+80625000000+75625000000
432+70625000000+66875000000+64687500000+63125000000+61875000000+61562500000
400+61250000000
##END=
