##TITLE=p-bromobenzonitrile
##JCAMP-DX=4.24
##DATA TYPE=INFRARED SPECTRUM
##DATE=10/06/2025
##SAMPLING PROCEDURE=ATR
##ORIGIN=SDBS
##XUNITS=1/CM
##YUNITS=TRANSMITTANCE
##RESOLUTION=5.2631578947368425
##FIRSTX=4000.0
##LASTX=400.0
##DELTAX=-5.2631578947368425
##MAXY=94.6875
##MINY=0.0
##XFACTOR=1
##YFACTOR=1
##NPOINTS=685
##FIRSTY=0.0
##XYDATA=(X++(Y..Y))
4000+0+81875000000+81875000000+82187500000+82187500000+82187500000
3968+82187500000+82187500000+82187500000+82187500000+82187500000+82187500000
3937+82187500000+82187500000+81875000000+81875000000+81562500000+81562500000
3905+81875000000+81562500000+81562500000+81562500000+81250000000+81250000000
3874+81250000000+81250000000+80937500000+80625000000+80625000000+80625000000
3842+80625000000+80625000000+80937500000+81250000000+81250000000+80625000000
3811+80312500000+79687500000+79687500000+79687500000+79687500000+79687500000
3779+79687500000+79687500000+79687500000+79375000000+79375000000+79062500000
3747+79062500000+79062500000+79375000000+79062500000+78750000000+78437500000
3716+78437500000+78437500000+78437500000+78125000000+78125000000+77812500000
3684+77500000000+77187500000+77187500000+77187500000+77187500000+76875000000
3653+76875000000+76562500000+76250000000+76250000000+76250000000+75937500000
3621+75937500000+75937500000+75937500000+75625000000+75312500000+75312500000
3589+75000000000+75000000000+75000000000+75000000000+75000000000+75000000000
3558+75000000000+74687500000+74687500000+74687500000+74687500000+74375000000
3526+74375000000+74375000000+74062500000+74062500000+74062500000+74375000000
3495+74375000000+74375000000+74062500000+74062500000+73750000000+73750000000
3463+73437500000+73437500000+73125000000+72812500000+72812500000+72500000000
3432+72187500000+72187500000+72187500000+72187500000+71875000000+71875000000
3400+71875000000+71875000000+71875000000+71875000000+71562500000+70937500000
3368+67500000000+65625000000+68125000000+69062500000+69687500000+68125000000
3337+66875000000+64687500000+64687500000+63750000000+62187500000+60312500000
3305+55312500000+50000000000+38749999999+25937500000+13750000000+8750000000
3274+7812500000+8125000000+6250000000+5000000000+4687500000+5000000000
3242+6250000000+9062500000+11875000000+15312500000+17187500000+13750000000
3211+11562500000+8750000000+9062500000+18437500000+37812500000+51875000000
3179+59687500000+63125000000+65937500000+67187500000+68750000000+69687500000
3147+70312500000+70937500000+71250000000+71562500000+71250000000+70937500000
3116+70937500000+70937500000+71250000000+71250000000+71250000000+70937500000
3084+70625000000+70625000000+70625000000+70625000000+70937500000+71250000000
3053+71250000000+71562500000+71562500000+71875000000+71875000000+72187500000
3021+72187500000+72500000000+72812500000+73125000000+73125000000+73125000000
2989+73125000000+73437500000+73437500000+73750000000+74062500000+74062500000
2958+74062500000+74062500000+74062500000+74375000000+74375000000+74375000000
2926+74687500000+74687500000+74687500000+74687500000+74687500000+74687500000
2895+74687500000+74687500000+75000000000+75312500000+75625000000+75625000000
2863+75937500000+75937500000+75937500000+75937500000+75937500000+76250000000
2832+76250000000+75937500000+75937500000+75937500000+75937500000+76250000000
2800+76562500000+77187500000+77500000000+78437500000+80000000000+84375000000
2768+57187500000+58750000000+67500000000+69687500000+71250000000+72187500000
2737+72500000000+73125000000+73125000000+73437500000+73750000000+74062500000
2705+74062500000+74375000000+74375000000+74375000000+74375000000+74687500000
2674+74687500000+75000000000+75000000000+75000000000+75000000000+75000000000
2642+75312500000+75312500000+75312500000+75312500000+75312500000+75625000000
2611+75625000000+75625000000+75625000000+75625000000+75937500000+75937500000
2579+75937500000+75937500000+75937500000+75937500000+75937500000+75937500000
2547+76250000000+76250000000+76250000000+76250000000+76250000000+76250000000
2516+76250000000+76250000000+75312500000+73125000000+73125000000+74375000000
2484+75312500000+75937500000+76250000000+76250000000+76250000000+76250000000
2453+76562500000+76562500000+76562500000+76250000000+76250000000+76875000000
2421+76875000000+76875000000+76875000000+76875000000+77187500000+77187500000
2389+77187500000+77187500000+77187500000+77187500000+77187500000+77187500000
2358+77187500000+77500000000+77500000000+77500000000+77500000000+76875000000
2326+76562500000+76875000000+76562500000+76250000000+75937500000+75937500000
2295+76562500000+76875000000+77187500000+77187500000+77500000000+77500000000
2263+77812500000+77187500000+77500000000+77500000000+78125000000+77500000000
2232+77500000000+77812500000+77812500000+78125000000+77187500000+77187500000
2200+78125000000+78750000000+78437500000+78437500000+78437500000+78750000000
2168+78125000000+78437500000+78437500000+78750000000+78750000000+76562500000
2137+76562500000+76875000000+78125000000+78437500000+78437500000+78437500000
2105+80625000000+80625000000+80625000000+80625000000+80625000000+81250000000
2074+80625000000+80625000000+80625000000+82187500000+84375000000+86562500000
2042+77812500000+56875000000+56562500000+62500000000+67187500000+69062500000
2011+71562500000+73125000000+74375000000+75312500000+75625000000+75625000000
1979+75937500000+76250000000+76562500000+76875000000+76875000000+76875000000
1947+78750000000+78750000000+78750000000+79062500000+80000000000+77187500000
1916+76562500000+77500000000+79062500000+82500000000+53437500000+42187500000
1884+44999999999+35625000000+28437500000+28437500000+29062500000+31562500000
1853+34687500000+40312499999+45625000000+50937500000+55937500000+60937500000
1821+65937500000+69375000000+71562500000+72812500000+73437500000+73437500000
1789+71250000000+66250000000+65000000000+64687500000+65625000000+58750000000
1758+53125000000+46562499999+45312500000+48750000000+57500000000+59375000000
1726+62500000000+67500000000+68437500000+69062500000+70312500000+70937500000
1695+71875000000+72500000000+73437500000+74375000000+74375000000+74375000000
1663+74062500000+74062500000+74062500000+70937500000+68750000000+73750000000
1632+74375000000+75000000000+74687500000+71875000000+72500000000+74687500000
1600+75312500000+75312500000+74375000000+73750000000+73437500000+74062500000
1568+75625000000+76250000000+76875000000+77187500000+77187500000+77500000000
1537+77812500000+77812500000+78125000000+78125000000+78125000000+78437500000
1505+78750000000+78750000000+78750000000+79062500000+79062500000+79062500000
1474+78437500000+72500000000+73125000000+76875000000+78125000000+78125000000
1442+78125000000+78437500000+78437500000+78750000000+79375000000+79375000000
1411+79687500000+80000000000+80625000000+80937500000+80625000000+80312500000
1379+80625000000+81875000000+81875000000+82187500000+82500000000+82812500000
1347+83125000000+83750000000+84062500000+82187500000+63125000000+53125000000
1316+55312500000+61250000000+66562500000+70937500000+73125000000+73750000000
1284+74687500000+75937500000+77500000000+78437500000+80000000000+81875000000
1253+78750000000+53437500000+55000000000+68750000000+72500000000+74062500000
1221+75312500000+76250000000+76875000000+77187500000+77187500000+76875000000
1189+76875000000+76875000000+77187500000+77187500000+77500000000+77500000000
1158+77812500000+78125000000+78125000000+78125000000+78437500000+78437500000
1126+78750000000+78750000000+79062500000+79375000000+79687500000+79687500000
1095+80000000000+80000000000+80312500000+80625000000+80625000000+80625000000
1063+80312500000+80312500000+80000000000+80000000000+79687500000+79687500000
1032+79687500000+79375000000+79062500000+78437500000+76875000000+72812500000
1000+69375000000+61250000000+50000000000+44375000000+46562499999+59687500000
968+72500000000+78437500000+79687500000+80937500000+83125000000+84062500000
937+84062500000+84062500000+83750000000+83437500000+82812500000+72500000000
905+72500000000+80000000000+81875000000+82187500000+82500000000+82500000000
874+82187500000+81875000000+81250000000+80625000000+80312500000+78125000000
842+76875000000+76875000000+79375000000+83125000000+84375000000+77812500000
811+83437500000+86562500000+87187500000+87500000000+87812500000+88125000000
779+88125000000+88125000000+88437500000+88437500000+89062500000+89375000000
747+89375000000+89687500000+89687500000+89375000000+87187500000+88750000000
716+89062500000+89062500000+89062500000+89062500000+89375000000+89375000000
684+89375000000+89687500000+89687500000+89687500000+89687500000+90000000000
653+90000000000+90312500000+90625000000+91250000000+91875000000+92187500000
621+92500000000+90000000000+85000000000+77187500000+67187500000+54687500000
589+54687500000+57812500000+76250000000+85937500000+87187500000+88437500000
558+89375000000+90312500000+90937500000+90937500000+91250000000+91250000000
526+91562500000+91875000000+92187500000+92187500000+92187500000+91875000000
495+91875000000+91875000000+92187500000+92500000000+92812500000+93437500000
463+94062500000+94375000000+94687500000+94375000000+94062500000+93437500000
432+92500000000+91875000000+91875000000+92187500000+92812500000+93437500000
400+94375000000
##END=
