##TITLE=p-bromophenol
##JCAMP-DX=4.24
##DATA TYPE=INFRARED SPECTRUM
##DATE=10/06/2025
##SAMPLING PROCEDURE=ATR
##ORIGIN=SDBS
##XUNITS=1/CM
##YUNITS=TRANSMITTANCE
##RESOLUTION=5.2631578947368425
##FIRSTX=4000.0
##LASTX=400.0
##DELTAX=-5.2631578947368425
##MAXY=94.6875
##MINY=0.0
##XFACTOR=1
##YFACTOR=1
##NPOINTS=685
##FIRSTY=0.0
##XYDATA=(X++(Y..Y))
4000+0+80937500000+80937500000+80937500000+80937500000+80937500000
3968+80937500000+80937500000+80937500000+80937500000+80937500000+80937500000
3937+80625000000+80625000000+80312500000+80000000000+80000000000+79687500000
3905+79687500000+80000000000+80312500000+80312500000+80312500000+80312500000
3874+80312500000+80312500000+80312500000+80312500000+80625000000+80312500000
3842+80312500000+80312500000+80312500000+80625000000+80625000000+80625000000
3811+80625000000+80625000000+80625000000+80625000000+80625000000+80625000000
3779+80625000000+80625000000+80625000000+80625000000+80937500000+80937500000
3747+80625000000+79687500000+79375000000+79062500000+79062500000+79375000000
3716+80000000000+80625000000+80937500000+80937500000+80625000000+80312500000
3684+79687500000+79062500000+78437500000+77500000000+76562500000+75312500000
3653+74062500000+72812500000+70937500000+68750000000+67187500000+65312500000
3621+62187500000+59375000000+56562500000+53750000000+51250000000+48750000000
3589+45937500000+44062500000+41562500000+39375000000+37187499999+35625000000
3558+34687500000+34062500000+33750000000+33750000000+34062500000+34375000000
3526+35312500000+35937500000+36875000000+37812500000+38749999999+40000000000
3495+40937500000+42500000000+43750000000+45312500000+46562499999+48124999999
3463+49687499999+50937500000+52187500000+53125000000+54062500000+55312500000
3432+56562500000+58125000000+59687500000+60937500000+61562500000+62500000000
3400+63125000000+63750000000+64687500000+65312500000+65625000000+63750000000
3368+63437500000+66562500000+63750000000+61250000000+64687500000+65000000000
3337+65000000000+64687500000+62812500000+61250000000+59375000000+56875000000
3305+51875000000+46250000000+34687500000+23750000000+13437500000+9375000000
3274+8750000000+9062500000+7187500000+5625000000+4687500000+5000000000
3242+7812500000+10625000000+13437500000+16250000000+17812500000+14687500000
3211+12812500000+10312500000+10625000000+19375000000+38749999999+54375000000
3179+62500000000+67500000000+70312500000+73125000000+75625000000+76562500000
3147+77812500000+78437500000+79687500000+80312500000+80312500000+79687500000
3116+79687500000+79375000000+79687500000+79687500000+79062500000+78437500000
3084+78437500000+77812500000+76875000000+76250000000+76250000000+76562500000
3053+78125000000+80625000000+80937500000+81250000000+81562500000+82187500000
3021+82500000000+82500000000+82187500000+81875000000+81875000000+81875000000
2989+82500000000+83125000000+84375000000+85312500000+85937500000+85625000000
2958+85625000000+84687500000+83750000000+83437500000+83437500000+83437500000
2926+83750000000+83750000000+83750000000+83750000000+84062500000+84375000000
2895+85625000000+86562500000+87187500000+87812500000+88125000000+88437500000
2863+88437500000+88437500000+88437500000+88750000000+88750000000+88750000000
2832+89062500000+89062500000+89062500000+89375000000+89687500000+90000000000
2800+90312500000+90312500000+90625000000+90625000000+90625000000+90625000000
2768+90937500000+90937500000+91250000000+91250000000+91250000000+91250000000
2737+91562500000+91562500000+91562500000+91875000000+91875000000+91875000000
2705+92187500000+92187500000+92187500000+92500000000+92500000000+92500000000
2674+92187500000+91875000000+91250000000+90937500000+90625000000+90937500000
2642+90937500000+91250000000+91875000000+92500000000+92812500000+93125000000
2611+93437500000+93750000000+93750000000+93750000000+94062500000+94062500000
2579+94062500000+94062500000+94375000000+94375000000+94375000000+94375000000
2547+94687500000+94687500000+94687500000+94687500000+94687500000+94687500000
2516+94687500000+94687500000+94687500000+94687500000+94687500000+94687500000
2484+94687500000+94687500000+94375000000+93437500000+90937500000+87500000000
2453+78437500000+76875000000+81250000000+87500000000+89687500000+90937500000
2421+91562500000+91875000000+92187500000+92500000000+92812500000+93125000000
2389+93125000000+93125000000+93437500000+93437500000+93750000000+93750000000
2358+93750000000+94062500000+94062500000+94062500000+94062500000+94062500000
2326+94062500000+93750000000+93750000000+93437500000+93125000000+92812500000
2295+92500000000+92187500000+92187500000+92187500000+92187500000+92500000000
2263+92500000000+92812500000+92812500000+92812500000+93125000000+93125000000
2232+93125000000+93125000000+93125000000+93437500000+93437500000+93437500000
2200+93125000000+93125000000+93125000000+92812500000+92812500000+92500000000
2168+92500000000+92187500000+92187500000+91875000000+91562500000+91250000000
2137+90937500000+90312500000+89375000000+86562500000+84062500000+84062500000
2105+85312500000+87812500000+89687500000+90937500000+91875000000+93125000000
2074+93125000000+86250000000+75625000000+78125000000+65312500000+41874999999
2042+41562500000+49687499999+64062500000+73125000000+80000000000+83437500000
2011+86250000000+87500000000+89375000000+90312500000+90312500000+90312500000
1979+90000000000+89687500000+89375000000+88750000000+87187500000+84375000000
1947+84062500000+83125000000+81250000000+77812500000+72812500000+63125000000
1916+47187500000+22187500000+16250000000+16250000000+29062500000+38125000000
1884+44062500000+34375000000+26250000000+25937500000+25937500000+26875000000
1853+28750000000+35312500000+38437500000+36875000000+28125000000+27187500000
1821+35625000000+51250000000+65000000000+73437500000+78750000000+80312500000
1789+80625000000+80937500000+81562500000+80937500000+76562500000+67187500000
1758+58750000000+48437500000+46562499999+50000000000+60312500000+59375000000
1726+61875000000+58125000000+54375000000+54687500000+56875000000+58125000000
1695+57500000000+56562500000+59687500000+69687500000+76250000000+75937500000
1663+75625000000+76875000000+80000000000+82812500000+83437500000+82812500000
1632+78125000000+75937500000+79687500000+83125000000+81875000000+80312500000
1600+77187500000+73437500000+65000000000+57812500000+46875000000+34375000000
1568+29062500000+28750000000+29062500000+33125000000+38125000000+32500000000
1537+25312500000+24062500000+25000000000+31250000000+37500000000+42500000000
1505+49375000000+55625000000+60000000000+64062500000+68125000000+70937500000
1474+68125000000+40937500000+41874999999+61875000000+67187500000+74062500000
1442+76875000000+78125000000+79062500000+80000000000+80937500000+81875000000
1411+83437500000+84375000000+83125000000+77812500000+55625000000+56250000000
1379+73750000000+78125000000+76562500000+75937500000+78125000000+81875000000
1347+84687500000+86875000000+85625000000+80312500000+48437500000+39687500000
1316+62500000000+78437500000+84375000000+86875000000+88437500000+88750000000
1284+89062500000+89375000000+89687500000+89062500000+87187500000+82500000000
1253+77187500000+70937500000+66875000000+49062500000+47812500000+69687500000
1221+83125000000+87812500000+90625000000+90937500000+90937500000+90937500000
1189+90937500000+90937500000+90937500000+91250000000+91875000000+91250000000
1158+85625000000+91875000000+92187500000+87812500000+72187500000+75000000000
1126+88125000000+90937500000+92500000000+93125000000+93750000000+94062500000
1095+94375000000+94375000000+94375000000+94375000000+94375000000+94375000000
1063+94687500000+94687500000+94687500000+94687500000+94687500000+94687500000
1032+94375000000+93750000000+93125000000+92500000000+91875000000+89375000000
1000+81562500000+60000000000+28750000000+25000000000+34375000000+50937500000
968+52500000000+40000000000+41562500000+69375000000+80312500000+84062500000
937+86250000000+89062500000+89375000000+90000000000+90000000000+90000000000
905+89375000000+89062500000+88437500000+87500000000+86875000000+85937500000
874+84687500000+82812500000+80625000000+78750000000+76562500000+73750000000
842+71562500000+71562500000+73437500000+75625000000+75000000000+72187500000
811+67812500000+56250000000+55312500000+73750000000+73437500000+70000000000
779+67187500000+64375000000+62500000000+60625000000+57812500000+56875000000
747+55625000000+55000000000+55000000000+55312500000+56250000000+58125000000
716+53750000000+55000000000+57812500000+60937500000+63437500000+64062500000
684+50625000000+31562500000+37187499999+55312500000+62500000000+66562500000
653+67187500000+68750000000+69687500000+71250000000+72812500000+74375000000
621+75625000000+77187500000+78750000000+80312500000+81562500000+82812500000
589+84062500000+85000000000+85937500000+87187500000+88125000000+89062500000
558+88437500000+83750000000+76875000000+40000000000+34687500000+65000000000
526+80937500000+85000000000+85625000000+86562500000+87500000000+88750000000
495+88750000000+89375000000+90000000000+90625000000+90625000000+90937500000
463+91250000000+91875000000+91875000000+90937500000+89687500000+87187500000
432+84062500000+80312500000+77500000000+74062500000+71250000000+69375000000
400+68750000000
##END=
