##TITLE=p-chloroanisole
##JCAMP-DX=4.24
##DATA TYPE=INFRARED SPECTRUM
##DATE=10/06/2025
##SAMPLING PROCEDURE=ATR
##ORIGIN=SDBS
##XUNITS=1/CM
##YUNITS=TRANSMITTANCE
##RESOLUTION=5.2631578947368425
##FIRSTX=4000.0
##LASTX=400.0
##DELTAX=-5.2631578947368425
##MAXY=95.0
##MINY=0.0
##XFACTOR=1
##YFACTOR=1
##NPOINTS=685
##FIRSTY=0.0
##XYDATA=(X++(Y..Y))
4000+0+94062500000+94062500000+94062500000+94062500000+94375000000
3968+94375000000+94687500000+94687500000+94687500000+94687500000+94687500000
3937+94687500000+94375000000+94375000000+94062500000+94062500000+94062500000
3905+94062500000+94062500000+94062500000+94375000000+94375000000+94687500000
3874+94687500000+94687500000+95000000000+95000000000+94687500000+94687500000
3842+94687500000+94687500000+94687500000+94375000000+94375000000+94375000000
3811+94375000000+94375000000+94375000000+94062500000+94062500000+93750000000
3779+93750000000+93750000000+93750000000+93750000000+93750000000+94062500000
3747+94375000000+94375000000+94375000000+94375000000+94062500000+94062500000
3716+94062500000+94062500000+94062500000+94062500000+94062500000+94062500000
3684+94062500000+93750000000+93750000000+93750000000+93750000000+94062500000
3653+94062500000+94062500000+93750000000+93750000000+93750000000+93750000000
3621+93750000000+93750000000+93750000000+93750000000+93750000000+93750000000
3589+93750000000+93750000000+93750000000+93750000000+93750000000+93750000000
3558+93750000000+93750000000+93750000000+93750000000+93750000000+93750000000
3526+93750000000+93750000000+93750000000+93750000000+93750000000+93437500000
3495+93437500000+93437500000+93437500000+93437500000+93125000000+93125000000
3463+92812500000+92500000000+92500000000+92187500000+91875000000+91875000000
3432+91562500000+91562500000+91250000000+91250000000+91250000000+91250000000
3400+90937500000+90625000000+89687500000+87812500000+85312500000+84375000000
3368+84375000000+84375000000+82187500000+82500000000+83750000000+83750000000
3337+83437500000+84687500000+85000000000+80625000000+70625000000+64062500000
3305+64062500000+70625000000+78437500000+75312500000+64062500000+56875000000
3274+56875000000+57812500000+54062500000+58125000000+65625000000+72500000000
3242+65312500000+65312500000+68125000000+75937500000+82500000000+84687500000
3211+86250000000+87187500000+78125000000+49375000000+48750000000+68125000000
3179+81875000000+88125000000+91250000000+92187500000+91875000000+91875000000
3147+92187500000+92812500000+93125000000+93437500000+93125000000+93125000000
3116+93125000000+93437500000+93750000000+93437500000+93437500000+93437500000
3084+93437500000+93437500000+93750000000+94062500000+93750000000+93437500000
3053+93437500000+93437500000+93437500000+93437500000+93437500000+93125000000
3021+92812500000+91562500000+90937500000+91875000000+92500000000+91250000000
2989+88437500000+87812500000+88125000000+90000000000+92187500000+93125000000
2958+92812500000+91875000000+91562500000+91562500000+92812500000+93125000000
2926+93437500000+93750000000+93750000000+93750000000+93125000000+92812500000
2895+93125000000+92812500000+91875000000+91875000000+93125000000+93125000000
2863+93437500000+93437500000+93437500000+93437500000+93437500000+93750000000
2832+93750000000+93750000000+93437500000+90000000000+89062500000+90937500000
2800+91562500000+92812500000+93750000000+94062500000+94375000000+94375000000
2768+93750000000+93437500000+93437500000+93750000000+94062500000+94375000000
2737+94687500000+94687500000+94687500000+94687500000+94687500000+94687500000
2705+94375000000+94375000000+94375000000+94375000000+94062500000+92812500000
2674+91250000000+90625000000+90625000000+89375000000+88750000000+87812500000
2642+84687500000+84687500000+89062500000+92500000000+93437500000+94062500000
2611+94375000000+94375000000+94375000000+94062500000+94062500000+93750000000
2579+93750000000+93437500000+92500000000+92500000000+93125000000+93750000000
2547+94062500000+94062500000+94062500000+93437500000+92812500000+91875000000
2516+91562500000+91250000000+91562500000+91875000000+91875000000+92187500000
2484+92187500000+91875000000+91562500000+91250000000+90625000000+90000000000
2453+88750000000+86875000000+84375000000+82812500000+82187500000+82500000000
2421+84687500000+87500000000+89062500000+90000000000+90625000000+90937500000
2389+91562500000+92187500000+92500000000+92812500000+93125000000+93437500000
2358+93750000000+93750000000+92500000000+91250000000+91250000000+92187500000
2326+92812500000+93125000000+93437500000+93750000000+93750000000+93750000000
2295+93750000000+93437500000+93125000000+92812500000+92187500000+91562500000
2263+90937500000+90625000000+90625000000+90937500000+91250000000+91562500000
2232+92187500000+92187500000+92500000000+92500000000+92812500000+93125000000
2200+93437500000+93437500000+93750000000+93750000000+93750000000+93437500000
2168+93125000000+92812500000+92500000000+92187500000+91562500000+90937500000
2137+90625000000+90312500000+90312500000+90000000000+89062500000+87812500000
2105+85937500000+83437500000+81250000000+80312500000+80000000000+79687500000
2074+77812500000+72812500000+63437500000+48750000000+33437500000+32500000000
2042+39375000000+45312500000+27500000000+33750000000+65312500000+76250000000
2011+82187500000+86875000000+89375000000+90000000000+90312500000+90312500000
1979+90000000000+89062500000+87500000000+85000000000+82187500000+78437500000
1947+75937500000+73437500000+69687500000+61250000000+49062500000+25625000000
1916+7500000000+4687500000+5000000000+11562500000+25000000000+42187500000
1884+55937500000+55312500000+38749999999+26250000000+26562500000+35625000000
1853+41874999999+48750000000+40625000000+36250000000+39375000000+50937500000
1821+60312500000+68750000000+74687500000+78437500000+81562500000+78437500000
1789+74375000000+79687500000+85625000000+88125000000+89375000000+90312500000
1758+90937500000+91562500000+91875000000+91875000000+92187500000+92187500000
1726+92187500000+91875000000+91562500000+91250000000+90312500000+89375000000
1695+88750000000+88437500000+88125000000+87500000000+86250000000+84375000000
1663+80937500000+76562500000+70625000000+60312500000+40625000000+26562500000
1632+19062500000+18750000000+19375000000+24062500000+32187500000+40625000000
1600+50000000000+48750000000+47187500000+40000000000+18750000000+8125000000
1568+6875000000+6875000000+8125000000+14375000000+31562500000+47187500000
1537+56875000000+67812500000+75000000000+79062500000+81562500000+83437500000
1505+84375000000+85312500000+84375000000+78750000000+56250000000+29062500000
1474+29062500000+47187500000+20937500000+19687500000+39062500000+68437500000
1442+78437500000+80625000000+81250000000+85625000000+88125000000+88437500000
1411+88125000000+87500000000+85312500000+79375000000+73125000000+72812500000
1379+73437500000+55312500000+41250000000+44999999999+17187500000+13750000000
1347+21562500000+56562500000+75000000000+82187500000+85312500000+85312500000
1316+85937500000+86562500000+86250000000+82500000000+75000000000+54687500000
1284+26875000000+15000000000+14375000000+15312500000+24375000000+39062500000
1253+52187500000+62812500000+70937500000+40937500000+41250000000+53437500000
1221+69687500000+76875000000+81250000000+85000000000+88437500000+90625000000
1189+91562500000+92187500000+92500000000+92187500000+91562500000+90312500000
1158+89375000000+89375000000+90000000000+90000000000+90625000000+90000000000
1126+89687500000+89687500000+90312500000+91875000000+92812500000+93437500000
1095+93750000000+94062500000+93750000000+93750000000+93125000000+92500000000
1063+92187500000+91562500000+91562500000+91250000000+90937500000+90312500000
1032+89375000000+87500000000+85625000000+82500000000+77500000000+68437500000
1000+51250000000+27500000000+12812500000+9375000000+9375000000+13437500000
968+34062500000+54375000000+56250000000+54687500000+52812500000+53125000000
937+68437500000+81562500000+86875000000+89687500000+90937500000+92187500000
905+93125000000+93750000000+94062500000+94062500000+94375000000+94375000000
874+94687500000+94687500000+95000000000+94687500000+94687500000+94687500000
842+94687500000+94375000000+94687500000+94687500000+94375000000+92500000000
811+85312500000+85312500000+91562500000+93437500000+94062500000+94375000000
779+94062500000+93750000000+93125000000+92500000000+91562500000+90000000000
747+87812500000+83125000000+69375000000+35312500000+13437500000+14375000000
716+45937500000+24375000000+19687500000+46250000000+74062500000+84687500000
684+88437500000+90937500000+92187500000+93125000000+93437500000+94062500000
653+94375000000+94375000000+94375000000+94375000000+94375000000+94062500000
621+94062500000+94062500000+93750000000+93437500000+93125000000+92500000000
589+91562500000+90625000000+89062500000+86250000000+80937500000+74375000000
558+60937500000+45312500000+39062500000+39375000000+47187500000+61875000000
526+71250000000+77500000000+81875000000+85625000000+88750000000+90312500000
495+91562500000+92500000000+93125000000+93437500000+93437500000+93750000000
463+93750000000+93437500000+93125000000+92500000000+91875000000+90937500000
432+90000000000+89375000000+89375000000+89062500000+89062500000+89062500000
400+89375000000
##END=
