##TITLE=p-dimethoxybenzene
##JCAMP-DX=4.24
##DATA TYPE=INFRARED SPECTRUM
##DATE=10/06/2025
##SAMPLING PROCEDURE=ATR
##ORIGIN=SDBS
##XUNITS=1/CM
##YUNITS=TRANSMITTANCE
##RESOLUTION=5.2631578947368425
##FIRSTX=4000.0
##LASTX=400.0
##DELTAX=-5.2631578947368425
##MAXY=94.6875
##MINY=0.0
##XFACTOR=1
##YFACTOR=1
##NPOINTS=685
##FIRSTY=0.0
##XYDATA=(X++(Y..Y))
4000+0+94375000000+94375000000+94062500000+94062500000+94062500000
3968+94062500000+94062500000+94375000000+94375000000+94375000000+94375000000
3937+94375000000+94375000000+94375000000+94375000000+94062500000+94062500000
3905+94062500000+94062500000+94062500000+94062500000+94062500000+94062500000
3874+94062500000+94062500000+93750000000+93750000000+93750000000+93750000000
3842+93750000000+93750000000+93750000000+93750000000+93750000000+93750000000
3811+93750000000+93437500000+93437500000+93437500000+93437500000+93437500000
3779+93437500000+93125000000+93125000000+93125000000+92812500000+92812500000
3747+92812500000+92812500000+92812500000+92812500000+92500000000+92500000000
3716+92500000000+92500000000+92500000000+92500000000+92500000000+92500000000
3684+92500000000+92500000000+92500000000+92500000000+92500000000+92500000000
3653+92500000000+92187500000+92187500000+92187500000+92187500000+92187500000
3621+92187500000+92187500000+92187500000+92500000000+92187500000+92187500000
3589+92187500000+92187500000+92187500000+92187500000+92187500000+91875000000
3558+91875000000+91875000000+91875000000+91875000000+92187500000+92187500000
3526+92187500000+92187500000+92187500000+91875000000+91875000000+91875000000
3495+91875000000+91875000000+91875000000+91875000000+91875000000+92187500000
3463+92187500000+92187500000+92187500000+92187500000+91875000000+91875000000
3432+91875000000+92187500000+92187500000+92187500000+92187500000+92187500000
3400+91875000000+91875000000+91875000000+90312500000+89375000000+90625000000
3368+91875000000+91562500000+88437500000+87500000000+90000000000+89687500000
3337+88750000000+90000000000+90625000000+88437500000+81250000000+85937500000
3305+88125000000+89375000000+89687500000+88437500000+84375000000+73125000000
3274+58437500000+64062500000+74375000000+76250000000+81875000000+76562500000
3242+76250000000+79062500000+84062500000+88125000000+89687500000+90312500000
3211+90937500000+90625000000+87500000000+65937500000+65312500000+85000000000
3179+90937500000+91875000000+92187500000+92812500000+93125000000+93125000000
3147+93125000000+93125000000+93437500000+93437500000+93437500000+93437500000
3116+93750000000+93750000000+93750000000+93750000000+93750000000+93750000000
3084+93750000000+93750000000+93750000000+93750000000+93750000000+93750000000
3053+93437500000+93437500000+93437500000+93437500000+93437500000+93437500000
3021+93437500000+93750000000+93750000000+93437500000+93437500000+93437500000
2989+93750000000+93750000000+94062500000+94062500000+94062500000+93750000000
2958+93125000000+92187500000+91875000000+92187500000+92812500000+93437500000
2926+94062500000+94375000000+94375000000+94375000000+94375000000+94062500000
2895+94062500000+94062500000+94062500000+94375000000+94375000000+94375000000
2863+94375000000+94375000000+94375000000+94375000000+94375000000+94375000000
2832+94062500000+94062500000+94062500000+94062500000+94062500000+94062500000
2800+94062500000+94375000000+94375000000+94375000000+94375000000+94375000000
2768+94375000000+94375000000+94375000000+94375000000+94375000000+94375000000
2737+94375000000+94375000000+94375000000+94375000000+94375000000+94375000000
2705+94375000000+94375000000+94375000000+94062500000+94062500000+94062500000
2674+94062500000+94062500000+93750000000+91562500000+89062500000+89687500000
2642+91562500000+92812500000+93437500000+94062500000+94062500000+94062500000
2611+94375000000+94375000000+94375000000+94062500000+93437500000+93125000000
2579+92187500000+89687500000+89375000000+90000000000+91562500000+93125000000
2547+93750000000+94062500000+94062500000+94062500000+94062500000+94062500000
2516+94062500000+94062500000+94062500000+94062500000+94062500000+94062500000
2484+94062500000+94062500000+94062500000+93750000000+93750000000+93437500000
2453+93437500000+93437500000+93437500000+92500000000+87812500000+84375000000
2421+88125000000+91875000000+92812500000+93437500000+93750000000+94062500000
2389+94062500000+94062500000+94062500000+94062500000+94062500000+94062500000
2358+94062500000+94375000000+94375000000+94375000000+94375000000+94375000000
2326+94375000000+94375000000+94375000000+94375000000+94375000000+94375000000
2295+94375000000+94062500000+94062500000+94062500000+94062500000+94062500000
2263+94062500000+94062500000+94062500000+94062500000+94062500000+94062500000
2232+94062500000+94062500000+94062500000+94062500000+94062500000+94062500000
2200+94062500000+94062500000+94062500000+94062500000+94062500000+94062500000
2168+94062500000+94062500000+94062500000+94062500000+94062500000+94062500000
2137+93750000000+93750000000+93125000000+91875000000+90000000000+88750000000
2105+88750000000+90000000000+91875000000+92812500000+93125000000+93437500000
2074+93750000000+93750000000+93750000000+93750000000+93750000000+93750000000
2042+93750000000+93437500000+93437500000+93125000000+93125000000+92812500000
2011+92812500000+92187500000+91875000000+91562500000+90937500000+90000000000
1979+88125000000+86562500000+85625000000+80625000000+78437500000+69687500000
1947+45625000000+19062500000+11875000000+4687500000+9375000000+33437500000
1916+55312500000+69375000000+78750000000+83750000000+85937500000+84687500000
1884+73750000000+59687500000+60312500000+68750000000+76250000000+77500000000
1853+75000000000+79375000000+76250000000+46250000000+46875000000+80625000000
1821+87812500000+90312500000+90625000000+91250000000+92187500000+92812500000
1789+92812500000+93125000000+93437500000+93437500000+93750000000+93750000000
1758+93750000000+94062500000+94062500000+94062500000+94062500000+94062500000
1726+93750000000+93437500000+93437500000+93125000000+92812500000+92812500000
1695+92812500000+92500000000+92500000000+92500000000+92187500000+92187500000
1663+91562500000+90312500000+88125000000+81875000000+58125000000+45625000000
1632+52500000000+73437500000+82812500000+86562500000+88437500000+87500000000
1600+82187500000+65937500000+62187500000+67500000000+73750000000+63437500000
1568+38125000000+18437500000+15312500000+14375000000+15625000000+21562500000
1537+24062500000+32500000000+48750000000+59687500000+67812500000+75625000000
1505+80937500000+84375000000+86250000000+86875000000+83125000000+73750000000
1474+60312500000+59375000000+81250000000+88125000000+90000000000+91250000000
1442+89062500000+86875000000+89375000000+91875000000+92187500000+91562500000
1411+89062500000+89062500000+89687500000+89375000000+76562500000+65937500000
1379+66250000000+75625000000+87500000000+90937500000+92500000000+93125000000
1347+93437500000+93437500000+93437500000+93437500000+93125000000+92500000000
1316+91562500000+90000000000+87500000000+80000000000+65625000000+27187500000
1284+7812500000+12812500000+44375000000+63750000000+75625000000+81875000000
1253+85625000000+87500000000+89375000000+90000000000+84687500000+86875000000
1221+91875000000+92812500000+93125000000+93437500000+93750000000+93750000000
1189+94062500000+94062500000+94375000000+94687500000+94687500000+94687500000
1158+94687500000+91250000000+87812500000+89687500000+94062500000+94375000000
1126+94687500000+94687500000+94687500000+94687500000+94375000000+94375000000
1095+94375000000+94375000000+94375000000+94375000000+94062500000+94062500000
1063+94062500000+94062500000+94062500000+94062500000+94062500000+94062500000
1032+93750000000+93437500000+92812500000+92187500000+90625000000+87812500000
1000+81562500000+55937500000+9687500000+10312500000+57812500000+74375000000
968+87187500000+90625000000+91875000000+92500000000+92812500000+93125000000
937+93125000000+93437500000+93437500000+93750000000+93750000000+94062500000
905+94062500000+94062500000+94062500000+94062500000+94062500000+94062500000
874+94375000000+94375000000+94062500000+94062500000+93750000000+92500000000
842+89062500000+87187500000+65000000000+30312500000+52812500000+81250000000
811+90625000000+92500000000+93437500000+94062500000+94062500000+94375000000
779+94375000000+94375000000+94375000000+94375000000+94375000000+94375000000
747+94375000000+94375000000+94375000000+94375000000+94375000000+94375000000
716+94375000000+94375000000+94375000000+94375000000+94375000000+94375000000
684+94375000000+94375000000+94375000000+94375000000+94375000000+94375000000
653+94062500000+94062500000+94062500000+93750000000+93750000000+93750000000
621+93750000000+93750000000+93750000000+93437500000+93125000000+92187500000
589+90937500000+86875000000+78437500000+78437500000+82812500000+87187500000
558+89062500000+90625000000+91875000000+92500000000+93125000000+93437500000
526+93125000000+92812500000+92500000000+92187500000+91875000000+91875000000
495+91562500000+91562500000+91562500000+91562500000+91562500000+91875000000
463+91875000000+92187500000+92500000000+92812500000+93437500000+93750000000
432+94375000000+94062500000+93750000000+93437500000+92812500000+92187500000
400+92187500000
##END=
