##TITLE=p-ethoxyphenyl p-(pentyloxycarbonyloxy)benzoate
##JCAMP-DX=4.24
##DATA TYPE=INFRARED SPECTRUM
##DATE=10/06/2025
##SAMPLING PROCEDURE=ATR
##ORIGIN=SDBS
##XUNITS=1/CM
##YUNITS=TRANSMITTANCE
##RESOLUTION=5.2631578947368425
##FIRSTX=4000.0
##LASTX=400.0
##DELTAX=-5.2631578947368425
##MAXY=94.6875
##MINY=0.0
##XFACTOR=1
##YFACTOR=1
##NPOINTS=685
##FIRSTY=0.0
##XYDATA=(X++(Y..Y))
4000+0+92187500000+92187500000+92187500000+92187500000+91875000000
3968+91875000000+91562500000+91562500000+91562500000+91562500000+91562500000
3937+91562500000+91562500000+91250000000+90937500000+90937500000+90937500000
3905+91250000000+91562500000+91562500000+91250000000+90937500000+90625000000
3874+90625000000+90625000000+90625000000+90937500000+90937500000+90625000000
3842+90312500000+90000000000+90000000000+90000000000+90312500000+90000000000
3811+90000000000+90000000000+90000000000+89687500000+89375000000+89375000000
3779+89375000000+89375000000+89375000000+89375000000+89375000000+89375000000
3747+89062500000+88750000000+88437500000+88437500000+88437500000+88750000000
3716+88750000000+88750000000+88437500000+88125000000+88125000000+88125000000
3684+87812500000+87187500000+86875000000+86250000000+85625000000+85312500000
3653+85312500000+85312500000+85625000000+85625000000+85312500000+85000000000
3621+85000000000+85000000000+85312500000+85312500000+85000000000+84687500000
3589+84375000000+84375000000+84375000000+84687500000+85000000000+85625000000
3558+85937500000+85937500000+85937500000+85937500000+85937500000+86250000000
3526+86250000000+85937500000+85937500000+85937500000+85937500000+85625000000
3495+85625000000+85937500000+85937500000+85625000000+85625000000+85312500000
3463+85000000000+85000000000+85000000000+84687500000+84375000000+84375000000
3432+84062500000+84062500000+84062500000+83750000000+83750000000+83750000000
3400+83750000000+83437500000+82187500000+80625000000+80625000000+81562500000
3368+80625000000+78437500000+76875000000+74062500000+72812500000+75000000000
3337+78125000000+79062500000+77812500000+75625000000+73125000000+68750000000
3305+62812500000+53125000000+45312500000+24687500000+15000000000+11562500000
3274+11562500000+11562500000+8125000000+5625000000+5312500000+6875000000
3242+13125000000+18125000000+23125000000+29375000000+28750000000+25000000000
3211+20625000000+19375000000+20937500000+36562500000+58437500000+71250000000
3179+77500000000+80625000000+82187500000+83750000000+85625000000+86562500000
3147+87187500000+87500000000+87500000000+87187500000+86875000000+86562500000
3116+86562500000+86562500000+87187500000+87500000000+87812500000+87500000000
3084+87500000000+87500000000+87500000000+87812500000+88125000000+88437500000
3053+88437500000+88125000000+87812500000+87812500000+87812500000+88125000000
3021+88437500000+88750000000+89062500000+89687500000+90000000000+90312500000
2989+90312500000+90312500000+90312500000+90312500000+90312500000+90312500000
2958+90312500000+90000000000+90000000000+90000000000+90312500000+90312500000
2926+90312500000+90000000000+90000000000+90000000000+90000000000+90000000000
2895+90312500000+90625000000+90937500000+90937500000+90937500000+90937500000
2863+90937500000+90937500000+90937500000+90937500000+90937500000+90937500000
2832+90937500000+90937500000+90937500000+90937500000+90625000000+90625000000
2800+90625000000+90937500000+91250000000+91250000000+91250000000+91250000000
2768+91562500000+91875000000+92187500000+92500000000+92812500000+92812500000
2737+93125000000+93125000000+92500000000+92187500000+92187500000+92187500000
2705+92500000000+92500000000+92500000000+92812500000+92812500000+93125000000
2674+93125000000+92812500000+92187500000+91875000000+91875000000+91875000000
2642+91875000000+91875000000+91875000000+91562500000+91562500000+91562500000
2611+91875000000+91875000000+92187500000+92500000000+92812500000+92812500000
2579+92812500000+92812500000+92500000000+92500000000+92500000000+92500000000
2547+92812500000+92812500000+92500000000+91875000000+91562500000+91250000000
2516+90937500000+90937500000+90937500000+91562500000+92187500000+93125000000
2484+93437500000+93750000000+93750000000+94062500000+94062500000+94375000000
2453+94375000000+94687500000+94687500000+94687500000+94375000000+93750000000
2421+93437500000+92812500000+92500000000+92187500000+92187500000+92187500000
2389+92187500000+92187500000+92187500000+92187500000+91875000000+91875000000
2358+91250000000+90312500000+89375000000+88125000000+86875000000+85625000000
2326+83750000000+80937500000+77500000000+71562500000+61250000000+43750000000
2295+25937500000+12187500000+6562500000+5625000000+7812500000+15000000000
2263+25937500000+20000000000+12500000000+11250000000+11875000000+15000000000
2232+28125000000+46250000000+58750000000+64375000000+68437500000+72812500000
2200+74375000000+76562500000+77500000000+77500000000+80312500000+83437500000
2168+85312500000+85937500000+86875000000+88125000000+88750000000+89375000000
2137+89687500000+90000000000+90312500000+90312500000+90625000000+90937500000
2105+90937500000+90625000000+90000000000+88125000000+85000000000+75000000000
2074+52812500000+45937500000+46875000000+55000000000+70000000000+73437500000
2042+79375000000+83750000000+86875000000+89062500000+90312500000+90937500000
2011+90937500000+90937500000+90937500000+90625000000+90625000000+90312500000
1979+89687500000+88750000000+87187500000+85937500000+83125000000+75937500000
1947+59375000000+26250000000+11875000000+11562500000+21875000000+34062500000
1916+55937500000+66875000000+75312500000+70000000000+28750000000+24062500000
1884+46250000000+41250000000+34375000000+35312500000+39062500000+39375000000
1853+42187500000+52500000000+56875000000+56562500000+64687500000+70312500000
1821+77187500000+82187500000+80625000000+73125000000+64375000000+67187500000
1789+77812500000+74062500000+60000000000+37187499999+32812500000+36562500000
1758+45937500000+50000000000+50312500000+55625000000+69062500000+72187500000
1726+75625000000+78125000000+77812500000+76875000000+75937500000+74687500000
1695+73125000000+71562500000+69062500000+65000000000+56250000000+47187500000
1663+48750000000+53750000000+48437500000+39375000000+33125000000+32500000000
1632+29062500000+24062500000+17812500000+12500000000+7812500000+5625000000
1600+5000000000+5000000000+5312500000+5625000000+5937500000+6250000000
1568+6562500000+9375000000+12500000000+13750000000+13750000000+14375000000
1537+8437500000+6875000000+6875000000+9687500000+14687500000+14375000000
1505+7812500000+5312500000+4687500000+5000000000+7187500000+10937500000
1474+17812500000+26250000000+35625000000+12187500000+8750000000+11250000000
1442+20937500000+30000000000+36250000000+42187500000+47187500000+50625000000
1411+54375000000+57187500000+58750000000+54687500000+35937500000+33437500000
1379+44999999999+50312500000+52500000000+62812500000+64062500000+59687500000
1347+41874999999+21250000000+13750000000+12812500000+13750000000+23750000000
1316+34062500000+38749999999+42187500000+46562499999+41250000000+35937500000
1284+39687500000+55625000000+63125000000+66562500000+64375000000+58437500000
1253+33750000000+30312500000+36875000000+46875000000+57812500000+62500000000
1221+67500000000+70000000000+72500000000+71875000000+63437500000+55312500000
1189+40625000000+38749999999+42812500000+53125000000+62187500000+66875000000
1158+69375000000+70937500000+73750000000+75000000000+76250000000+75000000000
1126+66875000000+61562500000+61562500000+70937500000+73437500000+75000000000
1095+73125000000+69375000000+69375000000+69375000000+70625000000+74375000000
1063+70937500000+52500000000+36250000000+37812500000+59062500000+60937500000
1032+61250000000+72812500000+77187500000+78437500000+79375000000+80000000000
1000+77500000000+65000000000+65937500000+79375000000+77812500000+75937500000
968+77812500000+82812500000+80625000000+61562500000+61875000000+79375000000
937+78750000000+71250000000+69062500000+66875000000+65000000000+63437500000
905+56875000000+49062500000+51562500000+70625000000+75000000000+71875000000
874+71875000000+75937500000+77500000000+78437500000+74062500000+68437500000
842+67812500000+68125000000+73750000000+81562500000+84375000000+82812500000
811+87187500000+88125000000+86250000000+81250000000+69062500000+71250000000
779+86250000000+90625000000+91250000000+92187500000+90937500000+83125000000
747+83437500000+91562500000+92500000000+92500000000+92187500000+92187500000
716+91250000000+86562500000+90312500000+90312500000+90312500000+92187500000
684+93125000000+93125000000+93750000000+94062500000+94062500000+93750000000
653+92812500000+90312500000+80625000000+70000000000+71250000000+84062500000
621+89375000000+91562500000+92500000000+93750000000+94375000000+94687500000
589+94062500000+92812500000+89062500000+79687500000+66875000000+68437500000
558+74062500000+78437500000+80937500000+81250000000+82187500000+84062500000
526+84687500000+85312500000+85625000000+85937500000+85937500000+85937500000
495+85937500000+85937500000+86250000000+86250000000+86562500000+86562500000
463+86250000000+85937500000+85625000000+84375000000+83125000000+80625000000
432+77187500000+73125000000+69687500000+65625000000+62187500000+59687500000
400+58437500000
##END=
