##TITLE=p-nitroanisole
##JCAMP-DX=4.24
##DATA TYPE=INFRARED SPECTRUM
##DATE=10/06/2025
##SAMPLING PROCEDURE=ATR
##ORIGIN=SDBS
##XUNITS=1/CM
##YUNITS=TRANSMITTANCE
##RESOLUTION=5.2631578947368425
##FIRSTX=4000.0
##LASTX=400.0
##DELTAX=-5.2631578947368425
##MAXY=94.6875
##MINY=0.0
##XFACTOR=1
##YFACTOR=1
##NPOINTS=685
##FIRSTY=0.0
##XYDATA=(X++(Y..Y))
4000+0+79375000000+79062500000+79062500000+78750000000+78750000000
3968+78750000000+79062500000+79062500000+78437500000+78437500000+78125000000
3937+78125000000+77812500000+77500000000+77500000000+77500000000+77500000000
3905+77812500000+77500000000+76875000000+76875000000+76875000000+76875000000
3874+76875000000+76562500000+76562500000+76562500000+76250000000+76250000000
3842+75937500000+75625000000+75625000000+75625000000+75937500000+75937500000
3811+75937500000+75625000000+75312500000+75000000000+75000000000+75000000000
3779+75000000000+75312500000+75000000000+74687500000+74375000000+74375000000
3747+74062500000+74375000000+74062500000+73750000000+73750000000+73750000000
3716+73750000000+73750000000+73437500000+73437500000+73125000000+72812500000
3684+72812500000+72812500000+72812500000+72500000000+72500000000+72187500000
3653+72187500000+72187500000+72187500000+72187500000+71875000000+71562500000
3621+71250000000+71250000000+70937500000+70937500000+70937500000+70937500000
3589+70625000000+70625000000+70312500000+70312500000+70312500000+70312500000
3558+70312500000+70312500000+70312500000+70312500000+70312500000+70312500000
3526+70312500000+70312500000+70000000000+70000000000+70000000000+70000000000
3495+70312500000+70312500000+70000000000+70000000000+70000000000+70000000000
3463+70000000000+69375000000+69062500000+68437500000+68437500000+68125000000
3432+68125000000+68125000000+68125000000+68125000000+68125000000+67812500000
3400+66875000000+64062500000+54062500000+53750000000+61875000000+63750000000
3368+62812500000+57812500000+59062500000+61250000000+57500000000+58125000000
3337+61250000000+60000000000+58125000000+58125000000+58125000000+55312500000
3305+52500000000+46875000000+36562500000+29062500000+20625000000+16250000000
3274+14375000000+14062500000+11250000000+7812500000+7812500000+8437500000
3242+13125000000+17812500000+22500000000+27812500000+29687500000+26562500000
3211+22500000000+17812500000+18125000000+27812500000+44999999999+55312500000
3179+63750000000+68125000000+70000000000+70625000000+71562500000+73437500000
3147+74375000000+73750000000+73437500000+74375000000+74687500000+75000000000
3116+75000000000+75000000000+75000000000+75000000000+74687500000+74062500000
3084+72187500000+70937500000+70937500000+72500000000+74062500000+74375000000
3053+75000000000+75312500000+75312500000+73750000000+72500000000+72187500000
3021+73125000000+74375000000+75625000000+75937500000+76250000000+77187500000
2989+77500000000+76875000000+76250000000+75625000000+75625000000+75625000000
2958+76250000000+77187500000+78125000000+78750000000+79062500000+77812500000
2926+75937500000+71250000000+71250000000+73750000000+76250000000+77500000000
2895+78125000000+78750000000+79062500000+78750000000+78750000000+78750000000
2863+78750000000+79062500000+79375000000+79687500000+80000000000+80312500000
2832+80625000000+80625000000+80000000000+79687500000+79375000000+79375000000
2800+80312500000+80625000000+80937500000+81250000000+81250000000+80937500000
2768+80937500000+80937500000+80937500000+80937500000+81250000000+81562500000
2737+82187500000+82500000000+82500000000+83125000000+83437500000+83437500000
2705+82812500000+82500000000+82500000000+82500000000+83125000000+83750000000
2674+84062500000+84375000000+85000000000+84687500000+83125000000+80312500000
2642+80000000000+80000000000+80937500000+83125000000+84062500000+85000000000
2611+85625000000+85937500000+86250000000+85937500000+85937500000+85625000000
2579+85312500000+85000000000+85000000000+85000000000+85312500000+85625000000
2547+85937500000+86250000000+86250000000+86250000000+85000000000+82187500000
2516+81562500000+84687500000+86250000000+85937500000+85937500000+86250000000
2484+86562500000+86250000000+84687500000+81562500000+81250000000+84375000000
2453+85625000000+86250000000+87187500000+87500000000+87812500000+88437500000
2421+88750000000+89062500000+89375000000+89375000000+89687500000+90312500000
2389+90312500000+90312500000+90312500000+90000000000+90000000000+89687500000
2358+89687500000+90000000000+89687500000+89687500000+89687500000+89375000000
2326+89687500000+89375000000+90312500000+90312500000+88437500000+86250000000
2295+86875000000+89687500000+90937500000+91250000000+91250000000+91250000000
2263+90937500000+90937500000+91250000000+91562500000+91875000000+92187500000
2232+92812500000+93437500000+93750000000+94062500000+94062500000+93750000000
2200+93750000000+93437500000+93437500000+93437500000+93437500000+93437500000
2168+93750000000+94062500000+94062500000+93125000000+91562500000+88437500000
2137+86875000000+87187500000+90000000000+91250000000+91562500000+91875000000
2105+90937500000+86250000000+76875000000+68125000000+64375000000+52500000000
2074+32187500000+20625000000+22187500000+30937500000+15312500000+8437500000
2042+8750000000+10937500000+20625000000+30000000000+43437499999+52187500000
2011+60937500000+65625000000+69062500000+71250000000+72187500000+70312500000
1979+66875000000+63437500000+59375000000+54375000000+50625000000+45625000000
1947+40312499999+31250000000+21562500000+12500000000+6875000000+4687500000
1916+4687500000+5625000000+9687500000+17187500000+26562500000+31875000000
1884+32812500000+27187500000+21875000000+20000000000+19375000000+20312500000
1853+25000000000+36875000000+43750000000+28750000000+28750000000+48437500000
1821+60312500000+60000000000+56250000000+61562500000+69687500000+73125000000
1789+74062500000+73750000000+71562500000+69062500000+66250000000+56875000000
1758+54375000000+50000000000+48124999999+49062500000+45625000000+40312499999
1726+35000000000+28125000000+20937500000+16562500000+12187500000+9687500000
1695+7812500000+5312500000+4687500000+5625000000+9062500000+15000000000
1663+21250000000+26562500000+31250000000+35937500000+31875000000+31250000000
1632+46562499999+58437500000+62812500000+50625000000+30625000000+17187500000
1600+11562500000+6562500000+6250000000+7500000000+10312500000+12500000000
1568+13125000000+17812500000+21875000000+26562500000+30312500000+34687500000
1537+37500000000+41250000000+45312500000+47812500000+49375000000+52187500000
1505+55937500000+54687500000+52187500000+52500000000+53125000000+32500000000
1474+30937500000+21875000000+21875000000+35000000000+44062500000+51875000000
1442+56250000000+58437500000+58437500000+61875000000+64687500000+66562500000
1411+70000000000+72500000000+68750000000+47812500000+36562500000+16562500000
1379+15312500000+15625000000+16562500000+24687500000+35937500000+42812500000
1347+46562499999+51875000000+54687500000+56250000000+57500000000+58750000000
1316+60625000000+62187500000+63750000000+65937500000+67812500000+69062500000
1284+71250000000+71875000000+69375000000+58437500000+21250000000+11875000000
1253+12187500000+20625000000+32187500000+38749999999+40937500000+45937500000
1221+51562500000+56562500000+58750000000+60000000000+61562500000+62812500000
1189+64375000000+63750000000+59375000000+63437500000+65937500000+67500000000
1158+67812500000+68125000000+68437500000+68750000000+69375000000+69687500000
1126+70000000000+70312500000+70625000000+71250000000+71875000000+72187500000
1095+72500000000+73125000000+73125000000+73437500000+73437500000+73437500000
1063+73437500000+73437500000+72812500000+70937500000+60937500000+24375000000
1032+28750000000+38749999999+24687500000+20000000000+22187500000+46875000000
1000+64687500000+70000000000+73125000000+75312500000+75937500000+76562500000
968+76875000000+69062500000+68750000000+75937500000+78125000000+78437500000
937+72812500000+63750000000+74687500000+77187500000+78750000000+79375000000
905+78437500000+75625000000+70312500000+57187500000+25312500000+25000000000
874+55625000000+73750000000+79062500000+80000000000+79375000000+78750000000
842+78750000000+78750000000+80937500000+82187500000+82500000000+81875000000
811+77812500000+67500000000+52187500000+55000000000+72187500000+81562500000
779+83750000000+84687500000+85000000000+85312500000+85625000000+85625000000
747+85625000000+85312500000+84375000000+83750000000+77187500000+34062500000
716+30937500000+62812500000+71562500000+33437500000+28437500000+44687500000
684+65625000000+75000000000+78125000000+80625000000+81250000000+81562500000
653+81875000000+82187500000+82187500000+82187500000+82812500000+83437500000
621+83750000000+84687500000+85625000000+86250000000+86562500000+85625000000
589+83125000000+74375000000+70312500000+78125000000+82812500000+84062500000
558+84687500000+84062500000+80937500000+78437500000+76875000000+75625000000
526+74375000000+74375000000+74375000000+75000000000+76562500000+78125000000
495+80000000000+82187500000+84375000000+85937500000+87812500000+89375000000
463+91250000000+92500000000+94062500000+94687500000+94062500000+92187500000
432+89062500000+85000000000+81562500000+77187500000+73437500000+71250000000
400+70312500000
##END=
