##TITLE=p-phenylphenacyl 2,2-dimethylcyclopropanecarboxylate
##JCAMP-DX=4.24
##DATA TYPE=INFRARED SPECTRUM
##DATE=10/06/2025
##SAMPLING PROCEDURE=ATR
##ORIGIN=SDBS
##XUNITS=1/CM
##YUNITS=TRANSMITTANCE
##RESOLUTION=5.2631578947368425
##FIRSTX=4000.0
##LASTX=400.0
##DELTAX=-5.2631578947368425
##MAXY=95.0
##MINY=0.0
##XFACTOR=1
##YFACTOR=1
##NPOINTS=685
##FIRSTY=0.0
##XYDATA=(X++(Y..Y))
4000+0+84687500000+84687500000+84687500000+84687500000+84687500000
3968+85000000000+85000000000+85000000000+85000000000+85312500000+85625000000
3937+85625000000+85312500000+85000000000+85000000000+85000000000+85000000000
3905+85000000000+85000000000+85312500000+85625000000+85625000000+85625000000
3874+85625000000+85625000000+85937500000+85937500000+86562500000+86875000000
3842+86875000000+86875000000+86875000000+86875000000+86875000000+86875000000
3811+86875000000+87187500000+87187500000+87500000000+87500000000+87500000000
3779+87500000000+87500000000+87500000000+87187500000+87187500000+87187500000
3747+87187500000+87187500000+87187500000+87187500000+87500000000+87500000000
3716+87500000000+87500000000+87812500000+87812500000+88125000000+88125000000
3684+87812500000+87500000000+87500000000+87500000000+87187500000+87187500000
3653+86875000000+86875000000+86875000000+86875000000+87187500000+87187500000
3621+87187500000+87187500000+86875000000+86562500000+86250000000+86250000000
3589+86250000000+86250000000+85625000000+85312500000+85000000000+85000000000
3558+85000000000+85625000000+85937500000+85937500000+85937500000+85937500000
3526+85625000000+85625000000+85625000000+85625000000+85625000000+85625000000
3495+85312500000+85312500000+85000000000+85000000000+84687500000+84687500000
3463+84375000000+84062500000+83750000000+83750000000+83750000000+83750000000
3432+84062500000+84062500000+84375000000+84375000000+83437500000+83125000000
3400+85000000000+84687500000+85000000000+83437500000+83750000000+84687500000
3368+82187500000+81250000000+80625000000+80937500000+78750000000+78437500000
3337+78750000000+78437500000+77187500000+76562500000+74375000000+69375000000
3305+63750000000+59375000000+49687499999+35312500000+19062500000+13437500000
3274+12500000000+13437500000+8750000000+5312500000+4687500000+5312500000
3242+9375000000+15312500000+20312500000+25625000000+27500000000+23750000000
3211+19375000000+14375000000+14375000000+31250000000+57187500000+71875000000
3179+79687500000+83437500000+85937500000+88437500000+89062500000+90625000000
3147+91875000000+92187500000+92187500000+91875000000+91250000000+90000000000
3116+90000000000+90625000000+90937500000+91250000000+91250000000+90937500000
3084+90937500000+90937500000+90937500000+91250000000+91250000000+91250000000
3053+91250000000+91250000000+91562500000+91562500000+91875000000+91875000000
3021+91875000000+92187500000+92187500000+92187500000+92500000000+93125000000
2989+93437500000+93750000000+94062500000+94062500000+93750000000+93750000000
2958+93750000000+93750000000+94062500000+94062500000+94062500000+94062500000
2926+94062500000+94062500000+94062500000+94062500000+93750000000+93750000000
2895+93750000000+93750000000+93750000000+93750000000+93750000000+93750000000
2863+93750000000+93750000000+93750000000+93750000000+93750000000+93750000000
2832+93750000000+93750000000+93750000000+93750000000+93750000000+93750000000
2800+94062500000+94062500000+94062500000+93750000000+93750000000+93750000000
2768+93750000000+93750000000+93750000000+93750000000+94062500000+94062500000
2737+94062500000+93750000000+93750000000+93750000000+93750000000+93750000000
2705+94062500000+94062500000+94062500000+94062500000+94062500000+94062500000
2674+94062500000+94062500000+94062500000+94062500000+94062500000+94375000000
2642+94062500000+94062500000+94062500000+94062500000+94062500000+94062500000
2611+94062500000+94062500000+94062500000+94062500000+93750000000+93750000000
2579+93750000000+93437500000+93437500000+93437500000+93437500000+93750000000
2547+93750000000+94062500000+94375000000+94375000000+94375000000+93750000000
2516+93437500000+93125000000+93125000000+93125000000+93125000000+93437500000
2484+93750000000+94062500000+94375000000+94375000000+94062500000+94062500000
2453+93750000000+93750000000+94062500000+94375000000+94375000000+94687500000
2421+94687500000+94687500000+94687500000+95000000000+95000000000+94687500000
2389+94687500000+94687500000+94687500000+94687500000+94687500000+94375000000
2358+94375000000+94062500000+94062500000+93750000000+93750000000+93437500000
2326+93437500000+93437500000+93125000000+93125000000+92812500000+92187500000
2295+91875000000+90937500000+89375000000+87500000000+84062500000+78437500000
2263+69687500000+59375000000+47500000000+30625000000+30312500000+37812500000
2232+52812500000+65625000000+71875000000+75625000000+72187500000+62812500000
2200+45312500000+26875000000+25312500000+29062500000+44062500000+57500000000
2168+68125000000+73750000000+77812500000+80312500000+81875000000+83125000000
2137+82500000000+84375000000+86250000000+86875000000+87500000000+88125000000
2105+88750000000+88750000000+88750000000+88437500000+88125000000+86250000000
2074+79062500000+59687500000+56562500000+58750000000+69687500000+77500000000
2042+82500000000+85312500000+82500000000+83125000000+87187500000+88125000000
2011+89062500000+86562500000+86250000000+86875000000+88125000000+89062500000
1979+89375000000+89687500000+89687500000+90000000000+89687500000+89687500000
1947+88437500000+86875000000+86250000000+86250000000+86875000000+87500000000
1916+87500000000+85937500000+77187500000+73125000000+77812500000+75000000000
1884+67187500000+54375000000+43750000000+42500000000+42500000000+43125000000
1853+44687500000+47500000000+51562500000+56875000000+57812500000+64375000000
1821+74375000000+74687500000+55312500000+45937500000+48750000000+62187500000
1789+69062500000+63125000000+58750000000+58437500000+58750000000+60625000000
1758+61250000000+55312500000+49062500000+49687499999+60625000000+62187500000
1726+70312500000+76250000000+79062500000+80625000000+81562500000+82187500000
1695+82500000000+83125000000+83437500000+83437500000+82187500000+79687500000
1663+79687500000+80937500000+80312500000+81250000000+82812500000+83750000000
1632+81875000000+81875000000+81250000000+79375000000+71562500000+70625000000
1600+73437500000+74687500000+79375000000+81875000000+81250000000+78437500000
1568+73437500000+66875000000+61250000000+57187500000+57187500000+66250000000
1537+73750000000+77812500000+80625000000+82187500000+83437500000+85000000000
1505+85625000000+83750000000+79375000000+79375000000+77500000000+75937500000
1474+69687500000+57812500000+43750000000+34687500000+33750000000+37187499999
1442+46250000000+52812500000+61562500000+67812500000+70312500000+72812500000
1411+75937500000+77187500000+71875000000+68125000000+69375000000+72812500000
1379+72812500000+70000000000+67187500000+56875000000+57812500000+68125000000
1347+73750000000+78125000000+80000000000+75625000000+75625000000+79687500000
1316+82500000000+83750000000+83750000000+80312500000+74687500000+74687500000
1284+80312500000+81250000000+82187500000+84375000000+84375000000+85000000000
1253+85312500000+85000000000+79375000000+73125000000+76250000000+82812500000
1221+80937500000+83437500000+79375000000+61562500000+60937500000+70000000000
1189+76562500000+77187500000+81250000000+82500000000+82812500000+83750000000
1158+84375000000+80937500000+70937500000+70937500000+77500000000+82500000000
1126+84687500000+86250000000+85625000000+84687500000+84687500000+85312500000
1095+87187500000+88750000000+89062500000+89375000000+89375000000+89062500000
1063+89062500000+88750000000+88750000000+88437500000+88437500000+88125000000
1032+88125000000+87812500000+87812500000+87187500000+84687500000+79062500000
1000+61562500000+49687499999+47500000000+52812500000+71562500000+79062500000
968+83125000000+84062500000+84062500000+85312500000+87500000000+88125000000
937+88750000000+89687500000+89687500000+88125000000+83750000000+69062500000
905+62187500000+48437500000+48437500000+69375000000+82812500000+78750000000
874+70000000000+75312500000+83437500000+85312500000+82187500000+62500000000
842+63437500000+79687500000+84375000000+87812500000+87187500000+78750000000
811+54375000000+54062500000+78125000000+80625000000+81250000000+89062500000
779+90937500000+91875000000+92187500000+92187500000+90312500000+87187500000
747+87500000000+90625000000+91875000000+91875000000+92187500000+92187500000
716+92187500000+92187500000+92187500000+92500000000+92500000000+92812500000
684+92812500000+92812500000+92812500000+92812500000+92812500000+92812500000
653+92500000000+91875000000+89375000000+85937500000+70625000000+62500000000
621+76250000000+89687500000+92187500000+94062500000+94375000000+94687500000
589+93750000000+91875000000+84687500000+85937500000+92812500000+93437500000
558+93125000000+92500000000+91875000000+90937500000+90000000000+88437500000
526+86875000000+85625000000+84687500000+84375000000+84375000000+84375000000
495+85312500000+86250000000+87812500000+89062500000+90000000000+90625000000
463+90625000000+90312500000+89375000000+87812500000+85937500000+83437500000
432+80000000000+76250000000+73125000000+69687500000+66250000000+64375000000
400+63437500000
##END=
