##TITLE=p-propoxybenzaldehyde
##JCAMP-DX=4.24
##DATA TYPE=INFRARED SPECTRUM
##DATE=10/06/2025
##SAMPLING PROCEDURE=ATR
##ORIGIN=SDBS
##XUNITS=1/CM
##YUNITS=TRANSMITTANCE
##RESOLUTION=5.2631578947368425
##FIRSTX=4000.0
##LASTX=400.0
##DELTAX=-5.2631578947368425
##MAXY=94.6875
##MINY=0.0
##XFACTOR=1
##YFACTOR=1
##NPOINTS=685
##FIRSTY=0.0
##XYDATA=(X++(Y..Y))
4000+0+94375000000+94375000000+94062500000+94062500000+94062500000
3968+94375000000+94375000000+94375000000+94687500000+94687500000+94687500000
3937+94375000000+94375000000+94062500000+94062500000+94062500000+93750000000
3905+93437500000+93437500000+93437500000+93750000000+93750000000+94062500000
3874+94062500000+94375000000+94375000000+94687500000+94687500000+94375000000
3842+94375000000+94375000000+94375000000+94375000000+94375000000+94375000000
3811+94062500000+94062500000+94375000000+94375000000+94375000000+93750000000
3779+93125000000+92500000000+91875000000+91562500000+91250000000+90937500000
3747+90625000000+90312500000+90000000000+90000000000+90312500000+90312500000
3716+90625000000+90312500000+90312500000+90000000000+90000000000+89687500000
3684+89687500000+89687500000+89375000000+89375000000+89375000000+89062500000
3653+89062500000+89375000000+89375000000+89687500000+89375000000+89375000000
3621+89375000000+89375000000+89375000000+89062500000+89062500000+88750000000
3589+88750000000+88437500000+87812500000+86562500000+85625000000+85000000000
3558+84687500000+85000000000+85625000000+86875000000+87812500000+88750000000
3526+89062500000+89375000000+89375000000+89375000000+89375000000+89375000000
3495+89375000000+89375000000+89687500000+89687500000+89687500000+89375000000
3463+89062500000+88437500000+87812500000+87500000000+86875000000+86875000000
3432+86875000000+87187500000+86875000000+86562500000+85937500000+86250000000
3400+87812500000+87187500000+85937500000+85000000000+84375000000+83750000000
3368+83437500000+78125000000+77187500000+77500000000+79062500000+80000000000
3337+79687500000+79687500000+80625000000+81875000000+80625000000+79375000000
3305+75000000000+64687500000+44375000000+31875000000+26875000000+27500000000
3274+40937500000+39062500000+36875000000+38125000000+47187500000+54687500000
3242+60312500000+61562500000+59687500000+45937500000+41874999999+46250000000
3211+60312500000+64687500000+66562500000+63125000000+60000000000+60000000000
3179+62500000000+63437500000+63125000000+65625000000+71875000000+78125000000
3147+78437500000+74375000000+68437500000+62812500000+60000000000+59687500000
3116+61250000000+65937500000+71875000000+77187500000+80312500000+81250000000
3084+84687500000+88437500000+90625000000+90625000000+90312500000+89062500000
3053+88437500000+88125000000+88125000000+88437500000+88750000000+88750000000
3021+88125000000+87187500000+86875000000+86875000000+88125000000+89687500000
2989+90625000000+90937500000+90000000000+89375000000+89375000000+89687500000
2958+90312500000+91250000000+92187500000+91875000000+91562500000+91562500000
2926+91562500000+91250000000+90625000000+90625000000+90625000000+91562500000
2895+92500000000+93437500000+93750000000+93750000000+93437500000+93437500000
2863+93437500000+93437500000+93125000000+93125000000+93125000000+93125000000
2832+93125000000+93125000000+93437500000+93437500000+93437500000+93437500000
2800+93437500000+93437500000+93750000000+94062500000+94062500000+94375000000
2768+94062500000+94062500000+94375000000+94375000000+94375000000+94375000000
2737+94062500000+94062500000+93750000000+93750000000+93750000000+93437500000
2705+93125000000+92812500000+92187500000+92187500000+92187500000+92187500000
2674+92187500000+91875000000+91562500000+91562500000+91562500000+91562500000
2642+91562500000+90937500000+89062500000+87500000000+87187500000+87500000000
2611+89062500000+89687500000+90312500000+90937500000+91250000000+91562500000
2579+91875000000+91875000000+91875000000+91562500000+91562500000+91562500000
2547+91250000000+91250000000+91250000000+90937500000+90937500000+90937500000
2516+90625000000+90000000000+89687500000+89062500000+88750000000+88437500000
2484+88437500000+88750000000+89062500000+89375000000+90000000000+90625000000
2453+90937500000+91250000000+91562500000+91562500000+91875000000+91875000000
2421+91875000000+92187500000+92187500000+92187500000+92187500000+92187500000
2389+92500000000+92500000000+92500000000+92500000000+92187500000+91562500000
2358+90937500000+90625000000+90312500000+90312500000+90000000000+90000000000
2326+89687500000+89375000000+89375000000+89062500000+88750000000+88437500000
2295+88437500000+88125000000+88125000000+87812500000+87812500000+87500000000
2263+87187500000+85937500000+84062500000+80625000000+76562500000+70625000000
2232+64375000000+57812500000+51562500000+44062500000+34062500000+20937500000
2200+12500000000+8750000000+6875000000+6562500000+6562500000+8437500000
2168+13750000000+22500000000+34687500000+44062500000+49062500000+51562500000
2137+55625000000+60937500000+64687500000+66875000000+68750000000+70625000000
2105+70312500000+66562500000+61562500000+55312500000+47500000000+34062500000
2074+18125000000+6875000000+5000000000+4687500000+5312500000+9687500000
2042+20312500000+32812500000+17187500000+10937500000+13125000000+29375000000
2011+50625000000+62500000000+72187500000+75937500000+78125000000+79062500000
1979+80000000000+80937500000+81250000000+80312500000+78750000000+75000000000
1947+65625000000+41874999999+15937500000+13125000000+20000000000+44062500000
1916+63437500000+73125000000+77812500000+75000000000+67187500000+49375000000
1884+44687500000+45625000000+47187500000+50937500000+51562500000+55000000000
1853+58437500000+67812500000+73437500000+71562500000+63750000000+52500000000
1821+48437500000+48437500000+53750000000+65625000000+74687500000+76562500000
1789+71250000000+62812500000+50937500000+45625000000+45625000000+51875000000
1758+63437500000+70625000000+72187500000+76250000000+78750000000+79062500000
1726+78750000000+78437500000+78125000000+77500000000+76562500000+75000000000
1695+70937500000+66250000000+58437500000+49062500000+37812500000+29375000000
1663+26250000000+26250000000+29062500000+31250000000+32187500000+40000000000
1632+52500000000+56250000000+48437500000+37812500000+29687500000+19687500000
1600+11875000000+8750000000+7812500000+7812500000+8437500000+10312500000
1568+14062500000+18125000000+21875000000+22187500000+22187500000+23750000000
1537+28125000000+21875000000+18437500000+19062500000+26250000000+44062500000
1505+59375000000+68125000000+72500000000+75937500000+77812500000+74687500000
1474+67812500000+52187500000+28750000000+15000000000+9687500000+9375000000
1442+10312500000+19062500000+36875000000+47187500000+58750000000+66562500000
1411+70312500000+69687500000+71562500000+74687500000+64062500000+50000000000
1379+49687499999+55625000000+70000000000+77812500000+82500000000+84375000000
1347+86250000000+86250000000+84062500000+78437500000+66250000000+50625000000
1316+48124999999+50312500000+61562500000+70000000000+62187500000+54687500000
1284+55312500000+65937500000+73750000000+78437500000+75312500000+65000000000
1253+51250000000+43125000000+42812500000+45625000000+55625000000+67187500000
1221+76875000000+80937500000+76875000000+65000000000+43125000000+28125000000
1189+27500000000+31562500000+46562499999+65312500000+76250000000+82187500000
1158+85625000000+87187500000+87500000000+88437500000+89062500000+87500000000
1126+86562500000+85312500000+85312500000+83437500000+82187500000+82187500000
1095+83125000000+83437500000+83437500000+84062500000+85000000000+85625000000
1063+86250000000+86250000000+84375000000+79687500000+70625000000+50625000000
1032+40625000000+41250000000+49375000000+49687499999+39687500000+28750000000
1000+23125000000+21875000000+22500000000+29062500000+44999999999+52812500000
968+55625000000+56250000000+57187500000+61875000000+68437500000+78125000000
937+80312500000+80625000000+80625000000+84375000000+86250000000+84687500000
905+81875000000+81562500000+84375000000+89687500000+89687500000+87812500000
874+87500000000+87812500000+91250000000+92812500000+93437500000+93125000000
842+92500000000+91562500000+91562500000+91875000000+93437500000+93437500000
811+93750000000+94375000000+94375000000+94375000000+94375000000+94062500000
779+93437500000+92500000000+90937500000+88125000000+84687500000+75312500000
747+58437500000+49375000000+52187500000+68750000000+72187500000+72187500000
716+78437500000+82500000000+74375000000+45625000000+43125000000+43437499999
684+65625000000+73750000000+82500000000+83750000000+84062500000+87500000000
653+89687500000+91875000000+92500000000+92812500000+93125000000+93437500000
621+93437500000+93750000000+93750000000+93750000000+93437500000+92812500000
589+91562500000+90312500000+87812500000+84375000000+77187500000+63750000000
558+55312500000+55000000000+61875000000+71875000000+79687500000+85000000000
526+87500000000+89687500000+90625000000+90937500000+90937500000+90937500000
495+90937500000+90937500000+90937500000+90937500000+90625000000+89687500000
463+89062500000+87500000000+85937500000+84375000000+82812500000+81250000000
432+79687500000+77500000000+75937500000+73750000000+72187500000+70937500000
400+70625000000
##END=
