##TITLE=p-xylene
##JCAMP-DX=4.24
##DATA TYPE=INFRARED SPECTRUM
##DATE=10/06/2025
##SAMPLING PROCEDURE=ATR
##ORIGIN=SDBS
##XUNITS=1/CM
##YUNITS=TRANSMITTANCE
##RESOLUTION=5.2631578947368425
##FIRSTX=4000.0
##LASTX=400.0
##DELTAX=-5.2631578947368425
##MAXY=94.6875
##MINY=0.0
##XFACTOR=1
##YFACTOR=1
##NPOINTS=685
##FIRSTY=0.0
##XYDATA=(X++(Y..Y))
4000+0+90625000000+90625000000+90312500000+90312500000+90312500000
3968+90312500000+90312500000+90312500000+90312500000+90312500000+90312500000
3937+90312500000+90312500000+90312500000+90312500000+90312500000+90312500000
3905+90312500000+90312500000+90312500000+90312500000+90625000000+90625000000
3874+90625000000+90625000000+90937500000+90937500000+90937500000+90937500000
3842+90625000000+90625000000+90625000000+90625000000+90937500000+90937500000
3811+91250000000+91250000000+90937500000+90937500000+90937500000+90937500000
3779+90625000000+90312500000+90312500000+90625000000+90625000000+90937500000
3747+90937500000+91250000000+91250000000+91250000000+91250000000+91250000000
3716+91250000000+91250000000+91562500000+91562500000+91562500000+91562500000
3684+91562500000+91250000000+91250000000+90937500000+90937500000+90937500000
3653+90937500000+90937500000+90937500000+90937500000+90625000000+90625000000
3621+90625000000+90625000000+90625000000+90625000000+90625000000+90625000000
3589+90312500000+90312500000+90312500000+90312500000+90312500000+90312500000
3558+90312500000+90312500000+90312500000+90312500000+90312500000+90312500000
3526+90625000000+90625000000+90625000000+90625000000+90625000000+90625000000
3495+90625000000+90625000000+90625000000+90625000000+90625000000+90937500000
3463+90937500000+90937500000+90937500000+90937500000+90937500000+90937500000
3432+90937500000+90937500000+90937500000+90625000000+90000000000+88125000000
3400+85000000000+86250000000+88437500000+86875000000+82187500000+76562500000
3368+76250000000+79375000000+79062500000+75000000000+65312500000+48124999999
3337+45312500000+47500000000+47500000000+36250000000+36250000000+43750000000
3305+39062500000+40937500000+47187500000+45937500000+45937500000+47500000000
3274+43750000000+42500000000+42187500000+32500000000+25312500000+25625000000
3242+39062500000+51875000000+55937500000+55000000000+50000000000+46250000000
3211+46250000000+52187500000+64062500000+73750000000+79375000000+82500000000
3179+84687500000+86562500000+88437500000+89062500000+89687500000+90625000000
3147+91250000000+91562500000+91875000000+90937500000+88125000000+82187500000
3116+83125000000+89687500000+90937500000+91562500000+92187500000+92500000000
3084+92812500000+92812500000+93125000000+93125000000+93125000000+92812500000
3053+92812500000+93125000000+93125000000+93125000000+92500000000+91875000000
3021+91250000000+91250000000+91875000000+93437500000+93750000000+93750000000
2989+93437500000+93437500000+93437500000+93437500000+93437500000+93437500000
2958+93437500000+93437500000+93437500000+93437500000+93437500000+93437500000
2926+93437500000+93437500000+93125000000+93125000000+93125000000+93125000000
2895+93125000000+93437500000+93437500000+93750000000+93437500000+93437500000
2863+93125000000+93125000000+92812500000+92812500000+92500000000+92187500000
2832+91875000000+91562500000+91250000000+93125000000+93750000000+93750000000
2800+94062500000+94375000000+94375000000+94375000000+94375000000+94375000000
2768+94375000000+94062500000+94062500000+94062500000+94375000000+94375000000
2737+94375000000+94375000000+94375000000+94687500000+94687500000+94687500000
2705+94687500000+94687500000+94687500000+94375000000+93125000000+93125000000
2674+94062500000+94375000000+94687500000+94687500000+94687500000+94687500000
2642+94687500000+94687500000+94687500000+94687500000+94375000000+94375000000
2611+94062500000+94062500000+94062500000+94062500000+94062500000+94062500000
2579+94062500000+94062500000+94062500000+94062500000+94062500000+94062500000
2547+94062500000+94062500000+94062500000+94062500000+93750000000+93750000000
2516+93437500000+93125000000+93125000000+93125000000+92812500000+92187500000
2484+91250000000+90312500000+87500000000+82812500000+79687500000+79687500000
2453+80937500000+85000000000+88437500000+90625000000+91562500000+92187500000
2421+92812500000+93125000000+93125000000+93125000000+93125000000+93125000000
2389+92812500000+92812500000+93125000000+93437500000+93437500000+93750000000
2358+94062500000+93750000000+93437500000+92500000000+91250000000+89062500000
2326+87812500000+87812500000+89062500000+90625000000+92187500000+92812500000
2295+93125000000+93125000000+93125000000+93125000000+93125000000+93125000000
2263+92812500000+92812500000+92812500000+92812500000+92812500000+92812500000
2232+93125000000+92812500000+92812500000+92812500000+92812500000+92500000000
2200+92500000000+93125000000+93437500000+93437500000+93750000000+93750000000
2168+93437500000+93437500000+93125000000+93125000000+93125000000+92812500000
2137+92812500000+92500000000+91875000000+90937500000+89062500000+86250000000
2105+82812500000+81562500000+81562500000+84062500000+86562500000+87500000000
2074+88125000000+88750000000+89062500000+89687500000+90000000000+90312500000
2042+90000000000+89687500000+89687500000+89375000000+89062500000+88750000000
2011+88125000000+87812500000+87187500000+86250000000+85625000000+85000000000
1979+84062500000+82812500000+80937500000+77500000000+71562500000+56562500000
1947+23750000000+11562500000+13750000000+35625000000+51250000000+63437500000
1916+67812500000+67812500000+69062500000+70937500000+69687500000+67812500000
1884+64687500000+61875000000+58750000000+55625000000+53437500000+52812500000
1853+52812500000+53125000000+55000000000+57500000000+60312500000+64375000000
1821+67500000000+70000000000+71562500000+72812500000+74062500000+75625000000
1789+77500000000+79687500000+81562500000+81875000000+80937500000+79062500000
1758+74375000000+66875000000+66562500000+74687500000+81250000000+83437500000
1726+85000000000+85937500000+86250000000+87187500000+87500000000+88125000000
1695+88437500000+89062500000+89062500000+88750000000+88750000000+89062500000
1663+89375000000+90000000000+90312500000+90625000000+90937500000+91250000000
1632+91562500000+91562500000+91875000000+91562500000+91250000000+90937500000
1600+90625000000+90000000000+90000000000+90000000000+89687500000+89375000000
1568+88437500000+88125000000+88125000000+89062500000+90312500000+90000000000
1537+87500000000+75937500000+76562500000+88125000000+90312500000+90937500000
1505+90937500000+90937500000+90625000000+89687500000+88125000000+87500000000
1474+87812500000+89062500000+90000000000+90312500000+90312500000+90625000000
1442+90625000000+90625000000+90312500000+90000000000+89687500000+89375000000
1411+87812500000+84687500000+77187500000+56875000000+56562500000+70312500000
1379+77500000000+73437500000+70625000000+73125000000+80625000000+84375000000
1347+85937500000+86562500000+86250000000+85625000000+85000000000+83750000000
1316+82812500000+80625000000+78125000000+74062500000+69687500000+65312500000
1284+65000000000+66250000000+70000000000+73750000000+74375000000+65625000000
1253+70625000000+82187500000+84062500000+85312500000+86250000000+86875000000
1221+88125000000+89062500000+89375000000+89687500000+89375000000+89375000000
1189+89062500000+89062500000+89062500000+89062500000+89375000000+89687500000
1158+89687500000+90000000000+90312500000+90312500000+90625000000+90937500000
1126+91250000000+91562500000+91875000000+92187500000+92500000000+92812500000
1095+92812500000+93125000000+93125000000+93125000000+92812500000+92500000000
1063+92187500000+92187500000+91875000000+91562500000+91250000000+90937500000
1032+90625000000+90312500000+89687500000+89062500000+87812500000+86875000000
1000+86875000000+86562500000+86875000000+86562500000+85312500000+82812500000
968+79687500000+74062500000+61562500000+34062500000+6562500000+4687500000
937+5312500000+22187500000+54687500000+73750000000+82187500000+87812500000
905+90312500000+91875000000+92500000000+93125000000+93437500000+93750000000
874+94062500000+94062500000+94375000000+94375000000+94375000000+94375000000
842+94375000000+94375000000+94375000000+94375000000+94375000000+94375000000
811+94062500000+94062500000+94062500000+94062500000+94062500000+94062500000
779+94062500000+94375000000+94375000000+94062500000+94062500000+93750000000
747+93750000000+93437500000+93437500000+93437500000+93437500000+93437500000
716+93437500000+93437500000+93437500000+93437500000+93437500000+93437500000
684+93437500000+93125000000+93125000000+93125000000+92812500000+92812500000
653+92812500000+92500000000+92500000000+92812500000+92812500000+93125000000
621+93125000000+93437500000+94062500000+94375000000+94687500000+94687500000
589+94687500000+94687500000+94375000000+93750000000+93125000000+92812500000
558+92187500000+91875000000+91250000000+90625000000+88750000000+84687500000
526+76562500000+62187500000+22187500000+7500000000+10312500000+43437499999
495+70000000000+80312500000+85000000000+87500000000+89687500000+91250000000
463+90937500000+90625000000+90625000000+90625000000+91562500000+92187500000
432+92812500000+90625000000+87187500000+82500000000+78125000000+74375000000
400+72812500000
##END=
