##TITLE=pentaethylene glycol mono-p-nonylphenyl ether
##JCAMP-DX=4.24
##DATA TYPE=INFRARED SPECTRUM
##DATE=10/06/2025
##SAMPLING PROCEDURE=ATR
##ORIGIN=SDBS
##XUNITS=1/CM
##YUNITS=TRANSMITTANCE
##RESOLUTION=5.2631578947368425
##FIRSTX=4000.0
##LASTX=400.0
##DELTAX=-5.2631578947368425
##MAXY=95.0
##MINY=0.0
##XFACTOR=1
##YFACTOR=1
##NPOINTS=685
##FIRSTY=0.0
##XYDATA=(X++(Y..Y))
4000+0+88437500000+88437500000+88437500000+88437500000+88437500000
3968+88750000000+89062500000+89062500000+89062500000+89375000000+89375000000
3937+89687500000+90000000000+90312500000+90312500000+90625000000+90625000000
3905+90937500000+91250000000+91250000000+91562500000+91562500000+91562500000
3874+91562500000+91562500000+91562500000+91562500000+91562500000+91562500000
3842+91250000000+91250000000+91250000000+91250000000+91250000000+91250000000
3811+91562500000+91875000000+92187500000+92187500000+92187500000+91875000000
3779+91562500000+91562500000+91250000000+90937500000+90937500000+90312500000
3747+89375000000+88125000000+86875000000+85000000000+83750000000+82187500000
3716+80937500000+79687500000+78125000000+76562500000+74687500000+73125000000
3684+70625000000+68125000000+65312500000+63437500000+61250000000+59375000000
3653+57812500000+56562500000+55312500000+54062500000+53437500000+52812500000
3621+52500000000+52187500000+51562500000+51250000000+50937500000+50625000000
3589+50312500000+50000000000+50000000000+50000000000+50000000000+50000000000
3558+50000000000+50312500000+50625000000+51250000000+51875000000+52812500000
3526+53437500000+54375000000+55000000000+55937500000+57187500000+58750000000
3495+60000000000+61250000000+62812500000+64375000000+65625000000+66875000000
3463+68125000000+69375000000+70937500000+72500000000+73750000000+75000000000
3432+76250000000+77812500000+78750000000+80000000000+80937500000+81875000000
3400+82500000000+83125000000+83437500000+83437500000+83125000000+82812500000
3368+82812500000+82187500000+79687500000+76562500000+75625000000+75625000000
3337+73437500000+72500000000+74062500000+77500000000+76250000000+72500000000
3305+66250000000+54062500000+33437500000+18125000000+8125000000+5312500000
3274+5000000000+6562500000+6250000000+5312500000+5312500000+5937500000
3242+6562500000+7187500000+7812500000+6875000000+5000000000+4687500000
3211+5625000000+7812500000+13437500000+22812500000+33125000000+40937500000
3179+46562499999+51250000000+56250000000+60000000000+64375000000+67500000000
3147+70625000000+72812500000+73437500000+74062500000+74375000000+74375000000
3116+74375000000+75625000000+77500000000+79375000000+80000000000+81562500000
3084+84687500000+85937500000+87500000000+88437500000+88437500000+88750000000
3053+88750000000+88750000000+88750000000+88750000000+88750000000+88750000000
3021+89062500000+89375000000+89687500000+90000000000+90000000000+90000000000
2989+90000000000+90000000000+90312500000+90312500000+90625000000+90625000000
2958+90625000000+90625000000+90937500000+90937500000+91250000000+91562500000
2926+91562500000+91562500000+91562500000+91562500000+91562500000+91875000000
2895+92187500000+92187500000+92500000000+92812500000+92812500000+93125000000
2863+93125000000+93125000000+93125000000+93125000000+93125000000+93125000000
2832+93125000000+92812500000+92812500000+92812500000+92812500000+92812500000
2800+92812500000+92812500000+92500000000+92500000000+92500000000+92500000000
2768+92500000000+92812500000+92812500000+92812500000+93125000000+92812500000
2737+92812500000+92500000000+92187500000+92187500000+92187500000+92187500000
2705+91875000000+91875000000+91875000000+91875000000+91875000000+91562500000
2674+91875000000+91875000000+91875000000+91875000000+91875000000+91875000000
2642+91875000000+91875000000+91562500000+91562500000+91250000000+90937500000
2611+90625000000+90312500000+90000000000+89687500000+89687500000+89375000000
2579+89375000000+89375000000+89375000000+89375000000+89375000000+89375000000
2547+89687500000+89687500000+89687500000+90000000000+90312500000+90625000000
2516+90937500000+90937500000+91250000000+91562500000+91562500000+91562500000
2484+91875000000+91875000000+91875000000+91562500000+91562500000+91562500000
2453+91562500000+91562500000+91875000000+91875000000+92187500000+92500000000
2421+92812500000+93125000000+93437500000+93750000000+94062500000+94062500000
2389+94375000000+94375000000+94687500000+94687500000+94687500000+94687500000
2358+94687500000+95000000000+95000000000+95000000000+94687500000+94687500000
2326+94687500000+94375000000+94375000000+94062500000+94062500000+93750000000
2295+93437500000+93437500000+93437500000+93125000000+93125000000+93125000000
2263+93437500000+93437500000+93437500000+93437500000+93750000000+93750000000
2232+93750000000+93750000000+93750000000+93750000000+94062500000+94062500000
2200+94375000000+94375000000+94375000000+94375000000+94375000000+94375000000
2168+94375000000+94062500000+93437500000+92500000000+91875000000+91250000000
2137+90625000000+90000000000+89687500000+89375000000+89062500000+89062500000
2105+88750000000+88437500000+85937500000+82187500000+74062500000+57187500000
2074+46250000000+45937500000+54375000000+68750000000+76875000000+84687500000
2042+87812500000+79062500000+73750000000+74375000000+84375000000+88125000000
2011+89687500000+90625000000+90937500000+90625000000+90312500000+89687500000
1979+89062500000+87500000000+85000000000+80312500000+74687500000+63437500000
1947+41874999999+14687500000+9062500000+9062500000+20937500000+39687500000
1916+53125000000+56875000000+55312500000+54375000000+51562500000+44062500000
1884+37187499999+32187500000+27812500000+26250000000+25312500000+25312500000
1853+25312500000+30000000000+38125000000+46875000000+53750000000+62812500000
1821+70000000000+72812500000+72812500000+70000000000+66562500000+66562500000
1789+67187500000+68750000000+68125000000+66250000000+61562500000+52812500000
1758+48750000000+44999999999+44375000000+45625000000+46562499999+40937500000
1726+40937500000+40937500000+37812500000+37812500000+38749999999+48750000000
1695+61250000000+62500000000+60312500000+58437500000+57812500000+56875000000
1663+51875000000+47500000000+42500000000+36875000000+32812500000+30937500000
1632+30625000000+31250000000+32500000000+35000000000+39375000000+43437499999
1600+44062500000+37812500000+26875000000+16250000000+9062500000+7187500000
1568+7187500000+9062500000+12812500000+18125000000+23750000000+30312500000
1537+35937500000+41874999999+48124999999+53750000000+58437500000+63437500000
1505+63750000000+58437500000+46562499999+32812500000+29062500000+30312500000
1474+43125000000+53125000000+56562500000+52812500000+43750000000+32812500000
1442+22187500000+15625000000+11562500000+8750000000+7812500000+6562500000
1411+5937500000+5312500000+5000000000+5000000000+5000000000+5625000000
1379+5937500000+6250000000+6875000000+7812500000+8750000000+10000000000
1347+11562500000+13437500000+15000000000+15625000000+15000000000+14687500000
1316+14687500000+15625000000+17812500000+21875000000+25937500000+28750000000
1284+30312500000+31562500000+33437500000+36250000000+40937500000+46875000000
1253+52187500000+55312500000+53750000000+55000000000+61562500000+63750000000
1221+65312500000+67500000000+69687500000+71562500000+73437500000+74687500000
1189+74062500000+69062500000+62812500000+54687500000+48124999999+43750000000
1158+42187500000+42187500000+42500000000+42812500000+43750000000+44687500000
1126+45937500000+47187500000+50625000000+53437500000+57187500000+60000000000
1095+64687500000+67500000000+67187500000+64375000000+62187500000+61875000000
1063+62500000000+65625000000+68125000000+69375000000+69375000000+68437500000
1032+66875000000+63750000000+60312500000+54687500000+50312500000+44999999999
1000+40312499999+35625000000+34375000000+35000000000+45625000000+56250000000
968+63750000000+67187500000+67187500000+67187500000+71562500000+77500000000
937+80937500000+83437500000+84375000000+85000000000+86250000000+87812500000
905+89062500000+89375000000+87187500000+83750000000+82500000000+82500000000
874+83125000000+84687500000+86562500000+85937500000+85937500000+87187500000
842+90312500000+92187500000+93125000000+92812500000+92500000000+91875000000
811+91562500000+90625000000+88750000000+85937500000+82812500000+82500000000
779+83125000000+84687500000+85625000000+87500000000+88125000000+88437500000
747+88437500000+88437500000+88125000000+87187500000+82500000000+85000000000
716+84687500000+83750000000+83125000000+82187500000+81250000000+80937500000
684+79375000000+77187500000+76250000000+75000000000+73750000000+72500000000
653+70312500000+68750000000+66562500000+64687500000+63750000000+63437500000
621+63750000000+64375000000+66875000000+68750000000+70312500000+72500000000
589+73750000000+74062500000+74062500000+74375000000+74062500000+74062500000
558+74062500000+74062500000+74375000000+75000000000+75312500000+75937500000
526+76250000000+76875000000+77187500000+78125000000+78750000000+79687500000
495+80937500000+81875000000+82812500000+83750000000+84062500000+84375000000
463+83750000000+83125000000+82187500000+81250000000+80312500000+78750000000
432+76875000000+74687500000+72812500000+70625000000+68750000000+67500000000
400+67187500000
##END=
