##TITLE=perfluorodecalin
##JCAMP-DX=4.24
##DATA TYPE=INFRARED SPECTRUM
##DATE=10/06/2025
##SAMPLING PROCEDURE=ATR
##ORIGIN=SDBS
##XUNITS=1/CM
##YUNITS=TRANSMITTANCE
##RESOLUTION=5.2631578947368425
##FIRSTX=4000.0
##LASTX=400.0
##DELTAX=-5.2631578947368425
##MAXY=94.6875
##MINY=0.0
##XFACTOR=1
##YFACTOR=1
##NPOINTS=685
##FIRSTY=0.0
##XYDATA=(X++(Y..Y))
4000+0+90625000000+90625000000+90937500000+90625000000+90312500000
3968+90312500000+90000000000+90000000000+90000000000+90312500000+90625000000
3937+90625000000+90625000000+90312500000+90312500000+90312500000+90312500000
3905+90312500000+90312500000+90312500000+90625000000+90625000000+90937500000
3874+90937500000+90937500000+90937500000+90937500000+90937500000+90937500000
3842+90937500000+90937500000+90937500000+90625000000+90625000000+90625000000
3811+90625000000+90625000000+90937500000+90937500000+90937500000+90937500000
3779+90625000000+90625000000+90312500000+90312500000+90312500000+90312500000
3747+90312500000+90000000000+90000000000+90000000000+90000000000+90312500000
3716+90312500000+90000000000+89687500000+89375000000+89375000000+89375000000
3684+89687500000+89687500000+89375000000+89062500000+89062500000+89062500000
3653+88750000000+88750000000+88437500000+88125000000+88125000000+88125000000
3621+88125000000+87812500000+87500000000+87500000000+87500000000+87187500000
3589+87187500000+87187500000+87187500000+86875000000+86875000000+86875000000
3558+86875000000+87187500000+87500000000+87500000000+87812500000+88125000000
3526+88125000000+87812500000+87812500000+87812500000+87812500000+87812500000
3495+88125000000+88125000000+88125000000+88437500000+88437500000+88437500000
3463+88750000000+88750000000+89062500000+89062500000+89375000000+89375000000
3432+89687500000+90000000000+90000000000+90000000000+90000000000+90312500000
3400+89375000000+90625000000+90625000000+90937500000+90937500000+90937500000
3368+91250000000+91250000000+91562500000+91250000000+91250000000+91250000000
3337+91250000000+91562500000+91562500000+91875000000+91875000000+91875000000
3305+91562500000+91250000000+90000000000+88750000000+86875000000+86250000000
3274+86250000000+87187500000+88437500000+88437500000+88125000000+88125000000
3242+88437500000+89062500000+89687500000+90312500000+90312500000+90000000000
3211+90000000000+90000000000+90312500000+90937500000+91875000000+92500000000
3179+92812500000+92812500000+93125000000+93125000000+93125000000+93437500000
3147+93437500000+93750000000+93750000000+93750000000+93750000000+93750000000
3116+93437500000+93437500000+93750000000+93750000000+93750000000+93750000000
3084+93750000000+93437500000+93437500000+93437500000+93437500000+93437500000
3053+93750000000+93750000000+93437500000+93437500000+93437500000+93125000000
3021+92812500000+92812500000+92812500000+92812500000+92812500000+92812500000
2989+93125000000+92812500000+92500000000+92187500000+91875000000+91875000000
2958+92187500000+92187500000+92812500000+93125000000+93125000000+93125000000
2926+93125000000+92812500000+92812500000+92500000000+92500000000+92500000000
2895+92187500000+92187500000+92187500000+92187500000+92187500000+92500000000
2863+92500000000+92500000000+92500000000+92500000000+92812500000+92812500000
2832+92812500000+92812500000+92812500000+93125000000+93437500000+93750000000
2800+93437500000+93437500000+93437500000+93437500000+93437500000+93437500000
2768+93437500000+93437500000+93750000000+93750000000+94062500000+94062500000
2737+94062500000+94375000000+94062500000+94062500000+94375000000+94375000000
2705+94375000000+94375000000+94375000000+94687500000+94687500000+94687500000
2674+94687500000+94687500000+94687500000+94687500000+94687500000+94687500000
2642+94687500000+94687500000+94687500000+94375000000+94375000000+94375000000
2611+94375000000+94375000000+94375000000+94375000000+94375000000+94375000000
2579+94062500000+94062500000+94062500000+94062500000+94062500000+94062500000
2547+94062500000+94062500000+94062500000+93750000000+93750000000+93750000000
2516+93750000000+93437500000+93437500000+93437500000+93437500000+93437500000
2484+93437500000+93437500000+93437500000+93437500000+93437500000+93437500000
2453+93437500000+93437500000+93437500000+93437500000+93437500000+93437500000
2421+93437500000+93125000000+93125000000+93125000000+92812500000+92812500000
2389+92500000000+92500000000+92500000000+92812500000+92812500000+92812500000
2358+92812500000+92812500000+92500000000+92500000000+92500000000+92500000000
2326+92500000000+92500000000+92500000000+92500000000+92500000000+92500000000
2295+92500000000+92812500000+92812500000+92812500000+92812500000+92812500000
2263+92812500000+92500000000+92500000000+92500000000+92500000000+92500000000
2232+92187500000+92187500000+92187500000+91875000000+91875000000+91875000000
2200+91875000000+92187500000+92187500000+92187500000+92187500000+92187500000
2168+92187500000+92187500000+91875000000+91562500000+91562500000+91250000000
2137+91250000000+90937500000+90937500000+91250000000+91250000000+91250000000
2105+91562500000+91250000000+91250000000+90937500000+90625000000+90312500000
2074+89375000000+89375000000+89687500000+90312500000+90937500000+90937500000
2042+90937500000+91250000000+91250000000+91250000000+90937500000+90937500000
2011+90937500000+90625000000+90625000000+90625000000+90625000000+90625000000
1979+90625000000+90625000000+90625000000+90312500000+90000000000+89687500000
1947+88437500000+86250000000+85937500000+85625000000+85937500000+86562500000
1916+87812500000+88750000000+89062500000+88750000000+88437500000+88125000000
1884+88125000000+87500000000+86250000000+85937500000+85625000000+85312500000
1853+85000000000+84687500000+84687500000+84687500000+85312500000+85625000000
1821+85937500000+85625000000+84375000000+83750000000+83437500000+83437500000
1789+83125000000+82812500000+82187500000+81562500000+80000000000+80000000000
1758+80000000000+80000000000+80000000000+79687500000+78125000000+76250000000
1726+74062500000+73125000000+70937500000+66250000000+61250000000+54062500000
1695+40312499999+19375000000+15000000000+15000000000+13437500000+13750000000
1663+17500000000+22500000000+22500000000+29062500000+41874999999+48437500000
1632+47187500000+46562499999+37812500000+35000000000+33125000000+18125000000
1600+10937500000+10937500000+13125000000+11250000000+8437500000+7812500000
1568+7812500000+8125000000+9687500000+9375000000+6875000000+5625000000
1537+4687500000+4687500000+5312500000+7187500000+13437500000+19062500000
1505+12500000000+8125000000+7500000000+8437500000+11875000000+12187500000
1474+18437500000+18750000000+18437500000+29062500000+49687499999+57812500000
1442+46250000000+47187500000+61562500000+57500000000+64062500000+57187500000
1411+65937500000+73125000000+75937500000+76875000000+76875000000+77812500000
1379+79375000000+78437500000+76562500000+72187500000+70937500000+70625000000
1347+64062500000+41874999999+14687500000+14687500000+19062500000+33437500000
1316+24375000000+24375000000+33437500000+31250000000+12187500000+9375000000
1284+10312500000+10000000000+19375000000+39687500000+53125000000+61875000000
1253+54687500000+54062500000+53437500000+55312500000+65937500000+70312500000
1221+72500000000+64687500000+40000000000+35000000000+45937500000+66875000000
1189+65625000000+55000000000+56250000000+66562500000+59375000000+44062500000
1158+15312500000+13125000000+16250000000+11250000000+9375000000+14687500000
1126+44375000000+62812500000+73750000000+79687500000+83437500000+87500000000
1095+88750000000+89062500000+89062500000+89375000000+89375000000+89062500000
1063+88125000000+86875000000+85625000000+84062500000+79062500000+51250000000
1032+63750000000+85000000000+80312500000+71250000000+74062500000+86562500000
1000+85312500000+82500000000+73750000000+50625000000+21562500000+21250000000
968+49375000000+70937500000+77500000000+81875000000+83437500000+84062500000
937+84687500000+85000000000+84687500000+84687500000+85000000000+85937500000
905+80000000000+61875000000+27500000000+17187500000+28750000000+73125000000
874+86250000000+90937500000+92500000000+89687500000+88750000000+91875000000
842+93437500000+94062500000+89687500000+80625000000+86875000000+90625000000
811+91250000000+89375000000+83125000000+83750000000+88125000000+83437500000
779+79062500000+80312500000+77500000000+71250000000+21250000000+20625000000
747+73125000000+80000000000+75312500000+52500000000+33125000000+63750000000
716+69375000000+75625000000+81562500000+79375000000+59062500000+59375000000
684+75937500000+63437500000+40625000000+48124999999+74687500000+80937500000
653+82500000000+83125000000+82187500000+81875000000+80937500000+83125000000
621+84062500000+85625000000+87187500000+90312500000+92812500000+94375000000
589+93125000000+92500000000+91250000000+90625000000+90312500000+90312500000
558+87812500000+82500000000+78750000000+73437500000+69062500000+41250000000
526+25312500000+30312500000+55000000000+68750000000+76562500000+78750000000
495+81562500000+84375000000+86250000000+87187500000+86562500000+84375000000
463+82187500000+78750000000+75625000000+73125000000+71875000000+70312500000
432+69062500000+67187500000+65937500000+64375000000+62812500000+61875000000
400+61562500000
##END=
