##TITLE=phenyl isocyanate
##JCAMP-DX=4.24
##DATA TYPE=INFRARED SPECTRUM
##DATE=10/06/2025
##SAMPLING PROCEDURE=ATR
##ORIGIN=SDBS
##XUNITS=1/CM
##YUNITS=TRANSMITTANCE
##RESOLUTION=5.2631578947368425
##FIRSTX=4000.0
##LASTX=400.0
##DELTAX=-5.2631578947368425
##MAXY=95.0
##MINY=0.0
##XFACTOR=1
##YFACTOR=1
##NPOINTS=685
##FIRSTY=0.0
##XYDATA=(X++(Y..Y))
4000+0+87187500000+87500000000+88125000000+88437500000+88437500000
3968+88437500000+88125000000+88125000000+88125000000+88437500000+88437500000
3937+88437500000+88437500000+88750000000+89062500000+89375000000+89375000000
3905+89687500000+89687500000+89375000000+89062500000+88750000000+88750000000
3874+88750000000+88750000000+89062500000+89062500000+88750000000+88437500000
3842+88437500000+88750000000+88750000000+88750000000+88750000000+88437500000
3811+87812500000+87500000000+86875000000+86250000000+85937500000+85937500000
3779+86250000000+86875000000+88125000000+89062500000+89687500000+90000000000
3747+90000000000+90312500000+90312500000+90625000000+90937500000+90937500000
3716+91250000000+91250000000+91250000000+91250000000+91562500000+91875000000
3684+91875000000+92187500000+92187500000+92187500000+92187500000+91875000000
3653+91875000000+91875000000+91875000000+91875000000+91875000000+91875000000
3621+91562500000+91250000000+90312500000+88437500000+83125000000+80937500000
3589+80312500000+80312500000+80312500000+80937500000+82500000000+83750000000
3558+84062500000+84375000000+84375000000+84375000000+84687500000+84687500000
3526+84687500000+84687500000+84687500000+84687500000+84687500000+84687500000
3495+84687500000+84687500000+84687500000+85000000000+85000000000+85625000000
3463+85937500000+85937500000+85937500000+85937500000+85937500000+85937500000
3432+85937500000+86562500000+86875000000+87187500000+87187500000+87187500000
3400+87187500000+87187500000+85937500000+85000000000+84062500000+83750000000
3368+82812500000+79687500000+71562500000+68437500000+68437500000+71562500000
3337+76562500000+77500000000+76562500000+76562500000+80312500000+82500000000
3305+84687500000+86875000000+87812500000+87500000000+85937500000+85000000000
3274+85000000000+85312500000+84375000000+83750000000+83750000000+84375000000
3242+85000000000+85312500000+85937500000+86875000000+87812500000+87812500000
3211+87812500000+87812500000+88437500000+90312500000+91250000000+91875000000
3179+92187500000+92187500000+92500000000+92812500000+92812500000+93125000000
3147+92812500000+92812500000+92187500000+92187500000+91875000000+91875000000
3116+91875000000+92187500000+92500000000+92812500000+93125000000+93437500000
3084+93750000000+93437500000+93437500000+93437500000+93437500000+93750000000
3053+93750000000+93750000000+93750000000+93750000000+93750000000+93750000000
3021+93750000000+93750000000+93437500000+93437500000+93750000000+93750000000
2989+93750000000+93750000000+93750000000+93750000000+93750000000+93437500000
2958+93437500000+93437500000+93125000000+92812500000+92500000000+92187500000
2926+91562500000+90625000000+89687500000+88750000000+86875000000+84375000000
2895+81562500000+76875000000+70312500000+63437500000+57500000000+50937500000
2863+44999999999+39062500000+34687500000+29687500000+25312500000+20937500000
2832+17187500000+13750000000+7812500000+5312500000+5000000000+5000000000
2800+5000000000+4687500000+4687500000+5937500000+10625000000+20000000000
2768+30000000000+39687500000+40000000000+35625000000+35937500000+44999999999
2737+55312500000+63437500000+67812500000+70625000000+72812500000+76250000000
2705+80000000000+83750000000+86250000000+87812500000+88125000000+87187500000
2674+86562500000+86250000000+86562500000+88125000000+90000000000+91250000000
2642+92187500000+93125000000+93750000000+94062500000+94375000000+94687500000
2611+94687500000+94687500000+94375000000+94375000000+94062500000+93750000000
2579+93125000000+92500000000+91875000000+91875000000+91875000000+91875000000
2547+90625000000+90625000000+90000000000+90000000000+90000000000+90937500000
2516+91875000000+92812500000+93125000000+93437500000+93750000000+93750000000
2484+93750000000+93437500000+93125000000+92812500000+92500000000+92187500000
2453+92187500000+91875000000+90937500000+90625000000+90312500000+90000000000
2421+90000000000+90625000000+91875000000+93125000000+94062500000+94375000000
2389+94375000000+94687500000+94687500000+94375000000+94062500000+93437500000
2358+92812500000+92187500000+91250000000+90625000000+89687500000+88750000000
2326+87500000000+84375000000+75937500000+59687500000+54375000000+55937500000
2295+73125000000+83437500000+87500000000+89062500000+88437500000+87187500000
2263+85312500000+84687500000+84375000000+82812500000+77500000000+64687500000
2232+52812500000+50937500000+52812500000+65000000000+74687500000+79062500000
2200+81562500000+83125000000+84687500000+85625000000+84687500000+81875000000
2168+78437500000+75000000000+73437500000+73125000000+73437500000+74375000000
2137+75000000000+76250000000+77500000000+78437500000+78750000000+78750000000
2105+79375000000+79375000000+79375000000+79062500000+78437500000+76875000000
2074+71250000000+59375000000+32812500000+13125000000+13125000000+24375000000
2042+36875000000+42812500000+47500000000+69375000000+75000000000+75000000000
2011+70625000000+64062500000+58125000000+54375000000+54375000000+55312500000
1979+57500000000+58750000000+56875000000+51562500000+45312500000+37812500000
1947+31875000000+25625000000+22812500000+22812500000+28750000000+30312500000
1916+30000000000+42500000000+54062500000+57500000000+62187500000+65937500000
1884+70312500000+74687500000+77812500000+77187500000+75000000000+67500000000
1853+57812500000+60312500000+48750000000+46250000000+51875000000+68437500000
1821+79062500000+83437500000+85625000000+86875000000+86562500000+85937500000
1789+84062500000+80937500000+76875000000+73125000000+68437500000+64687500000
1758+63750000000+65000000000+69687500000+76562500000+81250000000+84375000000
1726+86250000000+87812500000+88750000000+89062500000+89375000000+89062500000
1695+88437500000+87500000000+85312500000+80312500000+78437500000+75625000000
1663+72500000000+71875000000+72500000000+77187500000+80000000000+81562500000
1632+82500000000+81250000000+74062500000+72187500000+74687500000+79375000000
1600+80000000000+79062500000+79375000000+81250000000+80625000000+78437500000
1568+76562500000+75000000000+73437500000+72187500000+69687500000+68125000000
1537+68125000000+74687500000+80937500000+83437500000+84375000000+84687500000
1505+83750000000+82500000000+82500000000+81250000000+77500000000+70312500000
1474+68437500000+68437500000+70625000000+69375000000+69375000000+70312500000
1442+67187500000+66875000000+67187500000+67500000000+68125000000+68750000000
1411+70625000000+72187500000+73125000000+73125000000+69375000000+60625000000
1379+53437500000+52812500000+56875000000+68125000000+76875000000+80312500000
1347+82812500000+83750000000+81250000000+70937500000+61875000000+64375000000
1316+78750000000+87500000000+91562500000+92812500000+94062500000+94687500000
1284+94062500000+90937500000+89062500000+81562500000+56562500000+62187500000
1253+86562500000+90937500000+92187500000+92500000000+92812500000+92500000000
1221+92500000000+92500000000+92500000000+92500000000+92500000000+92812500000
1189+92812500000+93125000000+93437500000+93750000000+94062500000+94375000000
1158+94687500000+94687500000+95000000000+94687500000+94687500000+94062500000
1126+93750000000+92812500000+91562500000+89687500000+85625000000+75312500000
1095+68437500000+68750000000+76875000000+85312500000+89687500000+91250000000
1063+92500000000+93125000000+93437500000+93750000000+94062500000+94375000000
1032+94687500000+94687500000+94375000000+94062500000+93437500000+91875000000
1000+90312500000+89062500000+89062500000+89687500000+90625000000+90937500000
968+91875000000+92812500000+93125000000+93437500000+93125000000+92187500000
937+90937500000+89062500000+85937500000+83125000000+78125000000+70937500000
905+59375000000+44375000000+28437500000+17187500000+12812500000+12812500000
874+19687500000+43750000000+62187500000+69687500000+75937500000+82187500000
842+85312500000+86562500000+87187500000+86875000000+85000000000+81250000000
811+71562500000+58437500000+37187499999+22187500000+22500000000+51875000000
779+72812500000+80000000000+81875000000+81875000000+81562500000+81250000000
747+80625000000+78750000000+76250000000+74062500000+71250000000+69375000000
716+68750000000+68750000000+69375000000+71250000000+74375000000+73750000000
684+74375000000+75625000000+76562500000+77187500000+77187500000+75937500000
653+74375000000+72187500000+65625000000+57187500000+55312500000+55312500000
621+56562500000+61250000000+68750000000+75312500000+79375000000+82500000000
589+85000000000+86875000000+88437500000+90000000000+90312500000+90312500000
558+89375000000+88125000000+86875000000+86250000000+84375000000+80000000000
526+71562500000+70625000000+82187500000+84062500000+86562500000+87812500000
495+90312500000+92187500000+92187500000+91875000000+92187500000+91875000000
463+91562500000+90937500000+90312500000+89062500000+88125000000+86875000000
432+85625000000+84687500000+84375000000+84062500000+84062500000+84062500000
400+83750000000
##END=
