##TITLE=phenanthrene
##JCAMP-DX=4.24
##DATA TYPE=INFRARED SPECTRUM
##DATE=10/06/2025
##SAMPLING PROCEDURE=ATR
##ORIGIN=SDBS
##XUNITS=1/CM
##YUNITS=TRANSMITTANCE
##RESOLUTION=5.2631578947368425
##FIRSTX=4000.0
##LASTX=400.0
##DELTAX=-5.2631578947368425
##MAXY=94.6875
##MINY=0.0
##XFACTOR=1
##YFACTOR=1
##NPOINTS=685
##FIRSTY=0.0
##XYDATA=(X++(Y..Y))
4000+0+89687500000+89375000000+89375000000+89375000000+89062500000
3968+89062500000+89062500000+89062500000+89062500000+89062500000+88750000000
3937+88750000000+88437500000+88125000000+88125000000+88125000000+88125000000
3905+88125000000+88125000000+88125000000+88125000000+88125000000+87812500000
3874+87812500000+87812500000+87812500000+87812500000+87812500000+87500000000
3842+87500000000+87500000000+87500000000+87500000000+87500000000+87187500000
3811+87187500000+87500000000+87500000000+87500000000+87500000000+87187500000
3779+87187500000+86875000000+87187500000+87187500000+87187500000+87187500000
3747+87187500000+87187500000+87187500000+87187500000+87187500000+87187500000
3716+87187500000+87187500000+87500000000+87500000000+87500000000+87500000000
3684+87187500000+87187500000+87187500000+87187500000+87187500000+86875000000
3653+86875000000+86875000000+86875000000+86875000000+86875000000+86875000000
3621+86875000000+86562500000+86562500000+86562500000+86562500000+86250000000
3589+86250000000+85937500000+85937500000+85937500000+85937500000+85937500000
3558+85937500000+85937500000+85937500000+85937500000+85937500000+85937500000
3526+85937500000+85937500000+85625000000+85625000000+85625000000+85625000000
3495+85625000000+85625000000+85312500000+85312500000+85000000000+85000000000
3463+85000000000+85000000000+85000000000+85000000000+85000000000+85000000000
3432+85000000000+85000000000+85000000000+85000000000+85312500000+85312500000
3400+85625000000+85625000000+85625000000+85625000000+85937500000+85625000000
3368+84687500000+83437500000+82187500000+81562500000+79687500000+77812500000
3337+77500000000+77500000000+76875000000+75625000000+74062500000+70625000000
3305+65937500000+59062500000+46562499999+31562500000+16875000000+11250000000
3274+10000000000+10625000000+7500000000+5000000000+4687500000+5312500000
3242+8125000000+11562500000+15312500000+19375000000+21250000000+17812500000
3211+14687500000+11562500000+11875000000+22500000000+45625000000+61875000000
3179+71875000000+76562500000+80625000000+82187500000+84375000000+86250000000
3147+87187500000+87812500000+88125000000+88125000000+87812500000+87187500000
3116+86875000000+86875000000+87187500000+87500000000+87812500000+87500000000
3084+87500000000+87500000000+87812500000+88125000000+88125000000+88437500000
3053+88750000000+88750000000+89062500000+89062500000+89375000000+89375000000
3021+89687500000+90000000000+90625000000+90937500000+91250000000+91562500000
2989+91875000000+91875000000+92187500000+92187500000+92500000000+92500000000
2958+92500000000+92500000000+92812500000+92812500000+92812500000+92812500000
2926+92812500000+92500000000+92500000000+92500000000+92500000000+92500000000
2895+92500000000+92500000000+92500000000+92500000000+92500000000+92500000000
2863+92500000000+92500000000+92500000000+92500000000+92500000000+92500000000
2832+92500000000+92500000000+92500000000+92500000000+92812500000+92812500000
2800+92812500000+92812500000+92812500000+92812500000+92812500000+92812500000
2768+92812500000+93125000000+93125000000+92812500000+92812500000+93125000000
2737+93125000000+93125000000+93125000000+93125000000+93125000000+93125000000
2705+93437500000+93437500000+93125000000+93125000000+93125000000+93125000000
2674+93125000000+93437500000+93125000000+93125000000+93125000000+93437500000
2642+93437500000+93125000000+93125000000+93125000000+93125000000+93437500000
2611+93437500000+93437500000+93437500000+93437500000+93750000000+93750000000
2579+93750000000+93750000000+93750000000+93750000000+93437500000+93125000000
2547+93125000000+92812500000+92812500000+92812500000+92812500000+92812500000
2516+92812500000+92500000000+92500000000+92500000000+92500000000+92500000000
2484+92500000000+92500000000+92500000000+92500000000+92500000000+92812500000
2453+92812500000+92812500000+92812500000+93125000000+93125000000+93125000000
2421+93125000000+93125000000+93125000000+93125000000+92812500000+92812500000
2389+92812500000+92812500000+93125000000+92812500000+92812500000+92500000000
2358+92500000000+92187500000+92187500000+92187500000+92187500000+92500000000
2326+92500000000+92500000000+92812500000+92812500000+92812500000+92812500000
2295+92500000000+92500000000+92500000000+92500000000+92500000000+92500000000
2263+92500000000+92500000000+92500000000+92500000000+92500000000+92500000000
2232+92500000000+92500000000+92500000000+92500000000+92500000000+92500000000
2200+92500000000+92187500000+92187500000+92187500000+92187500000+92187500000
2168+92187500000+92187500000+92187500000+92187500000+92187500000+92500000000
2137+92500000000+92812500000+92812500000+92812500000+92812500000+92812500000
2105+92500000000+92500000000+92187500000+92187500000+92187500000+91875000000
2074+91875000000+91250000000+90312500000+90000000000+90000000000+90625000000
2042+91250000000+91562500000+91875000000+92187500000+92187500000+92187500000
2011+92187500000+91875000000+91875000000+91875000000+91875000000+91562500000
1979+91562500000+91562500000+91250000000+90625000000+89687500000+89687500000
1947+89687500000+90000000000+90312500000+90000000000+89687500000+83750000000
1916+83750000000+86875000000+85625000000+83437500000+80312500000+75312500000
1884+65625000000+50937500000+39062500000+38437500000+38749999999+38749999999
1853+40000000000+47500000000+52812500000+58125000000+63125000000+71875000000
1821+74687500000+76562500000+83125000000+83750000000+85312500000+87187500000
1789+87500000000+87187500000+86562500000+85312500000+82187500000+73437500000
1758+66250000000+56562500000+54687500000+57500000000+69375000000+70312500000
1726+73750000000+79687500000+81562500000+81875000000+82187500000+83437500000
1695+84062500000+85312500000+86250000000+86875000000+87187500000+87187500000
1663+86875000000+86562500000+86562500000+80000000000+79062500000+82187500000
1632+84687500000+85937500000+86875000000+87500000000+87812500000+88437500000
1600+88750000000+89062500000+89375000000+89687500000+89687500000+89687500000
1568+85625000000+75625000000+79687500000+86250000000+86562500000+87812500000
1537+89062500000+89375000000+89687500000+90000000000+90312500000+90312500000
1505+87187500000+86875000000+90000000000+90625000000+90625000000+90625000000
1474+90625000000+90312500000+90000000000+89687500000+89375000000+89062500000
1442+89062500000+88750000000+88437500000+88437500000+80937500000+84375000000
1411+89375000000+90312500000+90625000000+90937500000+90937500000+91250000000
1379+91562500000+91562500000+91875000000+92187500000+91250000000+86875000000
1347+90312500000+91562500000+91562500000+91562500000+91562500000+91562500000
1316+91875000000+91875000000+92187500000+92500000000+92500000000+92187500000
1284+90000000000+85937500000+89062500000+90312500000+90937500000+91250000000
1253+91875000000+91875000000+92187500000+91875000000+91875000000+89375000000
1221+91562500000+92187500000+92500000000+92187500000+91875000000+91875000000
1189+91562500000+91562500000+91562500000+91562500000+91562500000+90937500000
1158+81875000000+82500000000+87500000000+89062500000+90312500000+90937500000
1126+91250000000+91562500000+91875000000+91875000000+91875000000+91875000000
1095+91875000000+91875000000+91875000000+91875000000+91875000000+91875000000
1063+92187500000+91250000000+82812500000+81875000000+88750000000+82812500000
1032+82500000000+90937500000+92187500000+92500000000+93125000000+93125000000
1000+92500000000+90000000000+88125000000+82500000000+67812500000+61250000000
968+60000000000+55312500000+65000000000+85937500000+89062500000+90937500000
937+91562500000+91875000000+91875000000+91875000000+92187500000+92187500000
905+92187500000+92187500000+91875000000+91562500000+90312500000+88437500000
874+85937500000+77812500000+58125000000+31562500000+31562500000+56875000000
842+73125000000+75937500000+70312500000+76875000000+81250000000+87812500000
811+90000000000+91250000000+92187500000+92500000000+92812500000+93125000000
779+93125000000+93437500000+93437500000+93437500000+93437500000+93125000000
747+93125000000+93125000000+93125000000+93437500000+93437500000+93437500000
716+93750000000+93750000000+94062500000+93750000000+84687500000+93437500000
684+94062500000+94062500000+94375000000+94375000000+94062500000+93750000000
653+93437500000+93437500000+93437500000+93437500000+93437500000+93750000000
621+94062500000+94375000000+94375000000+94375000000+94375000000+94687500000
589+94687500000+94687500000+94687500000+94687500000+94687500000+94687500000
558+94687500000+93750000000+92812500000+91875000000+91250000000+90937500000
526+90625000000+90625000000+90625000000+90625000000+90625000000+90937500000
495+91250000000+91562500000+92187500000+92812500000+93437500000+94062500000
463+94375000000+94062500000+93125000000+91875000000+90625000000+89062500000
432+87187500000+85000000000+83750000000+81875000000+80625000000+79687500000
400+79375000000
##END=
