##TITLE=pivalonitrile
##JCAMP-DX=4.24
##DATA TYPE=INFRARED SPECTRUM
##DATE=10/06/2025
##SAMPLING PROCEDURE=ATR
##ORIGIN=SDBS
##XUNITS=1/CM
##YUNITS=TRANSMITTANCE
##RESOLUTION=5.2631578947368425
##FIRSTX=4000.0
##LASTX=400.0
##DELTAX=-5.2631578947368425
##MAXY=94.6875
##MINY=0.0
##XFACTOR=1
##YFACTOR=1
##NPOINTS=685
##FIRSTY=0.0
##XYDATA=(X++(Y..Y))
4000+0+92187500000+91875000000+91875000000+91875000000+91875000000
3968+91562500000+91250000000+91250000000+90937500000+90625000000+90312500000
3937+90312500000+90625000000+90937500000+90937500000+90937500000+90937500000
3905+90937500000+90937500000+90625000000+90312500000+90312500000+90000000000
3874+89687500000+89687500000+89687500000+90000000000+89687500000+89687500000
3842+89687500000+89687500000+89375000000+89375000000+89375000000+89375000000
3811+89375000000+89062500000+88750000000+88125000000+87187500000+86562500000
3779+85937500000+85000000000+84375000000+83750000000+83437500000+83437500000
3747+83437500000+83437500000+83750000000+84375000000+84375000000+84062500000
3716+83750000000+83125000000+82500000000+81250000000+80000000000+79375000000
3684+79062500000+79062500000+79062500000+79062500000+78750000000+78750000000
3653+78437500000+78125000000+78125000000+77812500000+77187500000+76875000000
3621+75937500000+75000000000+74375000000+73750000000+72812500000+72187500000
3589+71875000000+71875000000+71875000000+71875000000+71875000000+72187500000
3558+72500000000+72500000000+72500000000+72812500000+73437500000+74375000000
3526+75312500000+75937500000+76562500000+77187500000+78125000000+78750000000
3495+79375000000+79375000000+79687500000+79687500000+80000000000+80312500000
3463+80937500000+81250000000+81562500000+81875000000+81875000000+82187500000
3432+82187500000+82812500000+83437500000+84062500000+84687500000+85000000000
3400+85312500000+85625000000+85000000000+81875000000+80312500000+81562500000
3368+84375000000+85312500000+85312500000+85312500000+85000000000+84375000000
3337+83437500000+82187500000+80000000000+76250000000+70937500000+60000000000
3305+38125000000+12500000000+4687500000+4687500000+9687500000+22812500000
3274+28437500000+25000000000+22812500000+28125000000+38437500000+36562500000
3242+36562500000+45312500000+48437500000+38749999999+35625000000+40625000000
3211+58125000000+67187500000+72812500000+77812500000+80312500000+81250000000
3179+83750000000+84062500000+85625000000+86875000000+87812500000+88750000000
3147+89687500000+89687500000+90000000000+90000000000+90000000000+90000000000
3116+90312500000+90625000000+90937500000+91250000000+91562500000+91562500000
3084+91875000000+91875000000+91875000000+92187500000+92187500000+92500000000
3053+92812500000+92500000000+91562500000+90625000000+90937500000+92500000000
3021+93125000000+92500000000+92500000000+93437500000+94375000000+94375000000
2989+94687500000+94687500000+94687500000+94687500000+94375000000+93437500000
2958+93125000000+92500000000+92500000000+92812500000+93125000000+93437500000
2926+94062500000+94062500000+93750000000+93437500000+92812500000+92187500000
2895+92187500000+92187500000+93125000000+94062500000+94062500000+93437500000
2863+93125000000+92500000000+92187500000+91875000000+91562500000+90625000000
2832+90312500000+90000000000+90000000000+93125000000+93750000000+93750000000
2800+93437500000+92812500000+89375000000+73750000000+44687500000+36875000000
2768+56562500000+86250000000+92187500000+93125000000+93750000000+93750000000
2737+94062500000+94062500000+94062500000+94062500000+94062500000+94062500000
2705+94062500000+94062500000+94062500000+94062500000+94062500000+93750000000
2674+93437500000+93437500000+93125000000+92812500000+92812500000+92812500000
2642+92812500000+93125000000+93125000000+93125000000+93125000000+92812500000
2611+92812500000+92812500000+92812500000+92812500000+92812500000+92812500000
2579+92500000000+92500000000+92500000000+92500000000+92500000000+92500000000
2547+92500000000+92500000000+92500000000+92187500000+92187500000+92187500000
2516+92187500000+92187500000+92187500000+92187500000+92187500000+92187500000
2484+91875000000+91875000000+91875000000+91875000000+91875000000+91875000000
2453+91875000000+92187500000+92187500000+92187500000+92500000000+92500000000
2421+92500000000+92187500000+92187500000+92187500000+92187500000+92187500000
2389+92187500000+91875000000+91875000000+91562500000+91562500000+91250000000
2358+90937500000+90937500000+90937500000+90625000000+90625000000+90625000000
2326+90312500000+90000000000+89375000000+89062500000+88437500000+87812500000
2295+87187500000+85937500000+85000000000+83437500000+81875000000+79375000000
2263+76875000000+74687500000+71875000000+67812500000+61562500000+53750000000
2232+47187500000+45937500000+46562499999+52187500000+56875000000+58750000000
2200+60625000000+63125000000+65625000000+67500000000+69062500000+71250000000
2168+72812500000+74062500000+75000000000+76250000000+77812500000+78750000000
2137+80000000000+81250000000+81562500000+81875000000+81875000000+81562500000
2105+81250000000+80937500000+80937500000+81250000000+81875000000+82500000000
2074+83437500000+84062500000+84375000000+84687500000+85000000000+85000000000
2042+85000000000+84687500000+84375000000+84062500000+83437500000+82187500000
2011+80937500000+79687500000+78750000000+76875000000+75000000000+73125000000
1979+71250000000+69062500000+66562500000+64062500000+62500000000+60937500000
1947+60625000000+60937500000+62500000000+64687500000+66875000000+69062500000
1916+70000000000+67187500000+60937500000+47500000000+26562500000+20000000000
1884+25312500000+41250000000+27500000000+20000000000+20937500000+33750000000
1853+44999999999+51250000000+57500000000+62812500000+66250000000+69375000000
1821+71562500000+72187500000+71875000000+71250000000+70312500000+69687500000
1789+66562500000+60000000000+60312500000+67187500000+69062500000+67187500000
1758+62500000000+56875000000+41562500000+20625000000+20312500000+40937500000
1726+60625000000+69062500000+74062500000+77812500000+79062500000+80000000000
1695+80000000000+79687500000+79687500000+79687500000+79687500000+79687500000
1663+78750000000+77500000000+75937500000+74687500000+74687500000+75000000000
1632+75312500000+75312500000+75000000000+74375000000+73125000000+71875000000
1600+69375000000+65937500000+60000000000+53750000000+44062500000+33437500000
1568+25937500000+23125000000+24062500000+34375000000+45312500000+53437500000
1537+57500000000+57812500000+46562499999+30312500000+29375000000+41250000000
1505+59062500000+69375000000+74375000000+77500000000+78750000000+79375000000
1474+77500000000+75937500000+75937500000+76250000000+76250000000+76250000000
1442+75937500000+75312500000+74375000000+74062500000+74062500000+75625000000
1411+79687500000+81562500000+82187500000+82187500000+81250000000+80000000000
1379+79687500000+79687500000+79375000000+78750000000+78750000000+78750000000
1347+78750000000+78437500000+78750000000+79687500000+80312500000+80937500000
1316+81562500000+81250000000+80312500000+78125000000+73437500000+69375000000
1284+66562500000+66562500000+68750000000+73437500000+77500000000+79687500000
1253+82187500000+83750000000+84687500000+85312500000+85937500000+86562500000
1221+86875000000+87500000000+87500000000+87812500000+88125000000+88437500000
1189+88750000000+89062500000+89687500000+90000000000+90312500000+90000000000
1158+88750000000+86875000000+83125000000+76875000000+76562500000+82500000000
1126+87500000000+89687500000+90937500000+91562500000+91875000000+91875000000
1095+92187500000+92187500000+92187500000+92500000000+92812500000+92812500000
1063+92812500000+92500000000+89375000000+86562500000+86875000000+88125000000
1032+90937500000+93125000000+93437500000+93750000000+94062500000+94375000000
1000+94375000000+94375000000+94375000000+94375000000+94375000000+94062500000
968+93750000000+93437500000+93125000000+92812500000+92500000000+92187500000
937+91562500000+90000000000+86875000000+83750000000+83750000000+85000000000
905+87500000000+90625000000+91875000000+91875000000+92500000000+93125000000
874+93750000000+93437500000+93125000000+93125000000+92812500000+92812500000
842+92500000000+92812500000+92812500000+92500000000+92500000000+92187500000
811+91562500000+91250000000+88125000000+75000000000+64687500000+76562500000
779+89062500000+91250000000+91875000000+91875000000+92187500000+92187500000
747+92187500000+92187500000+92187500000+91875000000+91875000000+91875000000
716+91875000000+91875000000+91875000000+91875000000+92187500000+92187500000
684+92187500000+92500000000+92187500000+92187500000+91875000000+91875000000
653+91562500000+91562500000+91562500000+91562500000+91875000000+92187500000
621+92812500000+93125000000+93437500000+93750000000+93750000000+94062500000
589+94375000000+94687500000+94687500000+94687500000+94687500000+94375000000
558+93750000000+93437500000+93125000000+93125000000+92812500000+92812500000
526+92812500000+92812500000+92812500000+92500000000+92500000000+92500000000
495+92500000000+92812500000+93437500000+94062500000+94375000000+94062500000
463+93750000000+93125000000+92500000000+92500000000+92500000000+92500000000
432+91875000000+90625000000+89375000000+87500000000+85625000000+84687500000
400+84062500000
##END=
