##TITLE=propylenediamine
##JCAMP-DX=4.24
##DATA TYPE=INFRARED SPECTRUM
##DATE=10/06/2025
##SAMPLING PROCEDURE=ATR
##ORIGIN=SDBS
##XUNITS=1/CM
##YUNITS=TRANSMITTANCE
##RESOLUTION=5.2631578947368425
##FIRSTX=4000.0
##LASTX=400.0
##DELTAX=-5.2631578947368425
##MAXY=95.0
##MINY=0.0
##XFACTOR=1
##YFACTOR=1
##NPOINTS=685
##FIRSTY=0.0
##XYDATA=(X++(Y..Y))
4000+0+91562500000+91562500000+91875000000+91875000000+91875000000
3968+91875000000+92187500000+92187500000+92187500000+91875000000+91875000000
3937+91875000000+91875000000+91875000000+91875000000+91875000000+91875000000
3905+91875000000+91875000000+91875000000+91562500000+91562500000+91250000000
3874+90937500000+90937500000+90625000000+90625000000+90312500000+90312500000
3842+90000000000+89687500000+89687500000+89375000000+89375000000+89375000000
3811+89062500000+89062500000+88750000000+88750000000+88125000000+87812500000
3779+87187500000+86562500000+86250000000+85937500000+85937500000+85312500000
3747+85000000000+84687500000+84062500000+83437500000+83125000000+82500000000
3716+81875000000+80937500000+80312500000+79375000000+78437500000+77812500000
3684+76875000000+75937500000+75000000000+74062500000+72812500000+71562500000
3653+70312500000+69062500000+67500000000+65625000000+64062500000+62500000000
3621+60625000000+58750000000+56875000000+55000000000+52812500000+49062500000
3589+44687500000+39375000000+31250000000+23437500000+17500000000+14687500000
3558+13125000000+13125000000+13750000000+15312500000+17187500000+19375000000
3526+19375000000+17812500000+16250000000+15000000000+14375000000+14375000000
3495+14687500000+15625000000+17187500000+19062500000+20625000000+22500000000
3463+24062500000+25000000000+25625000000+25937500000+25937500000+26250000000
3432+26562500000+27812500000+30312500000+33750000000+36875000000+41250000000
3400+45312500000+49062500000+51562500000+54375000000+56562500000+58437500000
3368+59687500000+61250000000+62187500000+62812500000+63437500000+64062500000
3337+64375000000+64062500000+63437500000+62187500000+60000000000+56875000000
3305+50625000000+39375000000+22812500000+12187500000+6562500000+4687500000
3274+4687500000+6562500000+9375000000+6875000000+6562500000+6875000000
3242+6875000000+7187500000+8437500000+10000000000+10312500000+9375000000
3211+9375000000+9375000000+9687500000+10625000000+12500000000+14062500000
3179+17500000000+22187500000+27812500000+32500000000+38749999999+42812500000
3147+44375000000+44999999999+46562499999+48750000000+50312500000+51562500000
3116+54375000000+57812500000+61250000000+63750000000+66562500000+67187500000
3084+66250000000+65312500000+65000000000+65312500000+66562500000+68125000000
3053+69687500000+70625000000+71562500000+72812500000+75312500000+77500000000
3021+79375000000+80625000000+81875000000+83125000000+84375000000+85000000000
2989+85625000000+86250000000+86562500000+86875000000+87500000000+88125000000
2958+88437500000+89062500000+89375000000+89687500000+90000000000+90312500000
2926+90625000000+90937500000+90937500000+90937500000+91250000000+91250000000
2895+91250000000+91250000000+91250000000+91562500000+91875000000+91875000000
2863+92187500000+92187500000+92187500000+92187500000+92187500000+92500000000
2832+92500000000+92500000000+92500000000+92500000000+92500000000+92500000000
2800+92500000000+92500000000+92500000000+92500000000+92812500000+92812500000
2768+93125000000+93125000000+93437500000+93437500000+93437500000+93437500000
2737+93437500000+93750000000+93750000000+93750000000+93750000000+94062500000
2705+94062500000+94062500000+94062500000+94062500000+94062500000+94062500000
2674+94062500000+93750000000+93750000000+93437500000+93437500000+93125000000
2642+92812500000+92500000000+92187500000+91875000000+91562500000+91250000000
2611+90937500000+90937500000+90937500000+90625000000+90625000000+90625000000
2579+90625000000+90625000000+90312500000+90312500000+90312500000+90312500000
2547+90312500000+90312500000+90625000000+90625000000+90625000000+90625000000
2516+90937500000+90937500000+90937500000+91250000000+91250000000+91250000000
2484+91562500000+91562500000+91562500000+91562500000+91562500000+91562500000
2453+91562500000+91562500000+91875000000+91875000000+91875000000+91875000000
2421+92187500000+92187500000+92500000000+92500000000+92812500000+92812500000
2389+93125000000+93125000000+93437500000+93437500000+93750000000+93750000000
2358+94062500000+94375000000+94375000000+94375000000+94687500000+94687500000
2326+95000000000+95000000000+94687500000+94687500000+94375000000+94375000000
2295+94062500000+93750000000+93437500000+93125000000+92500000000+92187500000
2263+91562500000+90937500000+90625000000+89687500000+89062500000+88125000000
2232+87187500000+86250000000+85000000000+83750000000+82500000000+80937500000
2200+79062500000+77187500000+75937500000+73750000000+71562500000+69375000000
2168+67500000000+65000000000+62812500000+60000000000+57500000000+54687500000
2137+51562500000+48124999999+45625000000+42187500000+38749999999+35000000000
2105+32500000000+29062500000+26250000000+23437500000+21250000000+19062500000
2074+17500000000+16875000000+16562500000+16562500000+16562500000+16562500000
2042+16875000000+17187500000+17812500000+19375000000+21562500000+23437500000
2011+26250000000+29062500000+32500000000+35625000000+39687500000+43437499999
1979+47187500000+49687499999+53125000000+56250000000+59062500000+60937500000
1947+62812500000+64062500000+65000000000+66250000000+67500000000+69062500000
1916+70000000000+69687500000+68750000000+67187500000+65312500000+61562500000
1884+55000000000+47500000000+37500000000+29687500000+25625000000+24375000000
1853+24687500000+27812500000+35937500000+46250000000+54687500000+62187500000
1821+67187500000+69687500000+71562500000+72500000000+72187500000+70312500000
1789+65937500000+59062500000+50000000000+42812500000+37187499999+33750000000
1758+30312500000+26562500000+23437500000+23437500000+25625000000+30000000000
1726+34687500000+37500000000+41250000000+40000000000+40000000000+43437499999
1695+47187500000+50625000000+53125000000+55000000000+56562500000+58437500000
1663+58437500000+57812500000+56875000000+55312500000+54062500000+54062500000
1632+55312500000+58437500000+61250000000+65000000000+68125000000+70937500000
1600+72812500000+74687500000+76250000000+75937500000+75000000000+74375000000
1568+74375000000+74375000000+75312500000+76562500000+77812500000+79375000000
1537+80312500000+80625000000+80000000000+78750000000+75937500000+72500000000
1505+69062500000+66562500000+63437500000+60312500000+58750000000+58750000000
1474+59375000000+60625000000+62500000000+63750000000+63125000000+61562500000
1442+60312500000+59062500000+55937500000+52812500000+52500000000+52812500000
1411+56250000000+60000000000+61562500000+61875000000+61875000000+62812500000
1379+64062500000+65000000000+63437500000+59375000000+55312500000+50312500000
1347+45312500000+41562500000+37812500000+34687500000+31562500000+28750000000
1316+27187500000+26875000000+26875000000+28750000000+31875000000+34687500000
1284+38125000000+42187500000+45625000000+47812500000+47812500000+46875000000
1253+45625000000+44999999999+44687500000+44687500000+44999999999+44999999999
1221+44375000000+43125000000+41562500000+39062500000+35625000000+32187500000
1189+29375000000+25937500000+23437500000+21250000000+19687500000+18125000000
1158+16562500000+15937500000+15625000000+15625000000+15625000000+15625000000
1126+15312500000+14687500000+14062500000+13125000000+12500000000+12187500000
1095+11562500000+11250000000+10625000000+10312500000+10000000000+9375000000
1063+9062500000+9062500000+8750000000+8750000000+8437500000+8437500000
1032+8437500000+8437500000+8750000000+8750000000+9062500000+9375000000
1000+9687500000+10312500000+10625000000+11562500000+12500000000+12812500000
968+12812500000+12812500000+12812500000+12812500000+13437500000+14687500000
937+15937500000+17500000000+18750000000+20312500000+22187500000+25000000000
905+27812500000+31250000000+34062500000+37187499999+40312499999+43750000000
874+46562499999+49687499999+52187500000+55000000000+57500000000+60000000000
842+62187500000+64375000000+65937500000+67500000000+69062500000+70625000000
811+71875000000+73437500000+74687500000+75937500000+76875000000+77812500000
779+79062500000+80000000000+80937500000+81875000000+82812500000+83750000000
747+84062500000+84687500000+85000000000+85000000000+84375000000+82187500000
716+78437500000+73750000000+66875000000+63437500000+63437500000+65625000000
684+70312500000+76250000000+80937500000+84062500000+85937500000+87812500000
653+89062500000+90000000000+90625000000+91250000000+91562500000+91875000000
621+91875000000+91875000000+91562500000+90937500000+90000000000+88437500000
589+86250000000+83750000000+80000000000+75312500000+69375000000+63125000000
558+55625000000+49375000000+47812500000+48124999999+51562500000+58125000000
526+65625000000+70000000000+69375000000+68125000000+67500000000+66562500000
495+65937500000+65937500000+65937500000+65625000000+65000000000+64062500000
463+63125000000+61875000000+60625000000+59375000000+58125000000+56562500000
432+54687500000+52500000000+50625000000+48124999999+45937500000+44375000000
400+44062500000
##END=
