##TITLE=propyl 2-furoate
##JCAMP-DX=4.24
##DATA TYPE=INFRARED SPECTRUM
##DATE=10/06/2025
##SAMPLING PROCEDURE=ATR
##ORIGIN=SDBS
##XUNITS=1/CM
##YUNITS=TRANSMITTANCE
##RESOLUTION=5.2631578947368425
##FIRSTX=4000.0
##LASTX=400.0
##DELTAX=-5.2631578947368425
##MAXY=95.0
##MINY=0.0
##XFACTOR=1
##YFACTOR=1
##NPOINTS=685
##FIRSTY=0.0
##XYDATA=(X++(Y..Y))
4000+0+93750000000+94062500000+94375000000+94375000000+94375000000
3968+94375000000+94687500000+94375000000+94375000000+94375000000+94375000000
3937+94375000000+94375000000+94375000000+94375000000+94375000000+94062500000
3905+94062500000+94062500000+94062500000+94062500000+94375000000+94375000000
3874+94375000000+94375000000+94062500000+94062500000+94375000000+94375000000
3842+94062500000+94062500000+93750000000+93437500000+93437500000+93437500000
3811+93437500000+93750000000+93437500000+93125000000+92500000000+91562500000
3779+90625000000+89375000000+88437500000+87187500000+85937500000+84687500000
3747+83750000000+82500000000+81250000000+80312500000+79687500000+78437500000
3716+77187500000+75937500000+74375000000+72812500000+71562500000+70937500000
3684+70000000000+69375000000+68750000000+68125000000+67812500000+67187500000
3653+67187500000+66875000000+66875000000+66875000000+66875000000+66562500000
3621+66562500000+66562500000+66562500000+66875000000+66875000000+67500000000
3589+68125000000+68437500000+69062500000+69687500000+70000000000+70312500000
3558+70625000000+70937500000+70937500000+70937500000+70937500000+70937500000
3526+70625000000+70312500000+70000000000+69687500000+69687500000+69375000000
3495+69375000000+69375000000+69062500000+68750000000+68437500000+68437500000
3463+68437500000+68125000000+67812500000+67812500000+67500000000+67500000000
3432+67187500000+66562500000+63437500000+62500000000+59062500000+58750000000
3400+58750000000+60000000000+59687500000+62500000000+66875000000+69687500000
3368+70625000000+71562500000+72187500000+72500000000+72500000000+72187500000
3337+71875000000+71875000000+71250000000+69687500000+67187500000+62812500000
3305+55000000000+43125000000+27500000000+20000000000+18437500000+19375000000
3274+26562500000+31875000000+30625000000+32812500000+37500000000+43750000000
3242+49375000000+46875000000+46875000000+39687500000+38437500000+45937500000
3211+57500000000+60937500000+66875000000+72187500000+74375000000+75937500000
3179+78125000000+78437500000+79375000000+80000000000+80625000000+81250000000
3147+81562500000+82187500000+82812500000+83125000000+83437500000+83750000000
3116+84375000000+85000000000+85312500000+85312500000+85000000000+85000000000
3084+85000000000+85000000000+84375000000+84375000000+84375000000+84375000000
3053+85000000000+85312500000+85625000000+85625000000+85625000000+85937500000
3021+85937500000+86250000000+86875000000+86562500000+86250000000+85937500000
2989+86250000000+86875000000+87187500000+87500000000+87500000000+87500000000
2958+87500000000+87500000000+88125000000+88437500000+88750000000+89062500000
2926+89375000000+90000000000+90312500000+90625000000+90625000000+90625000000
2895+90625000000+90937500000+91250000000+91875000000+91875000000+92187500000
2863+92187500000+92187500000+92500000000+92500000000+92500000000+92500000000
2832+92812500000+92812500000+93125000000+93437500000+93750000000+94062500000
2800+94375000000+94375000000+94375000000+93437500000+93437500000+93437500000
2768+93437500000+93750000000+93750000000+93750000000+94062500000+94062500000
2737+94375000000+94687500000+95000000000+95000000000+94687500000+94687500000
2705+94687500000+94375000000+93750000000+93437500000+92812500000+92500000000
2674+92500000000+92812500000+93125000000+93437500000+93437500000+93437500000
2642+93125000000+93125000000+93125000000+93125000000+93125000000+93125000000
2611+93125000000+93125000000+93125000000+93125000000+93125000000+93125000000
2579+93125000000+93125000000+93125000000+93125000000+93125000000+92812500000
2547+92812500000+92500000000+92187500000+92187500000+92187500000+91875000000
2516+91875000000+91875000000+91875000000+91875000000+91875000000+91875000000
2484+91875000000+91875000000+91875000000+91875000000+91875000000+91875000000
2453+91562500000+91250000000+90937500000+90625000000+90625000000+90312500000
2421+90000000000+89687500000+89375000000+89062500000+88437500000+88125000000
2389+87187500000+86250000000+84687500000+82812500000+80312500000+77187500000
2358+73437500000+69375000000+63750000000+57187500000+51250000000+43750000000
2326+37812500000+34375000000+31562500000+29062500000+26250000000+26250000000
2295+27187500000+27500000000+25625000000+23125000000+20625000000+16562500000
2263+12500000000+9375000000+7500000000+5937500000+5000000000+4687500000
2232+4687500000+5000000000+5312500000+6250000000+7812500000+10000000000
2200+14062500000+19375000000+24062500000+27812500000+32187500000+37187499999
2168+42500000000+47500000000+52812500000+57500000000+61562500000+64062500000
2137+66562500000+68437500000+69687500000+70000000000+70937500000+71562500000
2105+72187500000+72812500000+73437500000+74375000000+75000000000+75625000000
2074+76562500000+77187500000+77187500000+76562500000+76562500000+73125000000
2042+63437500000+40937500000+35937500000+40937500000+50625000000+45625000000
2011+51250000000+72812500000+81562500000+85312500000+86875000000+87500000000
1979+86562500000+85000000000+82812500000+81875000000+81562500000+81250000000
1947+81250000000+81250000000+81875000000+82500000000+82187500000+80312500000
1916+76875000000+70312500000+56875000000+36562500000+23437500000+17812500000
1884+17187500000+18125000000+23750000000+30937500000+36875000000+42187500000
1853+47500000000+54062500000+58437500000+60625000000+61562500000+65000000000
1821+65625000000+63437500000+60625000000+57187500000+52500000000+44687500000
1789+34062500000+26875000000+26875000000+30625000000+34062500000+37500000000
1758+37500000000+40937500000+45312500000+50937500000+54375000000+53437500000
1726+51562500000+50000000000+48437500000+47187500000+47187500000+50937500000
1695+52187500000+49687499999+44999999999+37500000000+28750000000+20937500000
1663+15312500000+14375000000+12812500000+8750000000+6562500000+5937500000
1632+6562500000+9687500000+15312500000+21562500000+25312500000+27812500000
1600+29687500000+31250000000+33125000000+35937500000+37187499999+38125000000
1568+38437500000+38437500000+35937500000+28437500000+21875000000+22187500000
1537+27500000000+31562500000+34062500000+35000000000+34375000000+33125000000
1505+30000000000+25937500000+20312500000+14375000000+9687500000+7812500000
1474+8437500000+10937500000+12812500000+15625000000+19687500000+25000000000
1442+28437500000+30312500000+31875000000+34375000000+33125000000+28437500000
1411+21562500000+15312500000+12187500000+10937500000+10937500000+12500000000
1379+16250000000+22812500000+30625000000+35312500000+37500000000+38437500000
1347+40937500000+38437500000+30937500000+29687500000+32187500000+38437500000
1316+40312499999+39062500000+38437500000+38749999999+41874999999+44687500000
1284+44999999999+44687500000+45312500000+47812500000+46250000000+38749999999
1253+30000000000+25937500000+26250000000+35625000000+47187500000+52187500000
1221+55625000000+55937500000+54375000000+51875000000+49375000000+45625000000
1189+43437499999+42812500000+43125000000+45312500000+46875000000+41874999999
1158+39687500000+39687500000+41874999999+46562499999+52500000000+51562500000
1126+50937500000+50937500000+51562500000+54375000000+54375000000+54062500000
1095+54687500000+57812500000+60000000000+60937500000+57187500000+37812500000
1063+38437500000+62500000000+67812500000+71875000000+74375000000+75312500000
1032+76250000000+77812500000+79062500000+79375000000+79375000000+79687500000
1000+79687500000+79687500000+79062500000+77812500000+76250000000+72187500000
968+66562500000+65625000000+66562500000+71562500000+72187500000+70000000000
937+65937500000+60625000000+53437500000+45312500000+35312500000+26875000000
905+21875000000+21875000000+22812500000+28750000000+40937500000+54375000000
874+64062500000+72812500000+78437500000+81875000000+82812500000+83437500000
842+83750000000+83750000000+84062500000+84687500000+86250000000+88125000000
811+88125000000+88750000000+89062500000+89687500000+89687500000+90000000000
779+90000000000+90312500000+90312500000+90625000000+90625000000+90937500000
747+90937500000+91250000000+91562500000+91562500000+91562500000+91250000000
716+90312500000+88750000000+83437500000+75000000000+72812500000+72812500000
684+75312500000+80000000000+70937500000+60000000000+60625000000+78750000000
653+85000000000+88750000000+90312500000+90937500000+91250000000+91875000000
621+92187500000+92500000000+92812500000+93125000000+92812500000+92500000000
589+92187500000+91875000000+91562500000+90937500000+90312500000+90000000000
558+89687500000+89687500000+89375000000+89375000000+89375000000+89375000000
526+89375000000+89687500000+89687500000+89687500000+89687500000+89687500000
495+89687500000+90000000000+90625000000+91250000000+91875000000+92812500000
463+93437500000+94062500000+94375000000+94687500000+94375000000+94062500000
432+93125000000+91875000000+90937500000+89375000000+87812500000+86875000000
400+86562500000
##END=
