##TITLE=pyridine 1-oxide
##JCAMP-DX=4.24
##DATA TYPE=INFRARED SPECTRUM
##DATE=10/06/2025
##SAMPLING PROCEDURE=ATR
##ORIGIN=SDBS
##XUNITS=1/CM
##YUNITS=TRANSMITTANCE
##RESOLUTION=5.2631578947368425
##FIRSTX=4000.0
##LASTX=400.0
##DELTAX=-5.2631578947368425
##MAXY=95.0
##MINY=0.0
##XFACTOR=1
##YFACTOR=1
##NPOINTS=685
##FIRSTY=0.0
##XYDATA=(X++(Y..Y))
4000+0+87500000000+87500000000+87812500000+87812500000+87812500000
3968+87500000000+87187500000+87187500000+86875000000+86875000000+86875000000
3937+87187500000+87187500000+87500000000+87812500000+87812500000+87812500000
3905+87812500000+87812500000+88125000000+88125000000+88125000000+88125000000
3874+88125000000+88125000000+88125000000+88125000000+88125000000+88125000000
3842+88125000000+88125000000+87812500000+87500000000+87187500000+87187500000
3811+87187500000+87187500000+87500000000+87500000000+86875000000+85937500000
3779+85000000000+83750000000+83125000000+81875000000+80625000000+79062500000
3747+77812500000+75625000000+73125000000+70000000000+67500000000+64375000000
3716+61875000000+59375000000+55937500000+52812500000+50000000000+47500000000
3684+44999999999+42500000000+39687500000+37187499999+35312500000+32812500000
3653+31250000000+29687500000+28125000000+26875000000+25625000000+25000000000
3621+24062500000+23125000000+22500000000+21875000000+21562500000+21562500000
3589+21250000000+20937500000+20937500000+20937500000+20937500000+21250000000
3558+21250000000+21562500000+22187500000+22812500000+23437500000+24062500000
3526+24375000000+25000000000+25312500000+25625000000+26250000000+26562500000
3495+26875000000+27500000000+27812500000+28437500000+29062500000+30000000000
3463+30937500000+32187500000+33437500000+34375000000+35937500000+37187499999
3432+38437500000+39687500000+40937500000+41874999999+43125000000+44062500000
3400+44062500000+40937500000+34375000000+28125000000+25937500000+26250000000
3368+29687500000+30625000000+29062500000+29062500000+30625000000+32187500000
3337+32500000000+34687500000+38437500000+44062500000+41562500000+41562500000
3305+45625000000+54062500000+59062500000+60937500000+60937500000+61562500000
3274+62187500000+61875000000+61562500000+61562500000+61875000000+63125000000
3242+65625000000+67812500000+69687500000+70625000000+72500000000+73437500000
3211+73437500000+73437500000+73437500000+73750000000+75625000000+77187500000
3179+77500000000+78125000000+79375000000+79687500000+78750000000+78437500000
3147+79375000000+83437500000+86562500000+87187500000+87500000000+87812500000
3116+88125000000+88125000000+87812500000+87812500000+87812500000+88125000000
3084+88750000000+89062500000+89062500000+88125000000+87500000000+87187500000
3053+87187500000+88750000000+89375000000+90312500000+91250000000+91562500000
3021+91875000000+91875000000+91875000000+91875000000+92187500000+91875000000
2989+91875000000+91250000000+90937500000+90312500000+88750000000+87187500000
2958+86250000000+84062500000+83125000000+82187500000+82187500000+82500000000
2926+84375000000+85000000000+85625000000+85937500000+86250000000+86250000000
2895+86562500000+87187500000+87812500000+89062500000+90312500000+90312500000
2863+90312500000+90312500000+90000000000+90000000000+90000000000+90000000000
2832+90000000000+89375000000+87187500000+87187500000+88437500000+89687500000
2800+90000000000+89687500000+89375000000+89062500000+89375000000+89375000000
2768+89687500000+90000000000+90312500000+90312500000+90312500000+90312500000
2737+90312500000+90312500000+90312500000+90312500000+90625000000+90937500000
2705+90937500000+91250000000+91250000000+91250000000+90625000000+89375000000
2674+87500000000+86250000000+85312500000+85312500000+85937500000+87812500000
2642+89687500000+91562500000+90937500000+90000000000+88750000000+88750000000
2611+89687500000+90312500000+90625000000+90625000000+90625000000+90625000000
2579+90625000000+90312500000+90312500000+90312500000+90625000000+90625000000
2547+90937500000+91250000000+91562500000+91875000000+92187500000+92500000000
2516+92812500000+93125000000+93437500000+93437500000+93125000000+93125000000
2484+92812500000+92812500000+92500000000+92187500000+92187500000+91875000000
2453+91875000000+91875000000+91562500000+91562500000+91250000000+91250000000
2421+91250000000+91250000000+91250000000+91875000000+92500000000+93125000000
2389+93437500000+94062500000+94687500000+95000000000+94687500000+94687500000
2358+94375000000+94375000000+94062500000+93437500000+93437500000+93125000000
2326+92812500000+92812500000+92812500000+92812500000+92812500000+92500000000
2295+92500000000+92187500000+92187500000+92187500000+91875000000+91875000000
2263+91875000000+91875000000+91875000000+91562500000+91250000000+90937500000
2232+90625000000+90000000000+89062500000+87187500000+85937500000+84687500000
2200+82500000000+80625000000+78750000000+76875000000+75312500000+73750000000
2168+72500000000+71250000000+70625000000+69687500000+69375000000+69375000000
2137+69375000000+70312500000+71250000000+72187500000+73125000000+74062500000
2105+75312500000+76250000000+77187500000+76562500000+74687500000+71250000000
2074+59062500000+41562500000+40625000000+46875000000+62500000000+71250000000
2042+77187500000+81250000000+85625000000+88125000000+88750000000+87187500000
2011+83750000000+79375000000+79375000000+79687500000+84375000000+87812500000
1979+90937500000+91562500000+92187500000+91875000000+91250000000+90312500000
1947+89062500000+87500000000+86250000000+84687500000+82812500000+80312500000
1916+79062500000+75625000000+70000000000+60000000000+48750000000+29687500000
1884+15000000000+9062500000+5625000000+4687500000+4687500000+7812500000
1853+15625000000+32812500000+45937500000+53750000000+58750000000+62812500000
1821+66250000000+69375000000+72187500000+75000000000+77812500000+80000000000
1789+81875000000+83750000000+85000000000+85937500000+84687500000+81875000000
1758+80625000000+80625000000+80625000000+81875000000+84062500000+84687500000
1726+85937500000+87500000000+88125000000+88437500000+88125000000+87500000000
1695+86562500000+85937500000+85625000000+85625000000+85937500000+86875000000
1663+88437500000+89375000000+89375000000+88750000000+87812500000+86562500000
1632+84687500000+82500000000+79375000000+74375000000+65937500000+58437500000
1600+50937500000+35000000000+20937500000+15312500000+11875000000+10312500000
1568+9687500000+9687500000+9687500000+10000000000+11250000000+12500000000
1537+14062500000+18437500000+26562500000+37187499999+45312500000+49375000000
1505+47500000000+44687500000+42187500000+40312499999+37187499999+31875000000
1474+25625000000+20312500000+20000000000+22187500000+32812500000+48750000000
1442+57812500000+60625000000+61250000000+61875000000+68125000000+73437500000
1411+78125000000+81562500000+83437500000+84062500000+84687500000+84687500000
1379+83750000000+83125000000+81562500000+81250000000+81562500000+83125000000
1347+84375000000+83750000000+80000000000+71562500000+64062500000+63750000000
1316+68750000000+75937500000+81250000000+83750000000+80625000000+76250000000
1284+75625000000+72187500000+67500000000+61250000000+51250000000+39062500000
1253+20937500000+17500000000+20000000000+45937500000+61250000000+67812500000
1221+76875000000+81562500000+84375000000+86250000000+87812500000+88125000000
1189+88437500000+88125000000+88125000000+88437500000+89375000000+90625000000
1158+91875000000+91875000000+90937500000+89375000000+86250000000+82187500000
1126+79062500000+76250000000+74062500000+73437500000+73437500000+74062500000
1095+76562500000+81250000000+85625000000+89062500000+90937500000+92187500000
1063+92812500000+93125000000+93125000000+92812500000+91875000000+90625000000
1032+87812500000+83125000000+75312500000+56562500000+28125000000+16562500000
1000+16250000000+17500000000+23125000000+28437500000+37812500000+48124999999
968+58437500000+65625000000+68437500000+67500000000+62187500000+54375000000
937+43437499999+33125000000+24687500000+20312500000+17187500000+15312500000
905+14687500000+15312500000+21250000000+35937500000+53125000000+63125000000
874+68125000000+70937500000+72187500000+72500000000+72187500000+71875000000
842+71562500000+71250000000+70937500000+70312500000+69375000000+67812500000
811+65312500000+61250000000+51875000000+38749999999+25000000000+18750000000
779+18125000000+19062500000+25312500000+38749999999+49375000000+52812500000
747+55000000000+58125000000+60625000000+61875000000+59062500000+57500000000
716+61250000000+62500000000+62500000000+63125000000+63750000000+64062500000
684+64062500000+64062500000+64062500000+64062500000+64062500000+64062500000
653+64375000000+64687500000+65000000000+65312500000+65000000000+64062500000
621+62187500000+58750000000+50937500000+33125000000+26250000000+26250000000
589+44062500000+58750000000+62500000000+65000000000+61562500000+57812500000
558+51562500000+49687499999+50312500000+56875000000+59687500000+64375000000
526+66562500000+67500000000+65937500000+62187500000+55312500000+45312500000
495+32500000000+28750000000+30312500000+44062500000+58125000000+59375000000
463+67187500000+73437500000+78125000000+79687500000+79687500000+78437500000
432+77187500000+76562500000+76875000000+77187500000+78125000000+79062500000
400+79687500000
##END=
