##TITLE=pyridine
##JCAMP-DX=4.24
##DATA TYPE=INFRARED SPECTRUM
##DATE=10/06/2025
##SAMPLING PROCEDURE=ATR
##ORIGIN=SDBS
##XUNITS=1/CM
##YUNITS=TRANSMITTANCE
##RESOLUTION=5.2631578947368425
##FIRSTX=4000.0
##LASTX=400.0
##DELTAX=-5.2631578947368425
##MAXY=95.0
##MINY=0.0
##XFACTOR=1
##YFACTOR=1
##NPOINTS=685
##FIRSTY=0.0
##XYDATA=(X++(Y..Y))
4000+0+91562500000+91250000000+91250000000+91250000000+91562500000
3968+91875000000+91875000000+91875000000+91875000000+91875000000+91875000000
3937+91875000000+91875000000+91875000000+91875000000+91875000000+91875000000
3905+91875000000+91875000000+91875000000+91875000000+91562500000+91562500000
3874+91562500000+91562500000+91562500000+91562500000+91562500000+91562500000
3842+91562500000+90937500000+90625000000+90000000000+89687500000+89687500000
3811+89687500000+90000000000+90625000000+90625000000+90625000000+90000000000
3779+88750000000+87812500000+87500000000+87500000000+87500000000+87500000000
3747+87812500000+87812500000+87500000000+87187500000+86562500000+85937500000
3716+85312500000+85000000000+84375000000+83750000000+83125000000+82812500000
3684+82187500000+81562500000+80625000000+80000000000+79062500000+78437500000
3653+77500000000+77187500000+76562500000+75937500000+75625000000+75625000000
3621+75000000000+74687500000+74375000000+74062500000+74062500000+74062500000
3589+74062500000+74062500000+74375000000+74687500000+75000000000+75937500000
3558+76250000000+76875000000+77500000000+78125000000+78750000000+79375000000
3526+79687500000+80000000000+80000000000+80312500000+80625000000+80937500000
3495+81250000000+81562500000+81875000000+82187500000+82500000000+82500000000
3463+82812500000+83125000000+83125000000+83437500000+83437500000+83750000000
3432+83437500000+83437500000+83125000000+82500000000+81562500000+81562500000
3400+82500000000+82500000000+82187500000+81250000000+79375000000+76250000000
3368+66875000000+46875000000+45312500000+57812500000+59375000000+55625000000
3337+58125000000+48124999999+46250000000+45312500000+54375000000+63125000000
3305+54062500000+65312500000+73125000000+79062500000+81250000000+83125000000
3274+81562500000+83125000000+85937500000+85625000000+86562500000+86562500000
3242+84687500000+87500000000+90000000000+90625000000+90937500000+91250000000
3211+91562500000+91562500000+91875000000+91875000000+90625000000+90312500000
3179+91562500000+92187500000+92500000000+92500000000+92500000000+92812500000
3147+92812500000+93125000000+93125000000+93125000000+93437500000+93437500000
3116+93125000000+93125000000+93125000000+93125000000+93125000000+93125000000
3084+93437500000+93125000000+93125000000+93125000000+93125000000+93125000000
3053+93125000000+93125000000+93437500000+93437500000+93125000000+92812500000
3021+93125000000+93125000000+93125000000+93437500000+93437500000+93750000000
2989+93750000000+93750000000+93750000000+93750000000+93750000000+93437500000
2958+93437500000+93437500000+93750000000+94062500000+93750000000+92500000000
2926+91875000000+92187500000+93437500000+93437500000+93437500000+93750000000
2895+94062500000+94375000000+94375000000+94375000000+94062500000+94062500000
2863+93750000000+93750000000+93750000000+93750000000+93750000000+93750000000
2832+93750000000+93437500000+91875000000+90937500000+92187500000+93437500000
2800+93750000000+93750000000+93750000000+94062500000+94375000000+94375000000
2768+94062500000+93125000000+92812500000+93125000000+93437500000+93750000000
2737+94062500000+94062500000+94062500000+94062500000+93750000000+93750000000
2705+93437500000+93750000000+93750000000+94062500000+94062500000+94375000000
2674+94375000000+94375000000+94375000000+94375000000+94375000000+93750000000
2642+93437500000+93125000000+93125000000+92500000000+91562500000+90625000000
2611+89687500000+89375000000+88750000000+88750000000+88750000000+89375000000
2579+90000000000+90937500000+91562500000+92187500000+92187500000+91875000000
2547+90625000000+89687500000+89687500000+89062500000+87812500000+86875000000
2516+85937500000+85000000000+84687500000+84687500000+85625000000+87187500000
2484+89375000000+90937500000+91562500000+91562500000+90937500000+90312500000
2453+89687500000+89062500000+88437500000+88437500000+88437500000+88750000000
2421+89375000000+90312500000+91562500000+92812500000+93437500000+94062500000
2389+94375000000+94062500000+94062500000+94062500000+94062500000+94062500000
2358+94062500000+94062500000+94375000000+94375000000+94687500000+94687500000
2326+94687500000+95000000000+95000000000+94687500000+94687500000+94687500000
2295+94375000000+94375000000+94375000000+94062500000+94062500000+94062500000
2263+94062500000+94062500000+94062500000+94062500000+94375000000+94375000000
2232+94375000000+94062500000+94062500000+93750000000+93437500000+93125000000
2200+92500000000+91562500000+90937500000+89687500000+89062500000+88437500000
2168+89062500000+90312500000+90312500000+90000000000+89687500000+89375000000
2137+89062500000+88125000000+87500000000+86562500000+85937500000+84687500000
2105+81875000000+81875000000+85312500000+87500000000+87812500000+86562500000
2074+83125000000+78125000000+68750000000+42500000000+37187499999+50000000000
2042+46250000000+30625000000+14687500000+19375000000+38437500000+43125000000
2011+71875000000+82500000000+88125000000+90312500000+90937500000+91562500000
1979+92500000000+92812500000+93125000000+93125000000+93437500000+93125000000
1947+93125000000+92812500000+92500000000+92187500000+91875000000+90625000000
1916+89687500000+87500000000+82500000000+64375000000+40000000000+42500000000
1884+76875000000+86562500000+89062500000+87812500000+85000000000+82500000000
1853+76875000000+65937500000+40937500000+10312500000+4687500000+11562500000
1821+46250000000+65625000000+78750000000+83750000000+86250000000+87500000000
1789+88125000000+88437500000+89062500000+89687500000+90000000000+89687500000
1758+89062500000+88750000000+88437500000+88437500000+89062500000+90312500000
1726+90937500000+89687500000+89687500000+91250000000+92500000000+93125000000
1695+93750000000+94062500000+94375000000+94375000000+94375000000+94375000000
1663+94375000000+94375000000+94062500000+93750000000+93125000000+92812500000
1632+92812500000+92812500000+93125000000+93750000000+94062500000+94375000000
1600+94375000000+94062500000+93750000000+93437500000+93125000000+92812500000
1568+92500000000+92187500000+91562500000+90312500000+88125000000+85000000000
1537+81562500000+68125000000+60000000000+63750000000+78125000000+84375000000
1505+85937500000+89687500000+90625000000+91250000000+91875000000+91875000000
1474+92187500000+91875000000+91875000000+91250000000+90312500000+88437500000
1442+84687500000+76250000000+59375000000+58750000000+72812500000+83750000000
1411+89062500000+90625000000+91562500000+91875000000+92187500000+92187500000
1379+92500000000+92500000000+92187500000+91875000000+91250000000+90312500000
1347+89375000000+88437500000+86562500000+80937500000+63125000000+53125000000
1316+58125000000+74375000000+84375000000+86875000000+87500000000+86562500000
1284+84062500000+75937500000+52500000000+32500000000+42187500000+75625000000
1253+82812500000+85937500000+86875000000+85937500000+84375000000+76562500000
1221+60937500000+33125000000+32812500000+65625000000+83437500000+85312500000
1189+89375000000+90937500000+91562500000+91875000000+92187500000+92187500000
1158+92187500000+92187500000+92187500000+92187500000+92500000000+92812500000
1126+93125000000+93437500000+93437500000+93750000000+93750000000+93750000000
1095+93437500000+93125000000+92812500000+92500000000+92187500000+92187500000
1063+92187500000+92500000000+92812500000+93125000000+93437500000+93750000000
1032+94062500000+94062500000+94062500000+94375000000+94375000000+94375000000
1000+94375000000+94062500000+94062500000+93750000000+93437500000+93125000000
968+93125000000+93125000000+92812500000+92812500000+92500000000+92187500000
937+91250000000+90625000000+89687500000+89062500000+87500000000+85312500000
905+82187500000+78750000000+71875000000+58125000000+37187499999+24062500000
874+23437500000+40937500000+70312500000+78750000000+77812500000+73125000000
842+63750000000+50000000000+28750000000+14375000000+8437500000+7187500000
811+7812500000+19687500000+44062500000+61562500000+69375000000+74375000000
779+74375000000+74375000000+77187500000+81562500000+84687500000+85312500000
747+84687500000+84687500000+88437500000+89062500000+89062500000+88750000000
716+88437500000+88125000000+87500000000+86875000000+84375000000+79375000000
684+72187500000+44999999999+40937500000+68437500000+82812500000+87500000000
653+89062500000+89687500000+90312500000+90312500000+90625000000+90625000000
621+90312500000+90312500000+90312500000+90312500000+90312500000+90312500000
589+90312500000+90000000000+90000000000+90000000000+90000000000+90000000000
558+89687500000+89687500000+89687500000+89687500000+89687500000+89687500000
526+89687500000+89687500000+89687500000+89687500000+89687500000+89687500000
495+89687500000+89687500000+89375000000+89375000000+89375000000+89687500000
463+89687500000+90000000000+89375000000+87500000000+85312500000+81562500000
432+76562500000+71875000000+68437500000+65312500000+62500000000+61250000000
400+60312500000
##END=
