##TITLE=pyrrole
##JCAMP-DX=4.24
##DATA TYPE=INFRARED SPECTRUM
##DATE=10/06/2025
##SAMPLING PROCEDURE=ATR
##ORIGIN=SDBS
##XUNITS=1/CM
##YUNITS=TRANSMITTANCE
##RESOLUTION=5.2631578947368425
##FIRSTX=4000.0
##LASTX=400.0
##DELTAX=-5.2631578947368425
##MAXY=95.0
##MINY=0.0
##XFACTOR=1
##YFACTOR=1
##NPOINTS=685
##FIRSTY=0.0
##XYDATA=(X++(Y..Y))
4000+0+89687500000+87500000000+86562500000+86875000000+87812500000
3968+90625000000+92187500000+93125000000+93437500000+93750000000+93750000000
3937+94062500000+94062500000+93750000000+93750000000+93750000000+93750000000
3905+93750000000+93750000000+93750000000+93750000000+93437500000+93437500000
3874+93437500000+93750000000+93750000000+93750000000+94062500000+94062500000
3842+94062500000+94062500000+94062500000+94062500000+94062500000+94062500000
3811+94062500000+94062500000+93750000000+93750000000+93437500000+93437500000
3779+93125000000+92812500000+92500000000+91875000000+91250000000+90937500000
3747+90625000000+90312500000+90000000000+89687500000+89687500000+90000000000
3716+89687500000+89687500000+89375000000+89375000000+88750000000+88437500000
3684+88125000000+87500000000+86562500000+85937500000+84375000000+81875000000
3653+76875000000+71562500000+63125000000+52812500000+43125000000+34687500000
3621+27187500000+21875000000+16875000000+14062500000+11875000000+10312500000
3589+9375000000+9375000000+9375000000+10000000000+11562500000+14375000000
3558+18125000000+23750000000+31562500000+39375000000+47187500000+55000000000
3526+60937500000+66250000000+69687500000+73125000000+75312500000+77500000000
3495+78750000000+80000000000+81250000000+82187500000+83125000000+83750000000
3463+84375000000+84687500000+85000000000+85312500000+85625000000+85625000000
3432+85937500000+85625000000+85000000000+84375000000+83125000000+78750000000
3400+71875000000+71250000000+72500000000+72812500000+67187500000+67187500000
3368+76250000000+84062500000+86875000000+88125000000+85937500000+83437500000
3337+86875000000+90625000000+91562500000+92187500000+92500000000+92812500000
3305+92500000000+92187500000+91875000000+91250000000+90625000000+89375000000
3274+86875000000+81250000000+79375000000+82500000000+88125000000+89687500000
3242+91562500000+91875000000+91875000000+91875000000+91875000000+91562500000
3211+91250000000+91250000000+91250000000+91250000000+91250000000+90937500000
3179+90625000000+90312500000+90625000000+90625000000+91562500000+92187500000
3147+92812500000+93125000000+93125000000+93125000000+93125000000+93437500000
3116+93437500000+92812500000+91875000000+89687500000+89375000000+91562500000
3084+91875000000+91250000000+91250000000+92812500000+93437500000+93750000000
3053+93750000000+93125000000+92500000000+91875000000+90312500000+90625000000
3021+92187500000+91562500000+90000000000+86562500000+81562500000+81250000000
2989+84375000000+88750000000+91562500000+92187500000+92812500000+93125000000
2958+93125000000+92812500000+92812500000+92187500000+90312500000+89687500000
2926+90625000000+92187500000+93125000000+93125000000+93125000000+93437500000
2895+93750000000+93750000000+94062500000+94062500000+94062500000+94062500000
2863+94062500000+93750000000+93750000000+93437500000+93437500000+93437500000
2832+93437500000+93125000000+91250000000+90625000000+90312500000+90312500000
2800+92187500000+93125000000+93437500000+93437500000+93437500000+93437500000
2768+93437500000+93437500000+93750000000+93750000000+93750000000+94062500000
2737+94062500000+93750000000+93437500000+93437500000+93437500000+93750000000
2705+93437500000+91875000000+91875000000+93125000000+94062500000+94375000000
2674+94375000000+94375000000+94375000000+94375000000+94375000000+94375000000
2642+94062500000+94062500000+93437500000+93437500000+93437500000+93437500000
2611+94062500000+94375000000+94375000000+94375000000+94687500000+94687500000
2579+94687500000+94687500000+94687500000+94687500000+94687500000+94687500000
2547+94687500000+94687500000+94687500000+94687500000+94375000000+94375000000
2516+94375000000+94375000000+94375000000+94375000000+94375000000+94375000000
2484+94375000000+94375000000+94375000000+94375000000+94687500000+94687500000
2453+94687500000+94687500000+94687500000+94687500000+94687500000+94687500000
2421+94687500000+94687500000+94687500000+94687500000+94687500000+94687500000
2389+94687500000+94687500000+95000000000+95000000000+95000000000+94687500000
2358+94687500000+94687500000+94687500000+94687500000+94687500000+94375000000
2326+94375000000+94375000000+94375000000+94062500000+94062500000+93750000000
2295+93437500000+92812500000+92187500000+91875000000+91250000000+90312500000
2263+89687500000+89062500000+88125000000+87500000000+87500000000+87187500000
2232+86875000000+86250000000+85625000000+84687500000+84375000000+84062500000
2200+84062500000+84375000000+84687500000+85000000000+85937500000+86875000000
2168+87500000000+87812500000+88437500000+89062500000+89687500000+90000000000
2137+90312500000+90625000000+90625000000+90625000000+90625000000+90312500000
2105+89687500000+89375000000+88437500000+87187500000+86250000000+84687500000
2074+83437500000+82500000000+81250000000+79375000000+77187500000+74687500000
2042+72187500000+69375000000+67812500000+67812500000+68125000000+68750000000
2011+69375000000+70312500000+71250000000+72187500000+73437500000+74687500000
1979+75625000000+74062500000+65937500000+42500000000+40937500000+49375000000
1947+66250000000+75000000000+80000000000+82187500000+83125000000+83750000000
1916+83750000000+83125000000+81875000000+80312500000+78437500000+74687500000
1884+68125000000+58750000000+56875000000+60625000000+69375000000+73125000000
1853+74687500000+75625000000+75625000000+75312500000+74687500000+73125000000
1821+70625000000+65312500000+56250000000+51250000000+51562500000+59687500000
1789+65937500000+71875000000+75000000000+76562500000+76250000000+75625000000
1758+75625000000+75625000000+77187500000+80000000000+82812500000+84375000000
1726+85625000000+86562500000+87187500000+87812500000+88125000000+88125000000
1695+88125000000+88125000000+87812500000+87500000000+87500000000+87187500000
1663+87187500000+86875000000+86562500000+86250000000+85937500000+85312500000
1632+85000000000+82500000000+77500000000+81562500000+85625000000+86875000000
1600+86562500000+85937500000+85625000000+85312500000+84687500000+84375000000
1568+84062500000+83750000000+83750000000+83437500000+83437500000+83437500000
1537+83437500000+83437500000+83750000000+83750000000+84062500000+84375000000
1505+84687500000+85000000000+85312500000+85625000000+85312500000+85000000000
1474+84687500000+84375000000+83437500000+82500000000+81875000000+80625000000
1442+79062500000+77500000000+73437500000+65625000000+65625000000+66875000000
1411+70625000000+73437500000+75937500000+77812500000+79375000000+80312500000
1379+81250000000+82187500000+82812500000+83125000000+82187500000+79687500000
1347+72187500000+57812500000+35937500000+27500000000+27812500000+40000000000
1316+54687500000+60937500000+54062500000+32812500000+14687500000+14375000000
1284+32500000000+57187500000+68750000000+71562500000+63437500000+46875000000
1253+19375000000+10937500000+11250000000+25000000000+48437500000+61875000000
1221+72187500000+77500000000+81250000000+83437500000+85312500000+86875000000
1189+88437500000+89375000000+90000000000+90312500000+90625000000+90937500000
1158+91562500000+91875000000+91875000000+92187500000+92187500000+92187500000
1126+92187500000+91875000000+91875000000+91562500000+91250000000+90937500000
1095+90312500000+90000000000+89375000000+88750000000+87812500000+85312500000
1063+83437500000+83125000000+82187500000+72187500000+67812500000+73750000000
1032+81875000000+83750000000+84375000000+83437500000+82187500000+81875000000
1000+81875000000+82187500000+83750000000+85000000000+85312500000+85000000000
968+84687500000+84062500000+83125000000+81875000000+80625000000+80000000000
937+79062500000+77812500000+75312500000+72500000000+68750000000+62500000000
905+53750000000+42812500000+30000000000+18437500000+12187500000+9062500000
874+6875000000+5625000000+4687500000+4687500000+4687500000+5625000000
842+8750000000+14062500000+20937500000+29687500000+38125000000+47187500000
811+55000000000+62500000000+68437500000+71562500000+73437500000+74687500000
779+75000000000+74375000000+73437500000+72812500000+70000000000+69062500000
747+68437500000+68437500000+68750000000+70937500000+73437500000+78125000000
716+83750000000+87500000000+88437500000+88750000000+88125000000+87187500000
684+85312500000+81250000000+76250000000+70937500000+62812500000+54062500000
653+46562499999+41874999999+37187499999+33125000000+29687500000+27812500000
621+26562500000+26250000000+26562500000+28437500000+31250000000+34062500000
589+36562500000+39375000000+41874999999+45625000000+50000000000+55000000000
558+57812500000+61250000000+65937500000+71250000000+73750000000+76250000000
526+80625000000+83437500000+84687500000+86250000000+88125000000+88750000000
495+89687500000+90312500000+91250000000+92187500000+92812500000+93437500000
463+94062500000+94062500000+93125000000+90937500000+88750000000+85312500000
432+82187500000+79375000000+77812500000+76875000000+76250000000+75937500000
400+75625000000
##END=
