##TITLE=sec-butyl acetate
##JCAMP-DX=4.24
##DATA TYPE=INFRARED SPECTRUM
##DATE=10/06/2025
##SAMPLING PROCEDURE=ATR
##ORIGIN=SDBS
##XUNITS=1/CM
##YUNITS=TRANSMITTANCE
##RESOLUTION=5.2631578947368425
##FIRSTX=4000.0
##LASTX=400.0
##DELTAX=-5.2631578947368425
##MAXY=95.0
##MINY=0.0
##XFACTOR=1
##YFACTOR=1
##NPOINTS=685
##FIRSTY=0.0
##XYDATA=(X++(Y..Y))
4000+0+94687500000+94687500000+94375000000+94375000000+94375000000
3968+94375000000+94375000000+94687500000+94687500000+94687500000+94687500000
3937+94687500000+94687500000+94687500000+94687500000+94687500000+94687500000
3905+94375000000+94375000000+94687500000+94687500000+94687500000+94687500000
3874+94687500000+95000000000+94687500000+94687500000+94687500000+94375000000
3842+94375000000+94375000000+94375000000+94375000000+94375000000+94375000000
3811+94062500000+94062500000+93750000000+93437500000+92812500000+92500000000
3779+91875000000+91250000000+90625000000+89687500000+89062500000+89062500000
3747+89062500000+89062500000+89062500000+89687500000+90000000000+90312500000
3716+90000000000+89375000000+89062500000+88125000000+87812500000+87500000000
3684+87187500000+87187500000+87500000000+87500000000+87812500000+88125000000
3653+88125000000+87812500000+86875000000+85625000000+83437500000+81875000000
3621+81562500000+81875000000+83437500000+86250000000+88125000000+89687500000
3589+90625000000+90937500000+91250000000+91562500000+91875000000+91875000000
3558+92187500000+92500000000+92500000000+92500000000+92500000000+92812500000
3526+92812500000+92812500000+92812500000+92812500000+92812500000+92812500000
3495+92812500000+92812500000+92500000000+92187500000+92187500000+91875000000
3463+91562500000+91250000000+90937500000+90625000000+90625000000+90625000000
3432+90312500000+90312500000+90312500000+90312500000+90312500000+90625000000
3400+90625000000+90312500000+89687500000+89062500000+88437500000+88125000000
3368+87500000000+86875000000+86250000000+85625000000+85000000000+83437500000
3337+81562500000+79375000000+76250000000+72812500000+68437500000+60937500000
3305+43437499999+23125000000+12812500000+11250000000+11875000000+18437500000
3274+28750000000+21875000000+21250000000+23437500000+29687500000+35312500000
3242+46250000000+52500000000+48437500000+35625000000+35312500000+47500000000
3211+60937500000+66562500000+70312500000+77500000000+80312500000+81250000000
3179+84375000000+87187500000+88750000000+89375000000+90312500000+90937500000
3147+91250000000+90937500000+90000000000+89062500000+89062500000+89062500000
3116+89062500000+90312500000+91562500000+92187500000+92187500000+91562500000
3084+91562500000+91562500000+92500000000+93437500000+93750000000+93750000000
3053+93437500000+93125000000+93125000000+92812500000+92812500000+93125000000
3021+93437500000+94062500000+94375000000+94375000000+94687500000+94687500000
2989+94687500000+94687500000+94375000000+94062500000+93437500000+92500000000
2958+91875000000+91250000000+90937500000+91250000000+91875000000+92812500000
2926+93437500000+94062500000+94062500000+93750000000+93437500000+93437500000
2895+93437500000+93437500000+93437500000+93750000000+93750000000+93750000000
2863+93750000000+93437500000+93437500000+93437500000+93437500000+93437500000
2832+93437500000+93437500000+93750000000+93750000000+94062500000+94062500000
2800+94062500000+93750000000+93437500000+93437500000+93437500000+93437500000
2768+93750000000+93750000000+93437500000+92812500000+91875000000+91562500000
2737+91562500000+92500000000+93125000000+93750000000+94062500000+94062500000
2705+93437500000+92500000000+91250000000+90312500000+89687500000+90000000000
2674+91562500000+92812500000+93437500000+94062500000+94375000000+94375000000
2642+94375000000+94062500000+93437500000+92812500000+92812500000+92812500000
2611+92812500000+92812500000+93125000000+93125000000+93125000000+93125000000
2579+92812500000+92812500000+92812500000+92812500000+92812500000+92812500000
2547+92812500000+92812500000+92812500000+92812500000+92812500000+92812500000
2516+92812500000+92812500000+92812500000+92500000000+92187500000+91875000000
2484+91562500000+90625000000+89375000000+87187500000+85625000000+85000000000
2453+85000000000+85000000000+85625000000+86562500000+87500000000+88125000000
2421+88750000000+89375000000+89375000000+89687500000+89375000000+89062500000
2389+88750000000+88125000000+87500000000+86875000000+85937500000+85000000000
2358+83125000000+80937500000+77812500000+76250000000+76250000000+75625000000
2326+74375000000+71875000000+67812500000+64375000000+62187500000+59687500000
2295+56250000000+49375000000+39375000000+28437500000+20000000000+12812500000
2263+8125000000+5312500000+4687500000+4687500000+5000000000+5937500000
2232+9375000000+15000000000+22187500000+29687500000+37187499999+44375000000
2200+51250000000+54687500000+56250000000+58437500000+64687500000+69687500000
2168+72812500000+74375000000+75625000000+76250000000+76562500000+76562500000
2137+76562500000+77500000000+79062500000+80625000000+81875000000+82500000000
2105+83437500000+84062500000+84687500000+85000000000+85312500000+85625000000
2074+86250000000+86875000000+87187500000+87187500000+86875000000+86250000000
2042+85625000000+85000000000+84687500000+84062500000+84062500000+84062500000
2011+84375000000+84375000000+84687500000+84687500000+85000000000+84687500000
1979+84687500000+84375000000+84062500000+83750000000+83437500000+82812500000
1947+82187500000+81250000000+80625000000+80000000000+79375000000+78125000000
1916+77187500000+75625000000+73750000000+71250000000+68125000000+61875000000
1884+50937500000+38437500000+32812500000+33125000000+33437500000+33437500000
1853+34375000000+35937500000+38749999999+44375000000+46562499999+48437500000
1821+50937500000+54062500000+56875000000+60312500000+63125000000+64375000000
1789+63750000000+61562500000+56875000000+50625000000+39687500000+26562500000
1758+18750000000+15000000000+11875000000+11250000000+12500000000+18437500000
1726+29687500000+39687500000+49062500000+55937500000+58750000000+66875000000
1695+73750000000+76250000000+76250000000+75937500000+75312500000+74687500000
1663+72500000000+68750000000+64375000000+60000000000+59687500000+57500000000
1632+52500000000+46875000000+39687500000+33750000000+28125000000+23125000000
1600+17187500000+12187500000+8750000000+6875000000+5937500000+5312500000
1568+5000000000+5000000000+5312500000+6562500000+9687500000+15625000000
1537+22187500000+29687500000+36250000000+44687500000+53125000000+60312500000
1505+65000000000+68125000000+69687500000+71250000000+70312500000+63437500000
1474+52500000000+52187500000+63125000000+72812500000+75625000000+74687500000
1442+70312500000+67187500000+67500000000+68750000000+63437500000+48437500000
1411+28750000000+23125000000+23125000000+28125000000+24375000000+24687500000
1379+33125000000+42187500000+33750000000+21562500000+21562500000+29687500000
1347+49062500000+61562500000+66875000000+69062500000+69062500000+67500000000
1316+65937500000+62500000000+57187500000+50312500000+45625000000+41562500000
1284+33750000000+23437500000+16875000000+15937500000+19375000000+27812500000
1253+24062500000+23750000000+25000000000+31875000000+40000000000+43750000000
1221+42812500000+43437499999+46875000000+49375000000+56250000000+59687500000
1189+51562500000+49062500000+49375000000+58437500000+69375000000+68125000000
1158+49062500000+25937500000+25625000000+36250000000+56562500000+75000000000
1126+82500000000+85000000000+86562500000+87812500000+88750000000+89375000000
1095+90000000000+90625000000+90937500000+90937500000+90312500000+89375000000
1063+87812500000+85000000000+79375000000+66250000000+50625000000+44375000000
1032+45312500000+59375000000+75312500000+82187500000+81250000000+74687500000
1000+70000000000+70937500000+80625000000+87812500000+90625000000+91250000000
968+91562500000+91875000000+91875000000+92187500000+92187500000+91875000000
937+90625000000+88125000000+86562500000+86875000000+87812500000+89687500000
905+90000000000+90937500000+92187500000+93437500000+94062500000+94375000000
874+94375000000+94687500000+94687500000+94687500000+94687500000+94687500000
842+94687500000+94687500000+94375000000+94375000000+94375000000+94062500000
811+94062500000+94062500000+93750000000+93750000000+93750000000+93750000000
779+93437500000+93437500000+93437500000+93125000000+92812500000+92187500000
747+90937500000+88750000000+84687500000+82187500000+79062500000+77187500000
716+72812500000+66875000000+66875000000+73125000000+70000000000+57187500000
684+53750000000+60000000000+78437500000+86562500000+89375000000+91250000000
653+92187500000+92500000000+92812500000+92812500000+92812500000+93125000000
621+93125000000+93125000000+93125000000+93125000000+93125000000+93125000000
589+93125000000+93125000000+92812500000+92500000000+91875000000+91250000000
558+90000000000+89062500000+88437500000+88125000000+87812500000+88125000000
526+88437500000+89062500000+89375000000+90000000000+90312500000+89687500000
495+89062500000+88125000000+87187500000+86562500000+85937500000+85625000000
463+85312500000+85312500000+85312500000+85312500000+85312500000+85625000000
432+85312500000+84687500000+84062500000+83125000000+82187500000+81562500000
400+81250000000
##END=
