##TITLE=sodium 1-decanesulfonate
##JCAMP-DX=4.24
##DATA TYPE=INFRARED SPECTRUM
##DATE=10/06/2025
##SAMPLING PROCEDURE=ATR
##ORIGIN=SDBS
##XUNITS=1/CM
##YUNITS=TRANSMITTANCE
##RESOLUTION=5.2631578947368425
##FIRSTX=4000.0
##LASTX=400.0
##DELTAX=-5.2631578947368425
##MAXY=94.6875
##MINY=0.0
##XFACTOR=1
##YFACTOR=1
##NPOINTS=685
##FIRSTY=0.0
##XYDATA=(X++(Y..Y))
4000+0+92500000000+92187500000+92187500000+92187500000+92500000000
3968+92500000000+92500000000+92500000000+92500000000+92812500000+92500000000
3937+92812500000+92812500000+92812500000+92812500000+92812500000+92812500000
3905+92812500000+92812500000+92812500000+92812500000+92812500000+92812500000
3874+92812500000+92812500000+92812500000+92812500000+92812500000+93125000000
3842+93125000000+93125000000+93125000000+93125000000+93125000000+93125000000
3811+93125000000+93125000000+93125000000+93125000000+93125000000+93125000000
3779+93125000000+93125000000+93125000000+93125000000+93125000000+92812500000
3747+92812500000+92500000000+92500000000+92500000000+92500000000+92500000000
3716+92500000000+92500000000+92500000000+92187500000+92187500000+91875000000
3684+91562500000+90937500000+90625000000+90000000000+89375000000+88750000000
3653+87500000000+86875000000+86250000000+85625000000+85312500000+84687500000
3621+84375000000+84062500000+84375000000+84375000000+85000000000+85937500000
3589+86875000000+87812500000+88125000000+88750000000+89062500000+89062500000
3558+89375000000+89375000000+89687500000+90000000000+90312500000+90625000000
3526+90937500000+90937500000+91250000000+91250000000+91562500000+91562500000
3495+91875000000+91875000000+91875000000+92187500000+92187500000+92187500000
3463+92187500000+92187500000+92187500000+92187500000+92187500000+92187500000
3432+92187500000+92187500000+92500000000+92500000000+92500000000+92500000000
3400+92500000000+92500000000+92500000000+92500000000+92500000000+92500000000
3368+92187500000+92187500000+91875000000+91562500000+91250000000+90625000000
3337+90312500000+90000000000+89062500000+87812500000+86250000000+84375000000
3305+80937500000+75625000000+65312500000+51250000000+31250000000+20000000000
3274+17812500000+19687500000+12812500000+6875000000+4687500000+4687500000
3242+8750000000+16875000000+23750000000+29687500000+32500000000+28750000000
3211+22187500000+13750000000+13437500000+27187500000+54687500000+69375000000
3179+77187500000+81250000000+83750000000+85937500000+87500000000+88750000000
3147+89687500000+90312500000+90625000000+90937500000+90625000000+90625000000
3116+90625000000+90625000000+90937500000+90937500000+90937500000+90937500000
3084+90937500000+90937500000+90937500000+90937500000+91250000000+91562500000
3053+91562500000+91875000000+91875000000+92187500000+92187500000+92500000000
3021+92812500000+92812500000+93125000000+93125000000+93437500000+93750000000
2989+94062500000+94062500000+94375000000+94375000000+94375000000+94375000000
2958+94375000000+94375000000+94375000000+94687500000+94687500000+94687500000
2926+94687500000+94687500000+94687500000+94687500000+94375000000+94375000000
2895+94375000000+94375000000+94687500000+94687500000+94687500000+94687500000
2863+94687500000+94687500000+94687500000+94687500000+94687500000+94687500000
2832+94375000000+94375000000+94375000000+94375000000+94375000000+94375000000
2800+94062500000+94062500000+94062500000+94062500000+94062500000+94375000000
2768+94062500000+94062500000+94375000000+94375000000+94375000000+94375000000
2737+94687500000+94687500000+94687500000+94687500000+94687500000+94687500000
2705+94687500000+94687500000+94687500000+94687500000+94687500000+94687500000
2674+94687500000+94687500000+94687500000+94687500000+94687500000+94687500000
2642+94687500000+94687500000+94687500000+94687500000+94687500000+94687500000
2611+94687500000+94687500000+94687500000+94687500000+94687500000+94687500000
2579+94687500000+94687500000+94687500000+94687500000+94687500000+94687500000
2547+94687500000+94687500000+94687500000+94687500000+94687500000+94687500000
2516+94687500000+94687500000+94687500000+94687500000+94687500000+94687500000
2484+94687500000+94687500000+94687500000+94687500000+94687500000+94687500000
2453+94687500000+94687500000+94687500000+94687500000+94687500000+94687500000
2421+94687500000+94687500000+94687500000+94687500000+94687500000+94687500000
2389+94687500000+94687500000+94687500000+94687500000+94687500000+94687500000
2358+94687500000+94687500000+94687500000+94687500000+94687500000+94687500000
2326+94687500000+94687500000+94687500000+94687500000+94687500000+94375000000
2295+94375000000+94375000000+94375000000+94375000000+94375000000+94375000000
2263+94375000000+94375000000+94375000000+94375000000+94375000000+94375000000
2232+94375000000+94375000000+94062500000+94062500000+94062500000+94062500000
2200+94062500000+94062500000+94062500000+94062500000+94062500000+94062500000
2168+94062500000+93750000000+93437500000+93125000000+92812500000+91875000000
2137+91250000000+90937500000+90625000000+90625000000+90937500000+91562500000
2105+92500000000+92812500000+93125000000+93437500000+93750000000+93750000000
2074+93750000000+94062500000+94062500000+94062500000+94062500000+94062500000
2042+94062500000+94062500000+94062500000+94062500000+94062500000+93750000000
2011+93750000000+93750000000+93750000000+93750000000+93750000000+93750000000
1979+93750000000+93437500000+93437500000+93437500000+93125000000+93125000000
1947+93125000000+92812500000+92812500000+92500000000+91875000000+91562500000
1916+91250000000+90625000000+89687500000+88125000000+85937500000+81875000000
1884+73125000000+55937500000+45312500000+45937500000+52187500000+54687500000
1853+56250000000+63125000000+68125000000+72812500000+76875000000+80625000000
1821+84375000000+86875000000+87500000000+87812500000+87500000000+87500000000
1789+88437500000+89687500000+89375000000+88750000000+86875000000+81875000000
1758+76875000000+70000000000+68125000000+70937500000+79375000000+79687500000
1726+81875000000+85312500000+86250000000+86562500000+86875000000+87187500000
1695+87500000000+87812500000+88125000000+88125000000+88125000000+87500000000
1663+86562500000+85625000000+84687500000+84062500000+82812500000+82500000000
1632+82500000000+83437500000+84687500000+84062500000+81875000000+79687500000
1600+79687500000+79687500000+79687500000+78437500000+74062500000+67500000000
1568+65000000000+64687500000+63437500000+58437500000+57812500000+58437500000
1537+55000000000+50937500000+44999999999+38125000000+35000000000+34375000000
1505+34062500000+34062500000+34375000000+36562500000+40937500000+41250000000
1474+35937500000+31562500000+30312500000+31250000000+36875000000+45625000000
1442+53750000000+62187500000+68125000000+73437500000+77187500000+79062500000
1411+79687500000+80937500000+83125000000+83437500000+84062500000+84375000000
1379+85000000000+86250000000+86875000000+87187500000+86875000000+86562500000
1347+86250000000+85625000000+84687500000+81250000000+72500000000+60937500000
1316+60625000000+65000000000+73437500000+77187500000+78750000000+79687500000
1284+76250000000+76562500000+83437500000+87187500000+89062500000+89687500000
1253+90625000000+90937500000+91250000000+91250000000+91562500000+91875000000
1221+91875000000+91875000000+91875000000+91875000000+91875000000+91875000000
1189+91875000000+91875000000+91875000000+92187500000+92187500000+92187500000
1158+92187500000+92187500000+92187500000+92187500000+92187500000+92187500000
1126+92500000000+92500000000+92500000000+92812500000+92812500000+92812500000
1095+92812500000+92812500000+92812500000+92500000000+92500000000+92812500000
1063+92812500000+92812500000+92812500000+93125000000+93125000000+93125000000
1032+93437500000+93437500000+93437500000+93750000000+94062500000+94062500000
1000+94375000000+94375000000+94062500000+93750000000+93437500000+92812500000
968+91875000000+90312500000+87500000000+86250000000+85937500000+85625000000
937+85937500000+86250000000+88125000000+90625000000+91875000000+92500000000
905+92812500000+92812500000+93125000000+92812500000+92500000000+92187500000
874+91562500000+90312500000+88437500000+88125000000+87500000000+83437500000
842+78437500000+78437500000+85937500000+89687500000+91562500000+92500000000
811+93125000000+93437500000+93750000000+93750000000+93750000000+93750000000
779+93750000000+93750000000+93437500000+93437500000+93437500000+93437500000
747+93125000000+92812500000+92187500000+90625000000+88750000000+88750000000
716+89375000000+88437500000+80000000000+76250000000+78125000000+83750000000
684+84375000000+87812500000+90312500000+92187500000+93125000000+94062500000
653+94375000000+94687500000+94687500000+94687500000+94062500000+93437500000
621+92187500000+90312500000+85312500000+83750000000+83437500000+81562500000
589+77812500000+75937500000+75625000000+76562500000+85312500000+90937500000
558+92500000000+93125000000+93437500000+93125000000+92812500000+92187500000
526+91875000000+91562500000+91562500000+91562500000+91562500000+91875000000
495+92187500000+92500000000+92500000000+92812500000+93125000000+92812500000
463+92187500000+90937500000+90000000000+89062500000+88437500000+87812500000
432+86875000000+85625000000+84375000000+82500000000+80625000000+79687500000
400+79062500000
##END=
