##TITLE=sodium ethanesulfonate
##JCAMP-DX=4.24
##DATA TYPE=INFRARED SPECTRUM
##DATE=10/06/2025
##SAMPLING PROCEDURE=ATR
##ORIGIN=SDBS
##XUNITS=1/CM
##YUNITS=TRANSMITTANCE
##RESOLUTION=5.2631578947368425
##FIRSTX=4000.0
##LASTX=400.0
##DELTAX=-5.2631578947368425
##MAXY=95.0
##MINY=0.0
##XFACTOR=1
##YFACTOR=1
##NPOINTS=685
##FIRSTY=0.0
##XYDATA=(X++(Y..Y))
4000+0+92500000000+92500000000+92812500000+92812500000+92812500000
3968+92500000000+92500000000+92500000000+92812500000+92812500000+93125000000
3937+93437500000+93750000000+93437500000+93125000000+93125000000+93125000000
3905+92812500000+93125000000+93125000000+93125000000+93437500000+93437500000
3874+93437500000+93125000000+92812500000+92812500000+92812500000+93125000000
3842+93125000000+93125000000+92812500000+92812500000+92812500000+92812500000
3811+92500000000+92500000000+92500000000+92500000000+92187500000+91875000000
3779+90937500000+90000000000+89062500000+88125000000+86562500000+85000000000
3747+83750000000+82187500000+80312500000+78125000000+76875000000+75312500000
3716+73750000000+71562500000+69687500000+67187500000+65625000000+64687500000
3684+63750000000+63125000000+61875000000+60937500000+59687500000+57812500000
3653+56250000000+54375000000+52812500000+50937500000+48437500000+44687500000
3621+40937500000+36250000000+33750000000+33750000000+34062500000+38437500000
3589+42187500000+44687500000+46562499999+50000000000+52812500000+55937500000
3558+58125000000+59687500000+61250000000+63125000000+64375000000+66250000000
3526+67500000000+68750000000+70000000000+70937500000+71875000000+72500000000
3495+73125000000+73437500000+73750000000+74062500000+74687500000+75312500000
3463+76875000000+77812500000+78437500000+79375000000+80312500000+81250000000
3432+81875000000+82500000000+83125000000+84062500000+84375000000+85000000000
3400+85000000000+85937500000+86250000000+86562500000+86875000000+86875000000
3368+86562500000+87187500000+87500000000+87500000000+87187500000+87187500000
3337+87187500000+86875000000+86562500000+85312500000+83750000000+77812500000
3305+71562500000+65937500000+61250000000+50937500000+38125000000+29687500000
3274+27500000000+23437500000+19375000000+15625000000+15312500000+15937500000
3242+21875000000+28750000000+33750000000+38437500000+41250000000+38437500000
3211+33437500000+28125000000+28750000000+42500000000+62812500000+74375000000
3179+80312500000+84062500000+85625000000+87187500000+88125000000+89062500000
3147+90625000000+90937500000+90937500000+90937500000+90625000000+90625000000
3116+90625000000+90625000000+90625000000+90937500000+90937500000+90937500000
3084+90937500000+90937500000+90937500000+90937500000+90937500000+91250000000
3053+91562500000+91562500000+91562500000+91875000000+91875000000+92187500000
3021+92187500000+92500000000+92500000000+92812500000+92812500000+93125000000
2989+93125000000+93437500000+93437500000+93437500000+93125000000+93125000000
2958+93125000000+93437500000+93750000000+93750000000+93750000000+93437500000
2926+93437500000+93437500000+93437500000+93437500000+93437500000+93437500000
2895+93437500000+93437500000+93437500000+93437500000+93437500000+93437500000
2863+93437500000+93437500000+93437500000+93437500000+93437500000+93437500000
2832+93437500000+93437500000+93437500000+93437500000+93125000000+92812500000
2800+92812500000+92500000000+91875000000+91562500000+91250000000+91250000000
2768+91250000000+91562500000+91875000000+92187500000+92187500000+92187500000
2737+91875000000+91562500000+90937500000+90000000000+89687500000+89687500000
2705+90312500000+90625000000+91562500000+92187500000+92187500000+92500000000
2674+92500000000+92812500000+93125000000+93125000000+93125000000+93125000000
2642+93125000000+93125000000+93437500000+93750000000+93750000000+93750000000
2611+93750000000+94062500000+94062500000+94062500000+94062500000+94062500000
2579+94062500000+94062500000+94062500000+94375000000+94375000000+94375000000
2547+94375000000+94375000000+94375000000+94375000000+94375000000+94375000000
2516+94375000000+94375000000+94375000000+94375000000+94687500000+94687500000
2484+94687500000+94687500000+94687500000+94687500000+94687500000+94687500000
2453+94687500000+94687500000+94687500000+94687500000+94687500000+94687500000
2421+94687500000+94687500000+94687500000+94687500000+94687500000+94687500000
2389+94687500000+95000000000+95000000000+95000000000+94687500000+94687500000
2358+94687500000+94687500000+94687500000+94687500000+94687500000+94687500000
2326+94375000000+94375000000+94375000000+94375000000+94375000000+94375000000
2295+94375000000+94375000000+94375000000+94375000000+94062500000+94062500000
2263+94062500000+94062500000+93750000000+93750000000+93437500000+93437500000
2232+93125000000+93125000000+92812500000+92812500000+92500000000+92500000000
2200+92187500000+91875000000+91250000000+90937500000+90625000000+90000000000
2168+89375000000+89062500000+88125000000+87187500000+86250000000+85312500000
2137+84687500000+83125000000+80312500000+79375000000+79375000000+80312500000
2105+81250000000+82812500000+84062500000+85000000000+85937500000+86875000000
2074+87812500000+88437500000+89062500000+89687500000+90312500000+90937500000
2042+91562500000+91562500000+91875000000+92187500000+92187500000+92500000000
2011+92500000000+92812500000+92812500000+92812500000+93125000000+93125000000
1979+93125000000+93125000000+93125000000+92812500000+92812500000+92812500000
1947+92500000000+92500000000+92187500000+92187500000+91875000000+91875000000
1916+91562500000+91250000000+90625000000+89375000000+87500000000+84062500000
1884+78125000000+67812500000+55937500000+52812500000+49375000000+48124999999
1853+49062500000+57500000000+63437500000+69687500000+75000000000+79687500000
1821+84062500000+86562500000+84062500000+81250000000+83437500000+82812500000
1789+79062500000+79375000000+81562500000+84687500000+84062500000+79062500000
1758+74375000000+68125000000+66562500000+67812500000+74375000000+78437500000
1726+80312500000+84062500000+85312500000+85625000000+85625000000+85625000000
1695+85937500000+85937500000+86250000000+86250000000+85625000000+84687500000
1663+83125000000+80000000000+75625000000+73125000000+73125000000+75937500000
1632+77500000000+77812500000+77187500000+76875000000+75937500000+74687500000
1600+69687500000+63750000000+61875000000+57187500000+49062500000+36875000000
1568+34375000000+38437500000+56250000000+63125000000+55625000000+49375000000
1537+44375000000+40937500000+36875000000+30000000000+22500000000+16875000000
1505+12187500000+9375000000+6250000000+4687500000+4687500000+5937500000
1474+8125000000+12187500000+17500000000+19375000000+21250000000+25312500000
1442+32187500000+38749999999+44999999999+50000000000+54062500000+56875000000
1411+59375000000+61875000000+65000000000+66875000000+67500000000+64687500000
1379+64375000000+65625000000+69687500000+72812500000+75312500000+77500000000
1347+80000000000+79375000000+76875000000+67812500000+45625000000+33750000000
1316+32500000000+32500000000+35000000000+42500000000+44062500000+51250000000
1284+56875000000+65937500000+76875000000+80937500000+84062500000+85312500000
1253+86250000000+86875000000+87500000000+87500000000+86875000000+86562500000
1221+85937500000+85625000000+85312500000+85312500000+85937500000+87187500000
1189+88750000000+89687500000+90625000000+90937500000+91562500000+91875000000
1158+91875000000+92187500000+92187500000+92187500000+92187500000+92187500000
1126+92187500000+92500000000+92500000000+92812500000+93125000000+93125000000
1095+93437500000+93437500000+93437500000+93125000000+93125000000+93125000000
1063+93125000000+92812500000+92812500000+92812500000+92812500000+92812500000
1032+93125000000+93125000000+93125000000+93437500000+93437500000+93437500000
1000+93750000000+93750000000+93437500000+93437500000+93437500000+93125000000
968+92812500000+92187500000+91562500000+90937500000+90000000000+89062500000
937+86875000000+83750000000+83437500000+81875000000+78125000000+77812500000
905+79375000000+67500000000+51250000000+49062500000+50937500000+61250000000
874+65312500000+75625000000+81562500000+84375000000+85312500000+85000000000
842+84375000000+84687500000+85625000000+87500000000+88437500000+89062500000
811+89375000000+90000000000+90312500000+90312500000+90312500000+90312500000
779+90000000000+90000000000+90000000000+90000000000+90000000000+90000000000
747+89687500000+89062500000+87812500000+86250000000+85625000000+85625000000
716+86250000000+85937500000+84375000000+82187500000+81562500000+81562500000
684+83125000000+84375000000+83437500000+81562500000+76562500000+58125000000
653+48750000000+49062500000+55000000000+74687500000+80312500000+81250000000
621+80000000000+77812500000+75000000000+73125000000+69375000000+60000000000
589+48124999999+46562499999+45312500000+42187500000+42812500000+55625000000
558+63437500000+67812500000+70000000000+72187500000+73437500000+74687500000
526+76250000000+77500000000+78437500000+79687500000+80937500000+81875000000
495+83125000000+84375000000+85625000000+86562500000+87500000000+88750000000
463+89375000000+89687500000+89062500000+87812500000+86250000000+84062500000
432+80625000000+76875000000+74062500000+70937500000+68437500000+66875000000
400+65937500000
##END=
