##TITLE=sodium 1-hexadecanesulfonate
##JCAMP-DX=4.24
##DATA TYPE=INFRARED SPECTRUM
##DATE=10/06/2025
##SAMPLING PROCEDURE=ATR
##ORIGIN=SDBS
##XUNITS=1/CM
##YUNITS=TRANSMITTANCE
##RESOLUTION=5.2631578947368425
##FIRSTX=4000.0
##LASTX=400.0
##DELTAX=-5.2631578947368425
##MAXY=95.0
##MINY=0.0
##XFACTOR=1
##YFACTOR=1
##NPOINTS=685
##FIRSTY=0.0
##XYDATA=(X++(Y..Y))
4000+0+89062500000+89375000000+89375000000+89375000000+89375000000
3968+89687500000+89375000000+89375000000+89375000000+89375000000+89375000000
3937+89375000000+89375000000+89062500000+89062500000+89062500000+89062500000
3905+89062500000+89062500000+89062500000+89062500000+89062500000+89062500000
3874+89062500000+89062500000+89062500000+89062500000+89062500000+89062500000
3842+89062500000+89062500000+89062500000+89062500000+89062500000+89375000000
3811+89375000000+89375000000+89062500000+89062500000+89062500000+89062500000
3779+89062500000+89062500000+88750000000+88750000000+88437500000+88437500000
3747+88437500000+88125000000+88125000000+87812500000+87812500000+87500000000
3716+87500000000+87500000000+87187500000+87187500000+86875000000+86562500000
3684+86250000000+85937500000+85625000000+85312500000+85000000000+84375000000
3653+83437500000+82812500000+82187500000+82187500000+82187500000+82187500000
3621+82500000000+83125000000+83437500000+83125000000+82812500000+82187500000
3589+81562500000+80937500000+80625000000+80625000000+80937500000+81562500000
3558+82187500000+82812500000+83437500000+84375000000+84687500000+85000000000
3526+85312500000+85625000000+85937500000+85937500000+86250000000+86250000000
3495+86250000000+86562500000+86562500000+86562500000+86875000000+86875000000
3463+86875000000+86875000000+86875000000+86875000000+86875000000+86875000000
3432+86875000000+86875000000+86875000000+87187500000+87187500000+87500000000
3400+87500000000+87500000000+87500000000+87500000000+87500000000+87500000000
3368+87500000000+87500000000+87187500000+86875000000+86562500000+85937500000
3337+85625000000+85000000000+84062500000+82812500000+81250000000+79062500000
3305+75000000000+69062500000+57812500000+42500000000+24375000000+15625000000
3274+14062500000+15312500000+10000000000+5937500000+4687500000+4687500000
3242+7187500000+13750000000+18750000000+23750000000+26562500000+23125000000
3211+18750000000+11875000000+11875000000+26875000000+50312500000+64062500000
3179+72187500000+76562500000+79375000000+81250000000+82812500000+84375000000
3147+85312500000+85937500000+86562500000+86875000000+86562500000+86562500000
3116+86250000000+86562500000+86875000000+86875000000+87187500000+86875000000
3084+86875000000+86875000000+86875000000+87187500000+87500000000+87500000000
3053+87812500000+88125000000+88437500000+88437500000+88750000000+89062500000
3021+89062500000+89375000000+89687500000+90000000000+90312500000+90625000000
2989+90625000000+90937500000+90937500000+90937500000+91250000000+91562500000
2958+91562500000+91562500000+91562500000+91562500000+91562500000+91562500000
2926+91562500000+91562500000+91562500000+91562500000+91562500000+91562500000
2895+91562500000+91562500000+91562500000+91562500000+91562500000+91562500000
2863+91562500000+91562500000+91875000000+91875000000+91875000000+91875000000
2832+92187500000+92187500000+92187500000+92187500000+92187500000+92187500000
2800+92187500000+92187500000+92187500000+92187500000+92187500000+92187500000
2768+92187500000+92187500000+92187500000+92500000000+92500000000+92812500000
2737+92812500000+92812500000+92812500000+92812500000+92812500000+93125000000
2705+93125000000+93125000000+93125000000+93125000000+93125000000+93125000000
2674+93125000000+93125000000+93125000000+93125000000+93125000000+93125000000
2642+93125000000+93125000000+93125000000+93125000000+93125000000+93437500000
2611+93437500000+93437500000+93437500000+93437500000+93437500000+93437500000
2579+93437500000+93437500000+93437500000+93437500000+93750000000+93750000000
2547+93750000000+93750000000+94062500000+94062500000+94062500000+94062500000
2516+94062500000+94062500000+94062500000+94062500000+94062500000+94062500000
2484+94062500000+94062500000+94062500000+94062500000+94062500000+94062500000
2453+94062500000+94062500000+94062500000+94062500000+94062500000+94062500000
2421+94375000000+94375000000+94375000000+94375000000+94375000000+94375000000
2389+94375000000+94375000000+94375000000+94375000000+94687500000+94687500000
2358+94687500000+94687500000+94687500000+94687500000+94687500000+94687500000
2326+94687500000+94687500000+94687500000+94687500000+94687500000+94687500000
2295+94687500000+94687500000+94687500000+94687500000+94687500000+94687500000
2263+95000000000+95000000000+94687500000+94687500000+94687500000+94687500000
2232+94687500000+94375000000+94375000000+94375000000+94375000000+94375000000
2200+94062500000+94062500000+94062500000+94062500000+94062500000+94062500000
2168+93750000000+93750000000+93437500000+93125000000+92812500000+92812500000
2137+92500000000+92500000000+92500000000+92812500000+92812500000+92812500000
2105+93125000000+93125000000+93437500000+93437500000+93750000000+93750000000
2074+93750000000+93750000000+93750000000+93750000000+93750000000+93750000000
2042+93750000000+93750000000+93750000000+93437500000+93437500000+93437500000
2011+93437500000+93125000000+93125000000+93437500000+93437500000+93437500000
1979+93437500000+93437500000+93437500000+93437500000+93437500000+93437500000
1947+93437500000+93437500000+93437500000+93125000000+92812500000+92500000000
1916+91875000000+91250000000+90312500000+89062500000+86875000000+82812500000
1884+73750000000+60937500000+47812500000+49375000000+53437500000+54687500000
1853+57187500000+64062500000+68437500000+73125000000+77187500000+81250000000
1821+86250000000+89062500000+90625000000+91250000000+91875000000+91875000000
1789+91875000000+91875000000+91562500000+90625000000+88750000000+82187500000
1758+76875000000+69375000000+67812500000+70000000000+80312500000+80625000000
1726+83125000000+86875000000+87812500000+88437500000+88750000000+89375000000
1695+89687500000+90312500000+90937500000+91250000000+91562500000+91250000000
1663+90937500000+90625000000+90625000000+90312500000+90312500000+90312500000
1632+90625000000+90625000000+90312500000+90625000000+90312500000+89687500000
1600+89062500000+89375000000+90937500000+90312500000+87187500000+86875000000
1568+88125000000+90312500000+89375000000+84375000000+82500000000+83750000000
1537+86875000000+82812500000+72812500000+69062500000+71562500000+71562500000
1505+55937500000+54375000000+59062500000+59375000000+60000000000+61562500000
1474+61250000000+67187500000+73750000000+79375000000+82812500000+85625000000
1442+86875000000+88125000000+89062500000+89687500000+90000000000+90312500000
1411+90625000000+90937500000+91250000000+91562500000+91875000000+91875000000
1379+92187500000+92500000000+92500000000+92500000000+92187500000+91875000000
1347+90937500000+90625000000+90312500000+90000000000+87812500000+76250000000
1316+75937500000+80000000000+85937500000+85312500000+87500000000+90937500000
1284+91875000000+92187500000+92500000000+92812500000+92812500000+93125000000
1253+93125000000+93125000000+93125000000+93125000000+93125000000+93437500000
1221+93437500000+93437500000+93437500000+93437500000+93437500000+93437500000
1189+93437500000+93437500000+93437500000+93437500000+93437500000+93437500000
1158+93437500000+93437500000+93437500000+93750000000+93750000000+93750000000
1126+93750000000+93750000000+93750000000+93750000000+93750000000+93437500000
1095+93437500000+93437500000+93437500000+93437500000+93437500000+93437500000
1063+93437500000+93437500000+93750000000+93750000000+93750000000+93750000000
1032+93750000000+93750000000+94062500000+94062500000+94062500000+94062500000
1000+94062500000+94062500000+94062500000+94375000000+94375000000+94375000000
968+94375000000+94375000000+94062500000+93125000000+89687500000+89062500000
937+91250000000+92812500000+93125000000+93437500000+93750000000+93750000000
905+94062500000+94062500000+93750000000+93437500000+93125000000+92500000000
874+91875000000+91250000000+90625000000+90312500000+89062500000+86250000000
842+78437500000+77812500000+85937500000+90000000000+91875000000+92500000000
811+93125000000+93437500000+93750000000+93437500000+93437500000+93125000000
779+92812500000+92500000000+91875000000+91562500000+91250000000+90937500000
747+90625000000+90312500000+90000000000+90000000000+89687500000+89375000000
716+88750000000+88437500000+88125000000+88125000000+88125000000+88125000000
684+88125000000+88125000000+87812500000+87812500000+87500000000+87187500000
653+86875000000+86875000000+86875000000+86875000000+86875000000+87187500000
621+87187500000+87500000000+87187500000+86875000000+86250000000+85937500000
589+85937500000+85937500000+85937500000+85937500000+86250000000+86250000000
558+86562500000+86875000000+87500000000+87812500000+87812500000+88125000000
526+88125000000+88125000000+88125000000+88125000000+88125000000+88437500000
495+88437500000+88125000000+87812500000+87500000000+86875000000+85937500000
463+84687500000+83750000000+82500000000+81875000000+81562500000+81250000000
432+80625000000+79375000000+78125000000+76250000000+74687500000+73750000000
400+73437500000
##END=
