##TITLE=sodium 1-hexanesulfonate
##JCAMP-DX=4.24
##DATA TYPE=INFRARED SPECTRUM
##DATE=10/06/2025
##SAMPLING PROCEDURE=ATR
##ORIGIN=SDBS
##XUNITS=1/CM
##YUNITS=TRANSMITTANCE
##RESOLUTION=5.2631578947368425
##FIRSTX=4000.0
##LASTX=400.0
##DELTAX=-5.2631578947368425
##MAXY=95.0
##MINY=0.0
##XFACTOR=1
##YFACTOR=1
##NPOINTS=685
##FIRSTY=0.0
##XYDATA=(X++(Y..Y))
4000+0+92500000000+92187500000+92187500000+92187500000+92187500000
3968+92187500000+92187500000+92187500000+92500000000+92187500000+92187500000
3937+92187500000+92187500000+92187500000+92187500000+92187500000+91875000000
3905+91875000000+91875000000+92187500000+92187500000+92187500000+92187500000
3874+92187500000+92187500000+92187500000+92187500000+92187500000+92187500000
3842+92187500000+92187500000+91875000000+91875000000+91875000000+91875000000
3811+91562500000+91562500000+91562500000+91250000000+90937500000+90625000000
3779+90000000000+89687500000+89062500000+88437500000+87500000000+86562500000
3747+85937500000+85000000000+83750000000+82500000000+81250000000+79687500000
3716+77812500000+75625000000+73125000000+69687500000+65625000000+63125000000
3684+62187500000+62187500000+62812500000+64062500000+65312500000+66250000000
3653+64687500000+62187500000+60937500000+61250000000+64687500000+67812500000
3621+69687500000+70937500000+71875000000+72812500000+73750000000+74375000000
3589+75000000000+75312500000+75625000000+76250000000+76562500000+77500000000
3558+78125000000+79062500000+80000000000+80625000000+81250000000+82187500000
3526+82812500000+83125000000+83437500000+83750000000+84062500000+84375000000
3495+84687500000+85000000000+85625000000+85937500000+86250000000+86875000000
3463+87187500000+87500000000+87812500000+88125000000+88437500000+88750000000
3432+89062500000+89375000000+89687500000+89687500000+90000000000+90312500000
3400+90625000000+90625000000+90937500000+90937500000+90937500000+90937500000
3368+90937500000+90937500000+90937500000+90937500000+90937500000+90625000000
3337+90625000000+90312500000+90312500000+89687500000+89375000000+88750000000
3305+87187500000+85312500000+81562500000+72500000000+51250000000+40312499999
3274+40000000000+53125000000+35625000000+33125000000+36562500000+39062500000
3242+46250000000+61875000000+69062500000+73125000000+60937500000+59062500000
3211+55937500000+52500000000+56562500000+76250000000+85625000000+87812500000
3179+89062500000+90000000000+90937500000+91250000000+91875000000+92187500000
3147+92187500000+92500000000+92500000000+92500000000+92187500000+92187500000
3116+92500000000+92500000000+92812500000+92812500000+92500000000+92500000000
3084+92500000000+92500000000+92812500000+92812500000+92812500000+92812500000
3053+92812500000+93125000000+93125000000+93125000000+93125000000+93125000000
3021+93437500000+93437500000+93437500000+93437500000+93437500000+93437500000
2989+93437500000+93750000000+93750000000+93750000000+93750000000+93750000000
2958+93750000000+93750000000+93750000000+93750000000+93750000000+93750000000
2926+94062500000+94062500000+94062500000+94062500000+93750000000+93750000000
2895+94062500000+94062500000+94062500000+94062500000+94062500000+94062500000
2863+94062500000+94062500000+94062500000+94062500000+94062500000+94062500000
2832+94062500000+94062500000+93750000000+93750000000+93437500000+93125000000
2800+93125000000+92812500000+92812500000+92500000000+92500000000+92500000000
2768+92500000000+92812500000+92812500000+93125000000+93437500000+93437500000
2737+93437500000+93437500000+93437500000+93437500000+93437500000+93437500000
2705+93750000000+93750000000+93750000000+93437500000+93437500000+93437500000
2674+93437500000+93750000000+93750000000+93750000000+93750000000+94062500000
2642+94062500000+94062500000+94062500000+94062500000+94375000000+94375000000
2611+94375000000+94375000000+94375000000+94375000000+94375000000+94375000000
2579+94375000000+94375000000+94375000000+94375000000+94375000000+94687500000
2547+94687500000+94687500000+94687500000+94687500000+94687500000+94687500000
2516+94687500000+94687500000+94687500000+94687500000+94687500000+94687500000
2484+94687500000+94687500000+94687500000+94687500000+94687500000+94687500000
2453+94687500000+94687500000+94687500000+94687500000+94687500000+94687500000
2421+94687500000+94687500000+94687500000+94687500000+94687500000+94687500000
2389+94687500000+94687500000+94687500000+94687500000+94687500000+94687500000
2358+94687500000+94687500000+94687500000+94687500000+94687500000+94687500000
2326+94687500000+94687500000+94687500000+94687500000+94687500000+94687500000
2295+94687500000+94687500000+94687500000+94687500000+94687500000+94687500000
2263+95000000000+95000000000+94687500000+94687500000+94687500000+94687500000
2232+94687500000+94375000000+94375000000+94375000000+94375000000+94062500000
2200+94062500000+93750000000+93750000000+93437500000+93125000000+93125000000
2168+92812500000+92500000000+92187500000+91562500000+91250000000+90625000000
2137+90312500000+90000000000+90000000000+89687500000+89375000000+88437500000
2105+88125000000+87500000000+87500000000+87500000000+88437500000+89687500000
2074+90937500000+91875000000+92500000000+92812500000+93125000000+93125000000
2042+93437500000+93437500000+93750000000+93750000000+94062500000+94062500000
2011+94062500000+94062500000+94375000000+94375000000+94375000000+94375000000
1979+94375000000+94375000000+94062500000+94062500000+94062500000+94062500000
1947+94062500000+93750000000+93750000000+93750000000+93750000000+93437500000
1916+93437500000+93125000000+93125000000+92812500000+92187500000+90625000000
1884+86250000000+74375000000+71875000000+74062500000+77500000000+78125000000
1853+80312500000+85000000000+87812500000+89062500000+89687500000+90312500000
1821+90625000000+89687500000+89062500000+88437500000+88437500000+89375000000
1789+90625000000+91875000000+92500000000+92812500000+92812500000+92187500000
1758+90000000000+85937500000+85625000000+89062500000+90937500000+91562500000
1726+91562500000+91562500000+91562500000+91562500000+91562500000+91250000000
1695+90937500000+90625000000+90000000000+89687500000+89375000000+89062500000
1663+88125000000+85937500000+84375000000+83437500000+83125000000+81875000000
1632+80937500000+80937500000+81250000000+84062500000+80312500000+75000000000
1600+74375000000+75625000000+75625000000+71875000000+64687500000+56875000000
1568+52812500000+52812500000+56562500000+49375000000+40000000000+30312500000
1537+21250000000+15937500000+13125000000+10937500000+10000000000+7500000000
1505+5937500000+6562500000+7187500000+5312500000+4687500000+4687500000
1474+5312500000+6875000000+10625000000+15000000000+22812500000+36562500000
1442+49687499999+60937500000+68750000000+75000000000+79062500000+81250000000
1411+83437500000+84687500000+85937500000+85937500000+85937500000+86250000000
1379+86875000000+87187500000+87187500000+86562500000+85625000000+83750000000
1347+82187500000+80937500000+80000000000+76250000000+62187500000+33437500000
1316+21250000000+19375000000+14687500000+17500000000+33125000000+41250000000
1284+54687500000+70000000000+75937500000+80937500000+87187500000+89375000000
1253+90312500000+91250000000+91875000000+92500000000+92812500000+93125000000
1221+93437500000+93750000000+93750000000+93750000000+94062500000+94062500000
1189+94062500000+94062500000+94375000000+94375000000+94375000000+94375000000
1158+94687500000+94687500000+94687500000+94687500000+94687500000+94687500000
1126+94687500000+94687500000+94687500000+94375000000+94375000000+94062500000
1095+94062500000+93750000000+93750000000+93750000000+93750000000+93750000000
1063+94062500000+94062500000+94062500000+94062500000+94062500000+94375000000
1032+94375000000+94375000000+94375000000+94375000000+94687500000+94687500000
1000+94375000000+94375000000+93750000000+93125000000+91875000000+90000000000
968+86875000000+84062500000+80937500000+76562500000+72500000000+72500000000
937+73437500000+77187500000+80625000000+83750000000+85937500000+87812500000
905+89062500000+90000000000+90312500000+90000000000+89687500000+89375000000
874+89062500000+88437500000+87500000000+85937500000+83125000000+79375000000
842+79375000000+81875000000+85312500000+88125000000+89687500000+90312500000
811+90625000000+90937500000+90625000000+90625000000+90312500000+90000000000
779+89687500000+89687500000+89375000000+89062500000+89062500000+88750000000
747+88750000000+88437500000+88125000000+87500000000+86562500000+85312500000
716+83125000000+79375000000+66875000000+46562499999+44999999999+49687499999
684+55625000000+55937500000+68750000000+79687500000+84062500000+86250000000
653+87812500000+88750000000+89375000000+89687500000+89375000000+88750000000
621+87500000000+85625000000+81875000000+77500000000+72812500000+69062500000
589+62812500000+58437500000+57812500000+59062500000+65937500000+73437500000
558+78750000000+83125000000+85625000000+86875000000+87187500000+86562500000
526+85937500000+85625000000+85312500000+85312500000+85625000000+85937500000
495+86562500000+86875000000+87187500000+86875000000+86250000000+86250000000
463+85937500000+85937500000+86250000000+86250000000+85937500000+85937500000
432+86250000000+86250000000+87500000000+88437500000+90312500000+91875000000
400+93437500000
##END=
