##TITLE=succinic anhydride
##JCAMP-DX=4.24
##DATA TYPE=INFRARED SPECTRUM
##DATE=10/06/2025
##SAMPLING PROCEDURE=ATR
##ORIGIN=SDBS
##XUNITS=1/CM
##YUNITS=TRANSMITTANCE
##RESOLUTION=5.2631578947368425
##FIRSTX=4000.0
##LASTX=400.0
##DELTAX=-5.2631578947368425
##MAXY=94.6875
##MINY=0.0
##XFACTOR=1
##YFACTOR=1
##NPOINTS=685
##FIRSTY=0.0
##XYDATA=(X++(Y..Y))
4000+0+81562500000+81562500000+81562500000+81875000000+81875000000
3968+82187500000+82500000000+82812500000+82812500000+83125000000+83125000000
3937+83437500000+83437500000+83125000000+83125000000+83125000000+83437500000
3905+83437500000+83750000000+83750000000+84062500000+84062500000+84062500000
3874+84062500000+84062500000+84375000000+84375000000+84687500000+84687500000
3842+84687500000+84687500000+85000000000+85000000000+85312500000+85312500000
3811+85625000000+85625000000+85625000000+85937500000+85937500000+85937500000
3779+86250000000+86562500000+86562500000+86562500000+86562500000+85937500000
3747+84687500000+82812500000+81875000000+81875000000+82187500000+82812500000
3716+83750000000+84687500000+85625000000+85937500000+86250000000+86562500000
3684+86562500000+86875000000+86875000000+86875000000+86562500000+86250000000
3653+86250000000+85937500000+85937500000+85625000000+85625000000+85625000000
3621+85625000000+85625000000+85625000000+85937500000+86250000000+86250000000
3589+86562500000+86875000000+86875000000+86875000000+86562500000+86250000000
3558+85937500000+85937500000+85625000000+85625000000+85312500000+85312500000
3526+85000000000+84687500000+84375000000+84062500000+83437500000+83125000000
3495+82500000000+81875000000+81562500000+80937500000+80625000000+80000000000
3463+79375000000+78750000000+78125000000+77500000000+76875000000+76562500000
3432+75937500000+75312500000+75000000000+74375000000+74062500000+73437500000
3400+73125000000+72500000000+71875000000+71250000000+70625000000+70312500000
3368+69687500000+68750000000+68125000000+67187500000+66250000000+65000000000
3337+64062500000+63125000000+61250000000+58750000000+55000000000+51250000000
3305+45625000000+40000000000+29687500000+18125000000+10937500000+8125000000
3274+7812500000+7812500000+6562500000+5000000000+4687500000+5000000000
3242+6562500000+8437500000+10312500000+12187500000+13750000000+11562500000
3211+10937500000+9375000000+9687500000+14687500000+26250000000+39062500000
3179+48437500000+54375000000+59062500000+62187500000+65000000000+67500000000
3147+69687500000+70625000000+70937500000+70937500000+70312500000+70000000000
3116+70000000000+70000000000+71562500000+72812500000+73125000000+72500000000
3084+71875000000+70937500000+70312500000+70312500000+70312500000+70625000000
3053+70937500000+71250000000+71875000000+72812500000+74375000000+75625000000
3021+76875000000+77812500000+78750000000+78750000000+78437500000+77812500000
2989+77500000000+77500000000+78437500000+79375000000+80625000000+82187500000
2958+83437500000+84375000000+85312500000+86250000000+86875000000+87500000000
2926+87812500000+87812500000+88125000000+88125000000+87812500000+87812500000
2895+87812500000+87812500000+89375000000+90000000000+90625000000+90937500000
2863+90937500000+91250000000+91250000000+91562500000+91562500000+91562500000
2832+91875000000+92187500000+91875000000+91562500000+91562500000+91250000000
2800+90937500000+90937500000+90937500000+90937500000+91875000000+92500000000
2768+93125000000+93437500000+94062500000+94062500000+93125000000+92500000000
2737+93125000000+94687500000+94375000000+94062500000+94062500000+93750000000
2705+93437500000+93437500000+93437500000+93437500000+93125000000+93125000000
2674+93125000000+93750000000+93750000000+93437500000+93437500000+93437500000
2642+93125000000+92187500000+91562500000+91562500000+91875000000+91875000000
2611+91875000000+91875000000+91562500000+91250000000+90625000000+90312500000
2579+89687500000+89375000000+88750000000+88437500000+88125000000+87500000000
2547+86875000000+86250000000+85625000000+84687500000+83750000000+82812500000
2516+81875000000+81562500000+81250000000+81250000000+80312500000+79375000000
2484+78125000000+77500000000+75937500000+74375000000+71875000000+69062500000
2453+64687500000+58125000000+48750000000+44375000000+43750000000+42187500000
2421+41562500000+42187500000+43437499999+47812500000+52187500000+51250000000
2389+50937500000+52500000000+53125000000+51250000000+47812500000+43750000000
2358+40000000000+38749999999+36562500000+33125000000+30625000000+26562500000
2326+23437500000+20937500000+20000000000+20000000000+20312500000+21562500000
2295+23437500000+25625000000+29062500000+33437500000+37187499999+38749999999
2263+39687500000+43437499999+45937500000+45937500000+44687500000+43750000000
2232+41874999999+41562500000+41874999999+40937500000+39062500000+36562500000
2200+35000000000+34062500000+34062500000+34687500000+37500000000+42187500000
2168+47500000000+51875000000+56875000000+59687500000+63125000000+65937500000
2137+68750000000+70937500000+73437500000+74687500000+76250000000+77500000000
2105+78437500000+79375000000+80000000000+80000000000+80312500000+80625000000
2074+80937500000+81250000000+82187500000+84062500000+85312500000+86562500000
2042+87500000000+87812500000+88125000000+88437500000+88437500000+88750000000
2011+88437500000+88437500000+88125000000+87812500000+87500000000+87500000000
1979+87500000000+87500000000+87812500000+88437500000+89062500000+89687500000
1947+89687500000+89375000000+89062500000+88750000000+87812500000+86875000000
1916+85937500000+84375000000+82187500000+78125000000+73125000000+65000000000
1884+53750000000+40000000000+29375000000+27500000000+27500000000+27812500000
1853+28750000000+33437500000+37187499999+42187500000+46875000000+50937500000
1821+50937500000+45937500000+30937500000+28125000000+36562500000+52812500000
1789+53437500000+53125000000+68750000000+71562500000+71250000000+60937500000
1758+50312500000+40937500000+39062500000+41562500000+54062500000+55937500000
1726+60000000000+66562500000+68125000000+67500000000+65625000000+62500000000
1695+60000000000+58437500000+55312500000+52500000000+51875000000+52187500000
1663+54687500000+53125000000+53125000000+54375000000+45625000000+45937500000
1632+58437500000+61250000000+57187500000+40000000000+36875000000+51250000000
1600+70625000000+74687500000+71250000000+68437500000+65312500000+60000000000
1568+51250000000+41250000000+36250000000+36562500000+47500000000+59375000000
1537+54375000000+42500000000+34375000000+31562500000+29687500000+28750000000
1505+30000000000+36250000000+43750000000+53437500000+62500000000+67500000000
1474+63437500000+63125000000+68437500000+66250000000+62812500000+62812500000
1442+67187500000+70625000000+75000000000+76562500000+77812500000+78437500000
1411+78437500000+75937500000+72812500000+73750000000+75625000000+74375000000
1379+73437500000+71875000000+70000000000+67187500000+65000000000+61250000000
1347+57812500000+55000000000+51875000000+46875000000+40625000000+33125000000
1316+26562500000+23750000000+24062500000+25000000000+26250000000+27187500000
1284+28750000000+32812500000+38125000000+43437499999+50000000000+55937500000
1253+55625000000+37812500000+38125000000+57500000000+58437500000+65625000000
1221+70312500000+72812500000+74375000000+74687500000+73437500000+70625000000
1189+70000000000+70312500000+70312500000+70312500000+70312500000+69687500000
1158+68750000000+67812500000+65937500000+62812500000+57187500000+50312500000
1126+42500000000+27500000000+20000000000+20625000000+23125000000+24062500000
1095+26250000000+30312500000+36250000000+40937500000+45312500000+50312500000
1063+54375000000+57812500000+60625000000+64062500000+66562500000+68125000000
1032+70000000000+71562500000+72812500000+73437500000+74375000000+75625000000
1000+76875000000+77187500000+75625000000+72187500000+57500000000+42187500000
968+47812500000+43437499999+43437499999+45312500000+52812500000+63125000000
937+69062500000+73750000000+76562500000+78437500000+79062500000+80000000000
905+80937500000+81562500000+81875000000+82187500000+82500000000+82187500000
874+80937500000+79062500000+77187500000+75312500000+73125000000+70625000000
842+70000000000+70312500000+73125000000+75937500000+76250000000+75312500000
811+73750000000+72812500000+72812500000+72812500000+72812500000+72500000000
779+71250000000+68750000000+65312500000+61562500000+56250000000+53125000000
747+50312500000+49375000000+48124999999+47812500000+47812500000+50000000000
716+57812500000+62187500000+64687500000+71562500000+75312500000+77500000000
684+78750000000+79687500000+80625000000+80625000000+80625000000+80625000000
653+80937500000+81250000000+81562500000+82187500000+83125000000+76250000000
621+42187500000+53125000000+75312500000+77500000000+76875000000+75937500000
589+75625000000+75937500000+77812500000+80312500000+83437500000+84687500000
558+85625000000+86250000000+86562500000+86875000000+87187500000+87187500000
526+87500000000+87500000000+87812500000+88437500000+88750000000+89062500000
495+89062500000+89062500000+89062500000+89375000000+89687500000+90937500000
463+92500000000+94062500000+94375000000+91875000000+88125000000+82500000000
432+76250000000+70312500000+65937500000+61875000000+58437500000+56250000000
400+55000000000
##END=
