##TITLE=tert-pentylferrocene
##JCAMP-DX=4.24
##DATA TYPE=INFRARED SPECTRUM
##DATE=10/06/2025
##SAMPLING PROCEDURE=ATR
##ORIGIN=SDBS
##XUNITS=1/CM
##YUNITS=TRANSMITTANCE
##RESOLUTION=5.2631578947368425
##FIRSTX=4000.0
##LASTX=400.0
##DELTAX=-5.2631578947368425
##MAXY=95.0
##MINY=0.0
##XFACTOR=1
##YFACTOR=1
##NPOINTS=685
##FIRSTY=0.0
##XYDATA=(X++(Y..Y))
4000+0+89375000000+89375000000+89375000000+89375000000+89375000000
3968+89687500000+89687500000+89687500000+89687500000+90000000000+90000000000
3937+90000000000+90000000000+90000000000+90000000000+90000000000+90000000000
3905+90000000000+90312500000+90312500000+90625000000+90312500000+90312500000
3874+90312500000+90312500000+90312500000+90625000000+90937500000+90937500000
3842+90937500000+90937500000+91250000000+90937500000+90937500000+91250000000
3811+91250000000+91250000000+91562500000+91875000000+91875000000+91875000000
3779+91875000000+92187500000+92187500000+92187500000+92500000000+92187500000
3747+92187500000+92187500000+92500000000+92500000000+92812500000+92812500000
3716+92812500000+92812500000+93125000000+93125000000+93437500000+93437500000
3684+93125000000+93125000000+93125000000+93437500000+93437500000+93437500000
3653+93437500000+93437500000+93437500000+93437500000+93750000000+93750000000
3621+93750000000+94062500000+94062500000+94062500000+94062500000+94062500000
3589+94062500000+94062500000+94062500000+94062500000+94375000000+94375000000
3558+94375000000+94375000000+94687500000+94687500000+95000000000+94687500000
3526+94687500000+94687500000+94687500000+94687500000+94687500000+94687500000
3495+94687500000+94687500000+94687500000+94687500000+94687500000+94375000000
3463+94375000000+94062500000+93437500000+93125000000+92812500000+92187500000
3432+91562500000+90937500000+90000000000+89375000000+88750000000+88437500000
3400+88437500000+88125000000+87500000000+85937500000+84062500000+82187500000
3368+81875000000+82187500000+81562500000+80937500000+79687500000+78125000000
3337+72500000000+72500000000+74687500000+74375000000+70937500000+69687500000
3305+66875000000+62812500000+55312500000+48124999999+32187500000+22500000000
3274+19375000000+19062500000+11875000000+5937500000+4687500000+5000000000
3242+8750000000+13125000000+16250000000+19062500000+20937500000+18125000000
3211+15000000000+11250000000+11562500000+19375000000+29687500000+34375000000
3179+36562500000+38125000000+39687500000+41562500000+45312500000+48437500000
3147+50312500000+50312500000+50625000000+51562500000+54062500000+56875000000
3116+56562500000+54375000000+54375000000+55937500000+60312500000+62500000000
3084+62187500000+60000000000+61250000000+66875000000+69375000000+63437500000
3053+62812500000+56562500000+49062500000+44062500000+42187500000+42187500000
3021+43125000000+45937500000+44687500000+44375000000+49375000000+55312500000
2989+58437500000+62500000000+65937500000+68750000000+70937500000+73437500000
2958+75625000000+76875000000+78125000000+79687500000+80937500000+81562500000
2926+82187500000+82500000000+82500000000+81562500000+80937500000+82812500000
2895+84375000000+85000000000+85625000000+86250000000+86875000000+87187500000
2863+87500000000+88125000000+88125000000+88437500000+88750000000+89062500000
2832+89375000000+89687500000+90000000000+90312500000+89062500000+88437500000
2800+88750000000+88750000000+89062500000+90312500000+90625000000+90312500000
2768+91875000000+91562500000+90625000000+90625000000+91250000000+92187500000
2737+92500000000+92500000000+92500000000+92500000000+92812500000+93125000000
2705+93437500000+93750000000+93750000000+94062500000+94062500000+94062500000
2674+93750000000+92500000000+89375000000+87500000000+87187500000+87500000000
2642+88437500000+85625000000+79062500000+72500000000+70625000000+71875000000
2611+77500000000+77187500000+76562500000+76875000000+78437500000+80000000000
2579+81875000000+83750000000+84687500000+85312500000+85625000000+86250000000
2547+87812500000+89062500000+89687500000+90000000000+90312500000+90625000000
2516+90625000000+90312500000+89687500000+89375000000+89687500000+89687500000
2484+89687500000+89687500000+89687500000+89687500000+90312500000+90625000000
2453+90937500000+90937500000+90000000000+90000000000+90625000000+91562500000
2421+92187500000+92187500000+92500000000+92500000000+92812500000+92812500000
2389+93125000000+93125000000+93437500000+93437500000+93437500000+93750000000
2358+93750000000+93437500000+93437500000+93125000000+93125000000+92500000000
2326+92500000000+92812500000+92812500000+92812500000+92812500000+93125000000
2295+93125000000+93125000000+93125000000+93437500000+93437500000+93437500000
2263+93437500000+93437500000+93437500000+93437500000+93437500000+93437500000
2232+93750000000+93750000000+94062500000+94062500000+94062500000+94062500000
2200+94062500000+94062500000+94062500000+94062500000+94062500000+94062500000
2168+94062500000+94062500000+94062500000+93750000000+93437500000+93437500000
2137+93125000000+93125000000+93125000000+92812500000+92500000000+91562500000
2105+89062500000+89375000000+91250000000+90937500000+90937500000+91562500000
2074+91875000000+91562500000+79375000000+75000000000+83750000000+84687500000
2042+83437500000+80000000000+77500000000+76875000000+78125000000+81250000000
2011+84375000000+86250000000+86875000000+87187500000+87187500000+87187500000
1979+87500000000+87500000000+87812500000+87500000000+85625000000+81250000000
1947+70312500000+70625000000+83125000000+86250000000+87187500000+81875000000
1916+57187500000+48124999999+54062500000+70312500000+76875000000+79687500000
1884+77187500000+70625000000+64062500000+48437500000+47187500000+63125000000
1853+67812500000+74062500000+77187500000+80312500000+83437500000+85625000000
1821+88125000000+89375000000+90312500000+91250000000+91562500000+91562500000
1789+91562500000+91250000000+91250000000+90937500000+90312500000+86875000000
1758+83750000000+79687500000+79062500000+80625000000+86250000000+86875000000
1726+88437500000+90312500000+90625000000+90937500000+90937500000+91250000000
1695+91562500000+91875000000+91562500000+87500000000+88437500000+91562500000
1663+91875000000+91875000000+92187500000+92187500000+92187500000+91875000000
1632+89062500000+88750000000+90625000000+91562500000+92187500000+92812500000
1600+93125000000+93437500000+93437500000+93437500000+93437500000+93437500000
1568+93437500000+93125000000+93125000000+93125000000+93125000000+93125000000
1537+93125000000+93125000000+93437500000+93437500000+93437500000+93125000000
1505+84375000000+85000000000+87812500000+91250000000+92187500000+92187500000
1474+91562500000+87812500000+89062500000+90937500000+90937500000+90625000000
1442+90625000000+90625000000+88125000000+85937500000+85937500000+87187500000
1411+90000000000+91562500000+91875000000+91875000000+91875000000+90937500000
1379+86875000000+85625000000+89062500000+90312500000+90625000000+91875000000
1347+93125000000+93437500000+93750000000+94062500000+94062500000+93750000000
1316+93125000000+89375000000+89375000000+91250000000+93125000000+93750000000
1284+93750000000+93437500000+92500000000+85312500000+82812500000+88750000000
1253+90937500000+92187500000+93125000000+93125000000+87812500000+93437500000
1221+94062500000+94062500000+94375000000+94375000000+94062500000+94062500000
1189+94062500000+94062500000+93750000000+93750000000+93750000000+93750000000
1158+93750000000+93750000000+93750000000+93750000000+93437500000+93437500000
1126+93437500000+93437500000+93437500000+93437500000+93437500000+93125000000
1095+90625000000+90937500000+93437500000+93437500000+93750000000+93750000000
1063+93750000000+93437500000+93437500000+93125000000+93125000000+93125000000
1032+93125000000+93125000000+93125000000+93125000000+93437500000+93750000000
1000+93750000000+94062500000+94062500000+94062500000+94062500000+93750000000
968+93750000000+93437500000+93437500000+93437500000+93437500000+93437500000
937+93437500000+93750000000+93750000000+92812500000+91875000000+91875000000
905+92187500000+92812500000+92500000000+89375000000+85000000000+78750000000
874+56875000000+40000000000+41250000000+71875000000+82812500000+86875000000
842+86875000000+87187500000+88437500000+90312500000+90937500000+91875000000
811+91875000000+90312500000+85000000000+54375000000+52812500000+76875000000
779+87812500000+90937500000+92187500000+92500000000+92500000000+92500000000
747+92500000000+92500000000+92812500000+92812500000+93125000000+92187500000
716+93125000000+92812500000+92812500000+84062500000+83437500000+91875000000
684+92812500000+93125000000+93437500000+93437500000+93437500000+93125000000
653+92812500000+92812500000+92500000000+92500000000+92500000000+92500000000
621+92500000000+92500000000+92500000000+92812500000+92812500000+93125000000
589+93125000000+92500000000+91875000000+90937500000+87812500000+82500000000
558+87187500000+90937500000+91250000000+91250000000+90937500000+90625000000
526+90000000000+89687500000+88437500000+83437500000+73750000000+47812500000
495+45312500000+68750000000+82500000000+87187500000+88437500000+89375000000
463+92812500000+91562500000+90312500000+88750000000+86875000000+83750000000
432+80000000000+75625000000+71250000000+66562500000+62187500000+59062500000
400+57812500000
##END=
