##TITLE=tetralin
##JCAMP-DX=4.24
##DATA TYPE=INFRARED SPECTRUM
##DATE=10/06/2025
##SAMPLING PROCEDURE=ATR
##ORIGIN=SDBS
##XUNITS=1/CM
##YUNITS=TRANSMITTANCE
##RESOLUTION=5.2631578947368425
##FIRSTX=4000.0
##LASTX=400.0
##DELTAX=-5.2631578947368425
##MAXY=94.6875
##MINY=0.0
##XFACTOR=1
##YFACTOR=1
##NPOINTS=685
##FIRSTY=0.0
##XYDATA=(X++(Y..Y))
4000+0+92812500000+92812500000+93125000000+93125000000+93125000000
3968+93437500000+93437500000+93437500000+93750000000+93437500000+93437500000
3937+93437500000+93437500000+93437500000+93125000000+92812500000+92812500000
3905+92812500000+92812500000+93125000000+93125000000+92812500000+92812500000
3874+92812500000+92812500000+92812500000+92812500000+93125000000+93125000000
3842+93125000000+93437500000+93125000000+93125000000+93125000000+93125000000
3811+93125000000+93125000000+93125000000+93437500000+93437500000+93750000000
3779+93437500000+93437500000+93437500000+93437500000+93750000000+93437500000
3747+93437500000+93125000000+92812500000+92500000000+92500000000+92500000000
3716+92500000000+92500000000+92500000000+92500000000+92500000000+92500000000
3684+92500000000+92187500000+92187500000+91875000000+91562500000+91250000000
3653+91250000000+91250000000+91250000000+91250000000+91250000000+90937500000
3621+90937500000+90937500000+90625000000+90625000000+90625000000+90312500000
3589+90000000000+89687500000+89687500000+89687500000+89375000000+89375000000
3558+89062500000+89062500000+89062500000+89062500000+89062500000+89062500000
3526+88750000000+88750000000+88437500000+88125000000+88125000000+87812500000
3495+87812500000+87812500000+87500000000+87500000000+87500000000+87500000000
3463+87500000000+87812500000+87812500000+88125000000+88125000000+88437500000
3432+88750000000+89062500000+89062500000+89062500000+89375000000+89375000000
3400+89687500000+90000000000+90312500000+90000000000+85625000000+85000000000
3368+86250000000+80625000000+73125000000+70625000000+63437500000+64375000000
3337+71875000000+71250000000+69062500000+55312500000+50312500000+60312500000
3305+71875000000+75000000000+82500000000+80000000000+74062500000+62812500000
3274+43125000000+20625000000+11250000000+7812500000+7812500000+11250000000
3242+18437500000+35000000000+43437499999+42187500000+42187500000+48750000000
3211+33750000000+30625000000+43125000000+37500000000+39375000000+62187500000
3179+80000000000+84062500000+84062500000+85625000000+87500000000+89375000000
3147+90000000000+90625000000+91875000000+92812500000+93125000000+93125000000
3116+93437500000+93437500000+93437500000+93125000000+92812500000+91875000000
3084+90937500000+90312500000+89375000000+89375000000+90312500000+92500000000
3053+93125000000+93437500000+93437500000+93750000000+93437500000+93125000000
3021+93125000000+93125000000+93437500000+93750000000+94062500000+94062500000
2989+94375000000+94375000000+94375000000+94062500000+94062500000+94062500000
2958+94062500000+94062500000+94062500000+94375000000+94062500000+94062500000
2926+94062500000+94375000000+94375000000+94375000000+94375000000+94375000000
2895+94375000000+94062500000+94062500000+94062500000+94062500000+94062500000
2863+94062500000+93750000000+93750000000+93750000000+93750000000+93750000000
2832+93750000000+93750000000+93750000000+94062500000+94375000000+94375000000
2800+94375000000+94062500000+94062500000+93750000000+93750000000+93750000000
2768+94062500000+94062500000+94062500000+94062500000+94062500000+94375000000
2737+94375000000+94375000000+94375000000+94375000000+94375000000+94687500000
2705+94687500000+94687500000+94687500000+94687500000+94687500000+94687500000
2674+94687500000+94687500000+94687500000+94687500000+94687500000+94687500000
2642+94687500000+94687500000+94687500000+94687500000+94687500000+94687500000
2611+94687500000+94687500000+94687500000+94687500000+94687500000+94687500000
2579+94687500000+94687500000+94375000000+94375000000+94062500000+93437500000
2547+92812500000+92187500000+91562500000+91250000000+91562500000+92187500000
2516+92812500000+92187500000+91250000000+89687500000+89375000000+89375000000
2484+90625000000+92500000000+93437500000+93750000000+93750000000+93750000000
2453+93750000000+93750000000+93750000000+93750000000+93750000000+94062500000
2421+94062500000+94062500000+93750000000+93437500000+93125000000+92812500000
2389+92812500000+92812500000+93125000000+93125000000+93437500000+93125000000
2358+92187500000+90937500000+90312500000+90312500000+90937500000+91875000000
2326+92812500000+93437500000+93437500000+93750000000+93750000000+93750000000
2295+93750000000+93750000000+93750000000+93750000000+93750000000+93750000000
2263+93750000000+93750000000+93750000000+93437500000+93437500000+93437500000
2232+93750000000+93750000000+93750000000+93750000000+93750000000+93437500000
2200+93125000000+92500000000+91875000000+90937500000+90937500000+90937500000
2168+91250000000+91250000000+91562500000+91562500000+91875000000+91875000000
2137+91875000000+91875000000+91875000000+91875000000+92187500000+92187500000
2105+92187500000+92187500000+91875000000+91562500000+91250000000+90312500000
2074+89062500000+88125000000+84687500000+83437500000+86250000000+89375000000
2042+90312500000+87500000000+80000000000+79687500000+85312500000+89375000000
2011+90625000000+91562500000+91875000000+92187500000+92187500000+92187500000
1979+92187500000+92500000000+92500000000+92500000000+92187500000+91875000000
1947+91562500000+91250000000+90625000000+90000000000+88125000000+81562500000
1916+52812500000+16562500000+34375000000+67187500000+79062500000+80312500000
1884+79062500000+79062500000+80937500000+75000000000+57812500000+47500000000
1853+35625000000+39062500000+49062500000+60000000000+46875000000+46875000000
1821+67187500000+77500000000+84062500000+87187500000+88125000000+88750000000
1789+88750000000+89375000000+89687500000+90312500000+90312500000+90937500000
1758+90937500000+90625000000+90625000000+90312500000+90312500000+90312500000
1726+90312500000+85937500000+77187500000+81562500000+88125000000+86875000000
1695+86875000000+85625000000+85937500000+90000000000+91250000000+91562500000
1663+91562500000+91562500000+91250000000+90000000000+85937500000+83125000000
1632+83125000000+83750000000+75937500000+74687500000+82812500000+89062500000
1600+90312500000+90937500000+90937500000+90000000000+87500000000+82500000000
1568+82187500000+83437500000+85312500000+85312500000+85312500000+89375000000
1537+90937500000+91875000000+92500000000+92500000000+92187500000+92187500000
1505+91875000000+91875000000+91562500000+91250000000+91250000000+90937500000
1474+90937500000+90937500000+90625000000+90000000000+89062500000+88437500000
1442+88125000000+88125000000+89062500000+90000000000+89375000000+86250000000
1411+85625000000+86875000000+88437500000+88750000000+86875000000+77812500000
1379+76562500000+82187500000+87812500000+90000000000+90937500000+90937500000
1347+90312500000+90000000000+89687500000+89375000000+87500000000+80625000000
1316+80937500000+87187500000+89375000000+90625000000+91250000000+90625000000
1284+88437500000+76562500000+77500000000+87500000000+89375000000+90312500000
1253+90937500000+90937500000+90937500000+91250000000+91250000000+91562500000
1221+91875000000+91250000000+86562500000+83125000000+87812500000+91250000000
1189+91562500000+91875000000+92187500000+92187500000+91562500000+90312500000
1158+83750000000+71562500000+71250000000+81250000000+84062500000+88437500000
1126+90625000000+91875000000+92500000000+92812500000+92500000000+91875000000
1095+90000000000+85312500000+85000000000+87187500000+90937500000+91875000000
1063+92187500000+91875000000+90625000000+88125000000+84375000000+84062500000
1032+86250000000+89687500000+91250000000+92187500000+92812500000+93125000000
1000+93125000000+92500000000+91875000000+90000000000+86875000000+80625000000
968+80937500000+86562500000+59687500000+53125000000+80625000000+87500000000
937+90625000000+90312500000+90312500000+90625000000+90937500000+90625000000
905+88437500000+86250000000+83125000000+72500000000+51250000000+24062500000
874+7500000000+4687500000+5937500000+25625000000+52187500000+70312500000
842+77500000000+82187500000+86562500000+88437500000+89375000000+89687500000
811+90000000000+90312500000+90312500000+90625000000+91250000000+91562500000
779+91875000000+92187500000+92500000000+92500000000+92812500000+92812500000
747+92812500000+92812500000+92812500000+92812500000+92812500000+92812500000
716+93125000000+93125000000+93125000000+93125000000+93437500000+93125000000
684+93125000000+92500000000+91875000000+91250000000+90937500000+90625000000
653+90625000000+90625000000+90937500000+91562500000+92187500000+92500000000
621+93125000000+93437500000+93750000000+94062500000+94062500000+94062500000
589+94375000000+94375000000+94375000000+94062500000+94062500000+93437500000
558+93125000000+92500000000+92187500000+91562500000+90937500000+90312500000
526+89687500000+89062500000+88437500000+88125000000+88125000000+88125000000
495+88437500000+89375000000+90000000000+90312500000+89062500000+85937500000
463+82500000000+78437500000+74062500000+70312500000+68125000000+65937500000
432+65000000000+64687500000+64687500000+65000000000+65625000000+66250000000
400+66562500000
##END=
