##TITLE=thymidine
##JCAMP-DX=4.24
##DATA TYPE=INFRARED SPECTRUM
##DATE=10/06/2025
##SAMPLING PROCEDURE=ATR
##ORIGIN=SDBS
##XUNITS=1/CM
##YUNITS=TRANSMITTANCE
##RESOLUTION=5.2631578947368425
##FIRSTX=4000.0
##LASTX=400.0
##DELTAX=-5.2631578947368425
##MAXY=95.0
##MINY=0.0
##XFACTOR=1
##YFACTOR=1
##NPOINTS=685
##FIRSTY=0.0
##XYDATA=(X++(Y..Y))
4000+0+90625000000+90625000000+90625000000+90625000000+90625000000
3968+90625000000+90937500000+90937500000+91250000000+91250000000+91250000000
3937+91250000000+91250000000+90937500000+90937500000+90937500000+90937500000
3905+91250000000+91250000000+91250000000+91250000000+91562500000+91562500000
3874+91562500000+91562500000+91562500000+91875000000+92187500000+92187500000
3842+92187500000+92187500000+92187500000+92187500000+92187500000+92187500000
3811+92500000000+92500000000+92812500000+92812500000+92500000000+92500000000
3779+92812500000+93125000000+93125000000+93125000000+93437500000+93125000000
3747+93125000000+93125000000+93125000000+93125000000+93125000000+93125000000
3716+93437500000+93437500000+93437500000+93437500000+93437500000+93125000000
3684+92812500000+92500000000+91875000000+91562500000+90937500000+90312500000
3653+89687500000+89062500000+88125000000+87187500000+85937500000+85000000000
3621+83125000000+81562500000+79687500000+77500000000+75000000000+71250000000
3589+67812500000+65000000000+61875000000+59375000000+57187500000+55625000000
3558+53437500000+50937500000+48124999999+45625000000+42812500000+39375000000
3526+34687500000+33437500000+33437500000+36250000000+39687500000+42812500000
3495+45625000000+48750000000+51250000000+54062500000+56250000000+58437500000
3463+60000000000+61562500000+62500000000+63125000000+63125000000+63125000000
3432+62812500000+61875000000+60000000000+58750000000+58750000000+60625000000
3400+63437500000+66250000000+66250000000+64687500000+64375000000+64375000000
3368+64375000000+64375000000+64687500000+64375000000+62500000000+58125000000
3337+54375000000+51875000000+50000000000+49062500000+47812500000+47500000000
3305+46875000000+43750000000+37812500000+26562500000+16875000000+12187500000
3274+11562500000+12187500000+8750000000+5312500000+4687500000+5312500000
3242+9062500000+13437500000+17187500000+21875000000+23750000000+20312500000
3211+16562500000+11875000000+12187500000+21250000000+36875000000+47187500000
3179+56562500000+61875000000+66562500000+69687500000+72187500000+75000000000
3147+76875000000+78125000000+78750000000+79375000000+80000000000+80000000000
3116+80000000000+80312500000+80937500000+81562500000+81562500000+81875000000
3084+81875000000+82187500000+82500000000+82812500000+83125000000+83437500000
3053+83437500000+83750000000+84375000000+85000000000+85312500000+85625000000
3021+85937500000+86250000000+87187500000+87500000000+87812500000+87812500000
2989+88125000000+88437500000+88750000000+89062500000+89375000000+89687500000
2958+89687500000+90000000000+89687500000+89687500000+89687500000+90000000000
2926+90000000000+90312500000+90312500000+90312500000+90625000000+90625000000
2895+90625000000+90625000000+90937500000+90937500000+90937500000+91250000000
2863+91250000000+91250000000+91562500000+91562500000+91562500000+91562500000
2832+91562500000+91562500000+91562500000+91875000000+92500000000+92812500000
2800+92812500000+92812500000+92812500000+92812500000+92812500000+92812500000
2768+92812500000+92812500000+93125000000+93125000000+93437500000+93437500000
2737+93437500000+93437500000+93750000000+93750000000+94062500000+94062500000
2705+94062500000+94062500000+94062500000+94062500000+94062500000+94062500000
2674+94062500000+94062500000+94062500000+94062500000+94062500000+94375000000
2642+94375000000+94375000000+94375000000+94687500000+94687500000+94687500000
2611+94687500000+94687500000+94687500000+95000000000+94687500000+94687500000
2579+94687500000+94687500000+94687500000+94687500000+94687500000+94687500000
2547+94687500000+94687500000+95000000000+95000000000+94687500000+94687500000
2516+94687500000+94687500000+94687500000+94687500000+94687500000+94687500000
2484+94375000000+94375000000+94375000000+94375000000+94375000000+94375000000
2453+94375000000+94062500000+94062500000+93750000000+93125000000+92812500000
2421+92500000000+92500000000+92500000000+92812500000+93125000000+93125000000
2389+93125000000+93437500000+93437500000+93125000000+93125000000+92812500000
2358+92500000000+91875000000+90937500000+90312500000+90000000000+89375000000
2326+89375000000+89062500000+89062500000+89062500000+88750000000+87812500000
2295+87187500000+85937500000+84687500000+83437500000+82500000000+81250000000
2263+79687500000+78750000000+77187500000+75000000000+71875000000+67187500000
2232+61562500000+53437500000+40625000000+26250000000+20937500000+20625000000
2200+19062500000+18125000000+18437500000+22500000000+32187500000+42500000000
2168+36875000000+30625000000+27187500000+24375000000+21875000000+20000000000
2137+20000000000+21562500000+28125000000+34062500000+40000000000+44999999999
2105+50625000000+55937500000+60937500000+65000000000+67812500000+69375000000
2074+71875000000+74375000000+76250000000+77500000000+79062500000+80625000000
2042+81875000000+82812500000+83750000000+84375000000+85312500000+85937500000
2011+86250000000+86562500000+86875000000+87187500000+87500000000+88125000000
1979+87812500000+87500000000+86875000000+86875000000+86562500000+86562500000
1947+86250000000+83750000000+81875000000+82187500000+82500000000+81562500000
1916+80625000000+78750000000+73750000000+62187500000+49687499999+40937500000
1884+40625000000+40625000000+35937500000+35937500000+37187499999+37812500000
1853+38749999999+45312500000+49062500000+49062500000+44687500000+44062500000
1821+50312500000+62500000000+69687500000+73437500000+72187500000+71875000000
1789+72187500000+63437500000+63125000000+68750000000+62812500000+62187500000
1758+59062500000+54687500000+53750000000+56875000000+65312500000+64062500000
1726+65000000000+70625000000+70312500000+70000000000+73437500000+78125000000
1695+76250000000+75937500000+76875000000+70625000000+65625000000+53125000000
1663+51875000000+66562500000+75625000000+78437500000+76875000000+67812500000
1632+51250000000+50937500000+52500000000+51562500000+43437499999+42500000000
1600+42500000000+51250000000+63125000000+66562500000+59062500000+58437500000
1568+62500000000+66875000000+71250000000+75000000000+73750000000+66875000000
1537+57500000000+57812500000+68437500000+76562500000+79375000000+77500000000
1505+71562500000+64062500000+64062500000+71562500000+78125000000+80937500000
1474+78437500000+65625000000+61875000000+67500000000+77500000000+82500000000
1442+84687500000+85625000000+85937500000+86250000000+86875000000+85625000000
1411+82812500000+75937500000+60000000000+48750000000+50625000000+69687500000
1379+71250000000+68125000000+61562500000+55000000000+56875000000+67812500000
1347+76250000000+80312500000+76562500000+64062500000+49062500000+36875000000
1316+36250000000+43437499999+58125000000+67812500000+72500000000+75312500000
1284+78750000000+80937500000+80625000000+74062500000+65000000000+65000000000
1253+73125000000+65625000000+52187500000+52187500000+61875000000+65312500000
1221+69062500000+80312500000+85000000000+86250000000+82187500000+71875000000
1189+63750000000+63437500000+70625000000+70625000000+62187500000+65937500000
1158+75312500000+81250000000+83750000000+84375000000+85000000000+85937500000
1126+86250000000+85625000000+84687500000+82500000000+78750000000+68437500000
1095+58437500000+62187500000+68750000000+69687500000+68750000000+65625000000
1063+65312500000+65937500000+68437500000+60625000000+63437500000+75000000000
1032+78437500000+66250000000+58437500000+63437500000+78437500000+83750000000
1000+85937500000+87187500000+88125000000+88750000000+89062500000+89375000000
968+89687500000+90000000000+90000000000+90312500000+89687500000+86562500000
937+86250000000+87812500000+89062500000+87812500000+84062500000+79375000000
905+73750000000+73750000000+79687500000+67500000000+79375000000+88437500000
874+89062500000+86562500000+78437500000+73437500000+74062500000+81250000000
842+81562500000+81875000000+85000000000+87187500000+88437500000+89062500000
811+88750000000+88125000000+86875000000+84375000000+82500000000+78750000000
779+75312500000+74687500000+74687500000+76562500000+80000000000+83125000000
747+84687500000+85312500000+84687500000+84062500000+82500000000+78750000000
716+70000000000+66250000000+67187500000+71562500000+74375000000+77187500000
684+78750000000+80625000000+84062500000+85000000000+86250000000+87187500000
653+87500000000+87187500000+87187500000+86875000000+86875000000+87187500000
621+87500000000+88125000000+85625000000+75937500000+74062500000+77187500000
589+83750000000+87500000000+89687500000+91250000000+92500000000+93437500000
558+93750000000+94375000000+94375000000+94375000000+94375000000+94687500000
526+94687500000+94687500000+94062500000+92812500000+91562500000+86250000000
495+62500000000+61875000000+86562500000+91562500000+88437500000+89062500000
463+90000000000+87812500000+85625000000+83437500000+81875000000+79375000000
432+77187500000+75000000000+73750000000+72500000000+71562500000+71250000000
400+70937500000
##END=
