##TITLE=trans-2-octene
##JCAMP-DX=4.24
##DATA TYPE=INFRARED SPECTRUM
##DATE=10/06/2025
##SAMPLING PROCEDURE=ATR
##ORIGIN=SDBS
##XUNITS=1/CM
##YUNITS=TRANSMITTANCE
##RESOLUTION=5.2631578947368425
##FIRSTX=4000.0
##LASTX=400.0
##DELTAX=-5.2631578947368425
##MAXY=94.6875
##MINY=0.0
##XFACTOR=1
##YFACTOR=1
##NPOINTS=685
##FIRSTY=0.0
##XYDATA=(X++(Y..Y))
4000+0+93750000000+93750000000+93437500000+93437500000+93437500000
3968+93437500000+93437500000+93437500000+93437500000+93125000000+93125000000
3937+93125000000+93125000000+93437500000+93125000000+93125000000+93125000000
3905+93125000000+93437500000+93750000000+93750000000+94062500000+93750000000
3874+93437500000+93437500000+93750000000+93750000000+94062500000+94375000000
3842+94687500000+94687500000+94687500000+94375000000+94062500000+94062500000
3811+94375000000+94375000000+94687500000+94687500000+94687500000+94375000000
3779+94062500000+94062500000+94062500000+94062500000+94062500000+94062500000
3747+94062500000+94062500000+93750000000+93750000000+93750000000+93750000000
3716+93750000000+93750000000+93750000000+93437500000+93437500000+93437500000
3684+93750000000+93750000000+93750000000+93437500000+93125000000+93125000000
3653+92812500000+92812500000+92500000000+92500000000+92187500000+92187500000
3621+92187500000+92187500000+92187500000+92187500000+91875000000+91875000000
3589+92187500000+92187500000+92187500000+91875000000+91875000000+91875000000
3558+91562500000+91250000000+90937500000+90937500000+90625000000+90625000000
3526+90312500000+90000000000+89687500000+89375000000+89062500000+88437500000
3495+88125000000+87812500000+87500000000+87500000000+87187500000+87187500000
3463+86875000000+86875000000+86562500000+86562500000+86562500000+86562500000
3432+86562500000+86875000000+86875000000+87187500000+87187500000+87187500000
3400+87187500000+87500000000+87500000000+87812500000+88125000000+88125000000
3368+87812500000+87500000000+87187500000+86250000000+85000000000+82500000000
3337+79062500000+72500000000+58750000000+55937500000+57500000000+62500000000
3305+58437500000+57187500000+52500000000+37187499999+14687500000+9375000000
3274+9687500000+17500000000+8437500000+5000000000+4687500000+5312500000
3242+12187500000+22187500000+28750000000+33437500000+27187500000+25937500000
3211+17812500000+15937500000+20000000000+37500000000+54687500000+68437500000
3179+76875000000+80937500000+83750000000+85625000000+86562500000+87812500000
3147+88750000000+89062500000+89375000000+89062500000+87812500000+84062500000
3116+84375000000+88750000000+89687500000+90625000000+90625000000+90312500000
3084+90000000000+90000000000+90000000000+90312500000+90625000000+90625000000
3053+90937500000+90937500000+91250000000+91250000000+91250000000+91250000000
3021+91562500000+91562500000+91562500000+91875000000+91875000000+92187500000
2989+92187500000+92187500000+92187500000+92187500000+92187500000+92500000000
2958+92812500000+92812500000+92812500000+92500000000+92500000000+92187500000
2926+92187500000+92187500000+92187500000+92187500000+92187500000+92187500000
2895+92187500000+92187500000+91875000000+91875000000+91875000000+91875000000
2863+91875000000+92187500000+92187500000+92187500000+92187500000+92187500000
2832+92187500000+92500000000+92500000000+92500000000+92812500000+92812500000
2800+92812500000+92812500000+92812500000+92812500000+92812500000+92812500000
2768+92812500000+92812500000+92812500000+93125000000+93125000000+93125000000
2737+93125000000+93125000000+93125000000+93125000000+93125000000+93125000000
2705+93437500000+93437500000+93437500000+93437500000+93437500000+93437500000
2674+93437500000+93437500000+93437500000+93437500000+93750000000+93437500000
2642+93437500000+93437500000+93437500000+93125000000+92812500000+92500000000
2611+92500000000+92812500000+92812500000+93125000000+93125000000+93125000000
2579+93437500000+93437500000+93437500000+93437500000+93437500000+93750000000
2547+93750000000+93750000000+93750000000+93750000000+93750000000+93750000000
2516+93750000000+93750000000+93750000000+93750000000+93750000000+93750000000
2484+93750000000+93750000000+93750000000+93750000000+93750000000+93750000000
2453+93750000000+93750000000+93750000000+93750000000+93750000000+93437500000
2421+93437500000+93437500000+93437500000+93437500000+93437500000+93437500000
2389+93437500000+93437500000+93437500000+93125000000+93125000000+93125000000
2358+92812500000+92812500000+92812500000+92812500000+92812500000+92812500000
2326+92812500000+92812500000+92812500000+92812500000+93125000000+93125000000
2295+93125000000+93125000000+92812500000+92812500000+92500000000+92187500000
2263+91875000000+91562500000+91250000000+90937500000+90937500000+90937500000
2232+90625000000+90625000000+90625000000+90625000000+90625000000+90625000000
2200+90625000000+90625000000+90625000000+90625000000+90312500000+90312500000
2168+90000000000+90000000000+90000000000+90000000000+90312500000+90625000000
2137+90937500000+91250000000+91250000000+91250000000+91250000000+90937500000
2105+90937500000+90625000000+90625000000+90625000000+90625000000+91250000000
2074+91250000000+91562500000+91562500000+91562500000+91250000000+91250000000
2042+90937500000+90937500000+90625000000+90625000000+90312500000+90312500000
2011+90000000000+89687500000+89687500000+89687500000+89375000000+89062500000
1979+89062500000+88750000000+88437500000+88437500000+88437500000+88437500000
1947+88750000000+89687500000+90312500000+89687500000+88437500000+87500000000
1916+86562500000+85937500000+85312500000+83750000000+81562500000+78125000000
1884+70937500000+57500000000+46250000000+46875000000+43437499999+42187500000
1853+42500000000+47187500000+52500000000+50937500000+50625000000+55000000000
1821+65000000000+72812500000+77187500000+80625000000+83125000000+84375000000
1789+85000000000+85312500000+85312500000+84687500000+83125000000+79687500000
1758+71875000000+57500000000+56250000000+67812500000+79375000000+81562500000
1726+83125000000+85312500000+85312500000+85625000000+85000000000+84062500000
1695+83750000000+85312500000+86562500000+87187500000+87187500000+86562500000
1663+85937500000+85625000000+85312500000+85000000000+85000000000+85312500000
1632+85937500000+86875000000+86875000000+86875000000+86875000000+87500000000
1600+88437500000+89375000000+90312500000+90625000000+90937500000+90937500000
1568+90625000000+90312500000+89687500000+89375000000+88125000000+87812500000
1537+88125000000+88750000000+89375000000+89375000000+89687500000+89687500000
1505+89687500000+89687500000+89687500000+89687500000+90312500000+90937500000
1474+91250000000+91250000000+91250000000+91250000000+91250000000+91250000000
1442+91250000000+91250000000+91250000000+91250000000+91250000000+91250000000
1411+91250000000+91250000000+91562500000+91250000000+90937500000+90000000000
1379+88437500000+87187500000+87812500000+89375000000+90312500000+89375000000
1347+88437500000+87187500000+85937500000+85625000000+85937500000+86250000000
1316+86562500000+87187500000+86250000000+85937500000+85312500000+85000000000
1284+85312500000+86250000000+86562500000+87500000000+87500000000+87500000000
1253+87187500000+86875000000+86562500000+86250000000+85625000000+84375000000
1221+83125000000+81562500000+79375000000+74062500000+65312500000+54375000000
1189+42187500000+26562500000+15625000000+15625000000+25625000000+46875000000
1158+63437500000+72500000000+77812500000+79687500000+79375000000+79062500000
1126+79062500000+80625000000+82812500000+82812500000+82500000000+82187500000
1095+82187500000+82812500000+83750000000+84687500000+85000000000+85312500000
1063+85937500000+86875000000+88125000000+88750000000+89062500000+89062500000
1032+89062500000+88750000000+88750000000+88750000000+88750000000+89062500000
1000+89375000000+90000000000+90625000000+91250000000+91562500000+91562500000
968+91562500000+91562500000+91562500000+91562500000+91562500000+91562500000
937+91250000000+90937500000+90000000000+89062500000+87812500000+87500000000
905+87187500000+87187500000+87187500000+86875000000+86562500000+85937500000
874+85312500000+84375000000+82500000000+80312500000+77187500000+74687500000
842+74687500000+80312500000+84062500000+86250000000+88125000000+89062500000
811+89375000000+89687500000+90000000000+90625000000+90937500000+91562500000
779+91562500000+91562500000+91562500000+91250000000+91250000000+90625000000
747+90625000000+92500000000+93125000000+93750000000+93437500000+93437500000
716+93125000000+93125000000+93125000000+93125000000+93125000000+93437500000
684+93437500000+93750000000+93750000000+93750000000+93750000000+93750000000
653+93750000000+93750000000+93750000000+93437500000+93125000000+92812500000
621+92187500000+91875000000+91250000000+90937500000+90625000000+90625000000
589+90625000000+90937500000+90937500000+91250000000+91562500000+91875000000
558+91875000000+91562500000+91562500000+91875000000+91875000000+91875000000
526+91562500000+91250000000+90625000000+90312500000+90000000000+89687500000
495+89375000000+89375000000+89375000000+89375000000+89375000000+89687500000
463+90312500000+90625000000+90937500000+90937500000+90312500000+89375000000
432+88437500000+87187500000+85937500000+84687500000+83750000000+83125000000
400+82812500000
##END=
