##TITLE=trans,trans-2,4-hexadiene
##JCAMP-DX=4.24
##DATA TYPE=INFRARED SPECTRUM
##DATE=10/06/2025
##SAMPLING PROCEDURE=ATR
##ORIGIN=SDBS
##XUNITS=1/CM
##YUNITS=TRANSMITTANCE
##RESOLUTION=5.2631578947368425
##FIRSTX=4000.0
##LASTX=400.0
##DELTAX=-5.2631578947368425
##MAXY=95.0
##MINY=0.0
##XFACTOR=1
##YFACTOR=1
##NPOINTS=685
##FIRSTY=0.0
##XYDATA=(X++(Y..Y))
4000+0+90625000000+90312500000+90000000000+90000000000+90000000000
3968+89687500000+89687500000+89687500000+89375000000+89375000000+89375000000
3937+89687500000+90000000000+89687500000+89687500000+90000000000+90000000000
3905+90000000000+90312500000+90312500000+90312500000+90312500000+90312500000
3874+90312500000+90625000000+90625000000+90625000000+90625000000+90625000000
3842+90625000000+90937500000+90937500000+90937500000+90937500000+91250000000
3811+91250000000+90937500000+90937500000+90937500000+90937500000+90937500000
3779+90937500000+90937500000+90937500000+90937500000+91250000000+91250000000
3747+91250000000+91250000000+91250000000+91562500000+91562500000+91562500000
3716+91562500000+91250000000+91250000000+90937500000+91250000000+91250000000
3684+91562500000+91562500000+91562500000+91562500000+91562500000+91562500000
3653+91562500000+91562500000+91562500000+91562500000+91562500000+91875000000
3621+91875000000+92187500000+91875000000+91875000000+91875000000+92187500000
3589+92187500000+91875000000+91875000000+91562500000+91562500000+91562500000
3558+91562500000+91562500000+91562500000+91562500000+91562500000+91562500000
3526+91562500000+91562500000+91562500000+91250000000+90937500000+90937500000
3495+90625000000+90625000000+90625000000+90625000000+90625000000+90937500000
3463+91250000000+91250000000+90937500000+90625000000+90312500000+90312500000
3432+89687500000+89375000000+89375000000+89375000000+89375000000+89062500000
3400+88125000000+87500000000+86562500000+85937500000+85000000000+84375000000
3368+83437500000+81875000000+80625000000+79062500000+76875000000+73125000000
3337+67187500000+57812500000+37500000000+14687500000+13125000000+18750000000
3305+21875000000+39375000000+50937500000+46562499999+29687500000+23437500000
3274+24375000000+31250000000+21562500000+20312500000+21875000000+16875000000
3242+18750000000+30000000000+40312499999+34687500000+33125000000+40937500000
3211+35625000000+25000000000+32187500000+63125000000+75937500000+80000000000
3179+80000000000+81875000000+84687500000+86250000000+87812500000+88750000000
3147+89062500000+89687500000+89687500000+87187500000+82500000000+76250000000
3116+76562500000+86875000000+90000000000+90937500000+91250000000+91562500000
3084+91562500000+91875000000+92500000000+92812500000+93125000000+93125000000
3053+93125000000+93125000000+92812500000+92500000000+92500000000+92500000000
3021+92500000000+92500000000+92500000000+92500000000+92500000000+92500000000
2989+92500000000+92500000000+92500000000+92812500000+93125000000+93125000000
2958+93437500000+93437500000+92812500000+91250000000+90625000000+90625000000
2926+91562500000+92187500000+92812500000+93125000000+92812500000+92187500000
2895+91562500000+90625000000+90937500000+91250000000+91562500000+91875000000
2863+92187500000+92500000000+92812500000+92812500000+93125000000+93125000000
2832+93125000000+93437500000+93437500000+93750000000+93750000000+93750000000
2800+93750000000+93750000000+93750000000+93437500000+93437500000+93125000000
2768+93125000000+93437500000+93437500000+93750000000+93750000000+94062500000
2737+94062500000+94062500000+94062500000+94062500000+94062500000+94062500000
2705+94375000000+94375000000+94375000000+94375000000+94375000000+94375000000
2674+94375000000+94375000000+94375000000+94375000000+94375000000+94687500000
2642+94375000000+93750000000+91562500000+91250000000+91875000000+92812500000
2611+93750000000+94062500000+94375000000+94062500000+94062500000+93437500000
2579+92812500000+92187500000+92187500000+92500000000+92812500000+93125000000
2547+93750000000+94375000000+94687500000+94687500000+94687500000+94687500000
2516+94687500000+94375000000+94375000000+94375000000+94062500000+94062500000
2484+94062500000+94062500000+94062500000+94062500000+94062500000+94062500000
2453+94062500000+93437500000+92812500000+91562500000+88437500000+86562500000
2421+86875000000+88750000000+90312500000+91250000000+91562500000+91562500000
2389+91250000000+90937500000+89687500000+88125000000+85000000000+83125000000
2358+83125000000+84062500000+86250000000+88437500000+89687500000+90000000000
2326+89375000000+86875000000+85625000000+85312500000+86562500000+88750000000
2295+90625000000+91562500000+92187500000+92812500000+93125000000+93437500000
2263+93750000000+93750000000+94062500000+94062500000+94062500000+93750000000
2232+93437500000+93437500000+93125000000+92812500000+92187500000+91562500000
2200+90625000000+89062500000+87187500000+84062500000+81562500000+81562500000
2168+82812500000+85937500000+88125000000+89375000000+90312500000+90625000000
2137+91250000000+91562500000+91250000000+90625000000+89375000000+87187500000
2105+82812500000+68750000000+65937500000+75937500000+85937500000+89062500000
2074+90000000000+90937500000+91562500000+91875000000+91875000000+91875000000
2042+91875000000+91875000000+91875000000+91875000000+91875000000+91875000000
2011+91875000000+91875000000+91875000000+91875000000+91875000000+91562500000
1979+91562500000+91250000000+91250000000+91250000000+90937500000+90937500000
1947+90937500000+90625000000+90312500000+89687500000+88750000000+87812500000
1916+87187500000+86250000000+85312500000+83750000000+82187500000+79375000000
1884+75625000000+72187500000+69375000000+66875000000+61875000000+56250000000
1853+46250000000+35000000000+29375000000+29375000000+31562500000+36562500000
1821+47187500000+57187500000+64687500000+70000000000+73750000000+76562500000
1789+78125000000+79687500000+80625000000+80625000000+79062500000+75625000000
1758+69062500000+60312500000+56875000000+58750000000+67500000000+73125000000
1726+76562500000+80000000000+82812500000+85000000000+86250000000+87187500000
1695+87812500000+88125000000+87812500000+87187500000+86562500000+86250000000
1663+85312500000+83437500000+80625000000+78437500000+78437500000+80000000000
1632+83750000000+85625000000+86562500000+86562500000+86562500000+86562500000
1600+86875000000+87500000000+88437500000+89375000000+90000000000+90312500000
1568+90625000000+90312500000+86875000000+84687500000+86250000000+89062500000
1537+89687500000+90312500000+90625000000+90625000000+90625000000+90625000000
1505+90937500000+91250000000+91250000000+91562500000+91562500000+91875000000
1474+91875000000+92187500000+92187500000+92187500000+92187500000+92187500000
1442+92500000000+92500000000+92500000000+92812500000+92812500000+92812500000
1411+93125000000+93125000000+93125000000+93437500000+93437500000+93437500000
1379+93437500000+93125000000+92812500000+92500000000+92187500000+91562500000
1347+90937500000+90000000000+89375000000+88437500000+88125000000+88125000000
1316+88125000000+88125000000+88125000000+88125000000+87500000000+86875000000
1284+85625000000+84375000000+83437500000+82500000000+81250000000+79375000000
1253+77187500000+74062500000+68750000000+61250000000+52500000000+37812500000
1221+21562500000+9375000000+5312500000+4687500000+5312500000+10937500000
1189+21875000000+32187500000+41562500000+51875000000+60625000000+65625000000
1158+68750000000+66562500000+63125000000+57187500000+47500000000+38125000000
1126+35000000000+35312500000+43125000000+55625000000+66250000000+73437500000
1095+79062500000+82812500000+85312500000+86875000000+88125000000+89062500000
1063+89687500000+90000000000+90312500000+90625000000+90937500000+91250000000
1032+91562500000+91562500000+91875000000+91875000000+92187500000+92187500000
1000+92187500000+92500000000+92500000000+92500000000+92812500000+92812500000
968+92812500000+92812500000+92500000000+92500000000+92812500000+92812500000
937+93125000000+93125000000+93437500000+93437500000+92812500000+92187500000
905+90937500000+89687500000+87187500000+83125000000+76562500000+75625000000
874+76250000000+81562500000+86562500000+89062500000+90312500000+91250000000
842+92187500000+92812500000+93125000000+93437500000+93437500000+93750000000
811+93750000000+94062500000+94375000000+94375000000+94375000000+94375000000
779+94375000000+94375000000+94375000000+94375000000+94375000000+94375000000
747+94687500000+94687500000+94687500000+94687500000+94687500000+94687500000
716+94687500000+94687500000+94687500000+94687500000+95000000000+95000000000
684+94687500000+94687500000+94687500000+94375000000+94062500000+93750000000
653+93437500000+93437500000+93437500000+93437500000+93750000000+93750000000
621+93750000000+94062500000+94062500000+94375000000+94375000000+94687500000
589+94375000000+94375000000+94062500000+93750000000+93750000000+93437500000
558+93437500000+93437500000+93437500000+93437500000+93125000000+92812500000
526+92187500000+91875000000+91562500000+90937500000+90625000000+90000000000
495+89375000000+89062500000+89062500000+89062500000+89375000000+89687500000
463+90000000000+89375000000+87500000000+85000000000+82500000000+79375000000
432+76250000000+74375000000+72812500000+71875000000+71562500000+71250000000
400+70937500000
##END=
