##TITLE=trans-1,3-pentadiene
##JCAMP-DX=4.24
##DATA TYPE=INFRARED SPECTRUM
##DATE=10/06/2025
##SAMPLING PROCEDURE=ATR
##ORIGIN=SDBS
##XUNITS=1/CM
##YUNITS=TRANSMITTANCE
##RESOLUTION=5.2631578947368425
##FIRSTX=4000.0
##LASTX=400.0
##DELTAX=-5.2631578947368425
##MAXY=94.6875
##MINY=0.0
##XFACTOR=1
##YFACTOR=1
##NPOINTS=685
##FIRSTY=0.0
##XYDATA=(X++(Y..Y))
4000+0+92187500000+91875000000+91875000000+91562500000+90937500000
3968+90312500000+90312500000+90625000000+90937500000+91250000000+91250000000
3937+90937500000+90625000000+90312500000+90312500000+90312500000+90312500000
3905+90625000000+90625000000+90312500000+90000000000+89687500000+89687500000
3874+89375000000+89375000000+89687500000+90000000000+89687500000+89375000000
3842+89375000000+89375000000+89687500000+90000000000+89687500000+89375000000
3811+89375000000+89062500000+88750000000+88437500000+88750000000+89062500000
3779+89375000000+89375000000+89375000000+89062500000+88750000000+88125000000
3747+87812500000+87187500000+87187500000+86875000000+86875000000+86562500000
3716+86562500000+86562500000+86562500000+87187500000+87500000000+87812500000
3684+87500000000+86875000000+86250000000+86250000000+86250000000+86250000000
3653+85937500000+85625000000+85625000000+85312500000+85312500000+85000000000
3621+84687500000+84375000000+84375000000+84062500000+83750000000+83437500000
3589+83437500000+83125000000+82812500000+82500000000+82500000000+82500000000
3558+82500000000+82500000000+82500000000+82500000000+82500000000+82187500000
3526+81562500000+81250000000+80937500000+80312500000+80000000000+79687500000
3495+79375000000+79375000000+79375000000+79062500000+79062500000+78750000000
3463+78750000000+78437500000+78125000000+78125000000+78437500000+78750000000
3432+79062500000+79062500000+79062500000+79062500000+79062500000+78437500000
3400+78125000000+77812500000+77187500000+75312500000+68125000000+55625000000
3368+35625000000+35937500000+51250000000+60625000000+58437500000+53125000000
3337+43125000000+35937500000+35937500000+32500000000+18750000000+18125000000
3305+23750000000+36875000000+38125000000+31562500000+28125000000+28125000000
3274+31875000000+35000000000+28750000000+28437500000+27187500000+22500000000
3242+26875000000+39687500000+44999999999+38749999999+39687500000+51875000000
3211+50625000000+39375000000+39687500000+60312500000+73437500000+77812500000
3179+80000000000+82500000000+84687500000+85937500000+86875000000+87812500000
3147+88437500000+89062500000+89062500000+87812500000+85625000000+79375000000
3116+79687500000+85937500000+87812500000+90000000000+90625000000+90625000000
3084+90937500000+91250000000+91562500000+91562500000+91875000000+91875000000
3053+92187500000+92187500000+92187500000+92187500000+92187500000+92187500000
3021+92187500000+91875000000+91875000000+91250000000+90937500000+90625000000
2989+90937500000+90937500000+91562500000+91875000000+92187500000+92500000000
2958+92187500000+92187500000+92187500000+91875000000+91250000000+90625000000
2926+90625000000+90625000000+90937500000+91562500000+91875000000+92187500000
2895+92500000000+92500000000+91875000000+91250000000+90937500000+90937500000
2863+90937500000+90937500000+91250000000+91562500000+91562500000+91875000000
2832+91875000000+92187500000+92812500000+92812500000+92812500000+92500000000
2800+92187500000+92187500000+92500000000+92812500000+93125000000+93125000000
2768+93437500000+93437500000+93437500000+93750000000+94062500000+94062500000
2737+94375000000+94375000000+94375000000+94375000000+94375000000+94687500000
2705+94687500000+94687500000+94687500000+94687500000+94687500000+94375000000
2674+94375000000+94062500000+94062500000+94375000000+94062500000+93750000000
2642+93750000000+93750000000+94062500000+94062500000+93750000000+93437500000
2611+93125000000+92812500000+92812500000+92500000000+92500000000+92500000000
2579+92500000000+92500000000+92500000000+92500000000+92500000000+92500000000
2547+92500000000+92500000000+92500000000+92812500000+93125000000+93437500000
2516+93437500000+93750000000+93750000000+93750000000+93750000000+93750000000
2484+93750000000+93750000000+93750000000+94062500000+93750000000+93750000000
2453+93437500000+93125000000+92500000000+92187500000+91562500000+90625000000
2421+89375000000+87187500000+83750000000+82187500000+82187500000+84375000000
2389+86562500000+88125000000+87812500000+86875000000+84375000000+80625000000
2358+78125000000+75625000000+72187500000+68125000000+65312500000+64375000000
2326+64375000000+65625000000+70625000000+75312500000+80937500000+84687500000
2295+85937500000+84062500000+83125000000+83125000000+86250000000+88437500000
2263+90000000000+90937500000+91562500000+92187500000+92500000000+92187500000
2232+91875000000+91562500000+91250000000+90937500000+90937500000+90937500000
2200+91250000000+91250000000+91250000000+91250000000+90000000000+88750000000
2168+85625000000+80937500000+74062500000+65000000000+56875000000+49062500000
2137+38437500000+36875000000+42500000000+55625000000+67500000000+72187500000
2105+74062500000+75312500000+76875000000+77500000000+75312500000+71250000000
2074+65312500000+48750000000+29375000000+29687500000+50312500000+66250000000
2042+73437500000+75625000000+75625000000+78750000000+80937500000+82812500000
2011+84687500000+85937500000+86562500000+87187500000+87500000000+87812500000
1979+88125000000+87812500000+86250000000+84687500000+84062500000+84062500000
1947+84375000000+84687500000+85000000000+85312500000+85625000000+85312500000
1916+85312500000+84375000000+83437500000+82187500000+81250000000+79375000000
1884+76562500000+73437500000+69062500000+62500000000+55000000000+46875000000
1853+40312499999+39687500000+41562500000+45625000000+44062500000+44062500000
1821+48437500000+54375000000+57812500000+48750000000+35312500000+36250000000
1789+50625000000+62187500000+68437500000+71562500000+72187500000+69375000000
1758+65000000000+61250000000+60625000000+61875000000+67187500000+73125000000
1726+77187500000+80625000000+82812500000+84062500000+85000000000+85937500000
1695+86562500000+86875000000+86250000000+85625000000+84375000000+82187500000
1663+78437500000+72812500000+65937500000+65625000000+68125000000+72187500000
1632+74062500000+75000000000+77500000000+79687500000+82187500000+81875000000
1600+75625000000+76562500000+82187500000+84062500000+84687500000+84687500000
1568+85312500000+85625000000+85625000000+85937500000+86250000000+86875000000
1537+87187500000+87500000000+88125000000+88750000000+89062500000+88750000000
1505+88125000000+87500000000+85937500000+82187500000+80000000000+79687500000
1474+79687500000+80312500000+81562500000+82812500000+83750000000+84375000000
1442+85000000000+85625000000+86250000000+87187500000+87812500000+88125000000
1411+88125000000+88125000000+88125000000+87812500000+87500000000+86875000000
1379+86562500000+85937500000+85625000000+85000000000+84375000000+83750000000
1347+83125000000+82500000000+81875000000+81250000000+80312500000+79375000000
1316+78125000000+76250000000+74375000000+72812500000+71250000000+69062500000
1284+65937500000+62500000000+59687500000+56250000000+51250000000+44062500000
1253+36250000000+26250000000+15000000000+7187500000+4687500000+4687500000
1221+6250000000+11562500000+19062500000+25312500000+29687500000+29062500000
1189+29687500000+35937500000+44062500000+46250000000+39687500000+28125000000
1158+19687500000+19687500000+27500000000+39062500000+49375000000+55312500000
1126+57500000000+54687500000+49687499999+42500000000+34687500000+23750000000
1095+14687500000+8750000000+7187500000+7187500000+10000000000+18437500000
1063+30625000000+42187500000+52812500000+60625000000+65937500000+69687500000
1032+72187500000+74062500000+75000000000+75625000000+76875000000+77500000000
1000+77812500000+76562500000+71562500000+65000000000+53437500000+45937500000
968+46250000000+55625000000+64375000000+73437500000+78437500000+82812500000
937+84062500000+85000000000+86250000000+87187500000+87500000000+88125000000
905+88750000000+89375000000+89687500000+90312500000+90625000000+90937500000
874+90937500000+91250000000+91250000000+91250000000+91250000000+91250000000
842+90937500000+90625000000+89375000000+88437500000+87812500000+87500000000
811+87500000000+87500000000+87500000000+87500000000+87812500000+88437500000
779+89062500000+89375000000+89687500000+89062500000+86562500000+84375000000
747+83437500000+83437500000+82812500000+80625000000+76875000000+71875000000
716+70937500000+70937500000+71875000000+74375000000+77812500000+83437500000
684+84375000000+85937500000+87187500000+88125000000+88437500000+89062500000
653+89687500000+90000000000+90312500000+90625000000+90937500000+90937500000
621+91250000000+91562500000+91562500000+91875000000+92187500000+92187500000
589+92500000000+92187500000+91875000000+91562500000+91250000000+90937500000
558+90625000000+90312500000+90000000000+89375000000+88750000000+87812500000
526+87187500000+86875000000+86875000000+86562500000+86562500000+86562500000
495+86250000000+85937500000+85625000000+85000000000+84375000000+83437500000
463+82812500000+81875000000+80937500000+80312500000+79687500000+78750000000
432+77187500000+75625000000+74062500000+71875000000+70000000000+68750000000
400+68125000000
##END=
