##TITLE=trans-decalin
##JCAMP-DX=4.24
##DATA TYPE=INFRARED SPECTRUM
##DATE=10/06/2025
##SAMPLING PROCEDURE=ATR
##ORIGIN=SDBS
##XUNITS=1/CM
##YUNITS=TRANSMITTANCE
##RESOLUTION=5.2631578947368425
##FIRSTX=4000.0
##LASTX=400.0
##DELTAX=-5.2631578947368425
##MAXY=95.0
##MINY=0.0
##XFACTOR=1
##YFACTOR=1
##NPOINTS=685
##FIRSTY=0.0
##XYDATA=(X++(Y..Y))
4000+0+88125000000+88437500000+88437500000+88750000000+89062500000
3968+89062500000+89375000000+89375000000+89375000000+89062500000+88750000000
3937+88437500000+88437500000+88437500000+88750000000+89062500000+89687500000
3905+90000000000+89687500000+89375000000+89062500000+89062500000+89062500000
3874+89062500000+89375000000+89375000000+89375000000+89375000000+89062500000
3842+88750000000+88437500000+88437500000+88750000000+88750000000+89062500000
3811+89375000000+89062500000+89062500000+89375000000+89375000000+89375000000
3779+89687500000+89687500000+90000000000+89687500000+89687500000+90000000000
3747+90000000000+90312500000+90625000000+90625000000+90625000000+90625000000
3716+90625000000+90625000000+90625000000+90625000000+90937500000+90937500000
3684+90937500000+90625000000+90625000000+90625000000+90312500000+90312500000
3653+90000000000+89687500000+89375000000+89062500000+89062500000+88750000000
3621+88750000000+88750000000+89062500000+89062500000+89062500000+89062500000
3589+89375000000+89375000000+89375000000+89375000000+89375000000+89375000000
3558+89687500000+89687500000+89375000000+89375000000+89375000000+89375000000
3526+89375000000+89375000000+89375000000+89687500000+89375000000+89062500000
3495+88750000000+88437500000+88125000000+88125000000+88125000000+88437500000
3463+88437500000+88750000000+88750000000+88750000000+89062500000+89375000000
3432+89687500000+90000000000+89687500000+89375000000+89375000000+89375000000
3400+89375000000+89687500000+90000000000+90312500000+90625000000+90625000000
3368+90000000000+89375000000+88750000000+88125000000+88125000000+88125000000
3337+88125000000+88437500000+88750000000+88125000000+87187500000+85625000000
3305+82812500000+79687500000+75625000000+70937500000+62500000000+52500000000
3274+39062500000+25625000000+13437500000+7812500000+5312500000+4687500000
3242+6250000000+9687500000+13125000000+17500000000+22500000000+30937500000
3211+21250000000+8437500000+8125000000+10937500000+24062500000+42187500000
3179+58750000000+64687500000+67187500000+68750000000+68750000000+75625000000
3147+79687500000+82187500000+85625000000+85937500000+87187500000+88437500000
3116+88125000000+86875000000+83437500000+82500000000+80312500000+80312500000
3084+83125000000+82500000000+70937500000+67812500000+76562500000+85000000000
3053+80000000000+80000000000+87812500000+87812500000+87187500000+86250000000
3021+87812500000+85937500000+85937500000+89687500000+91562500000+91562500000
2989+91875000000+91875000000+92187500000+92500000000+92500000000+91562500000
2958+90000000000+90312500000+91562500000+91250000000+91250000000+92812500000
2926+93750000000+93437500000+92812500000+92500000000+92187500000+92187500000
2895+92500000000+93125000000+90625000000+90312500000+91875000000+92500000000
2863+92500000000+92187500000+92187500000+92187500000+92187500000+92187500000
2832+92187500000+92187500000+92500000000+92500000000+92500000000+92812500000
2800+93125000000+93437500000+93750000000+93750000000+94062500000+94062500000
2768+93750000000+92812500000+92500000000+92500000000+92812500000+92500000000
2737+92187500000+92500000000+93125000000+93437500000+93750000000+93750000000
2705+93750000000+93750000000+94062500000+94062500000+93750000000+93750000000
2674+93750000000+93750000000+93750000000+93437500000+93437500000+93437500000
2642+93750000000+94062500000+93750000000+93750000000+93750000000+93750000000
2611+93750000000+93750000000+93750000000+93750000000+93750000000+93750000000
2579+93750000000+94062500000+94062500000+94062500000+94062500000+94062500000
2547+94062500000+94062500000+94062500000+94062500000+94062500000+94375000000
2516+94375000000+94375000000+94375000000+94375000000+94375000000+94375000000
2484+94375000000+94375000000+94687500000+94687500000+94687500000+94687500000
2453+94687500000+94375000000+94375000000+94375000000+94375000000+94375000000
2421+94375000000+94375000000+94687500000+94687500000+94687500000+94687500000
2389+94687500000+95000000000+94687500000+94687500000+94687500000+94375000000
2358+94375000000+94062500000+93750000000+93750000000+93750000000+93750000000
2326+93750000000+93750000000+93750000000+94062500000+94062500000+94062500000
2295+94062500000+94062500000+93750000000+93750000000+93437500000+93437500000
2263+93437500000+93437500000+93437500000+93437500000+93437500000+93437500000
2232+93437500000+93437500000+93437500000+93437500000+93437500000+93437500000
2200+93437500000+93437500000+93437500000+93437500000+93437500000+93437500000
2168+93437500000+93437500000+93437500000+93125000000+93125000000+93125000000
2137+93125000000+93125000000+93125000000+93125000000+93125000000+93125000000
2105+92812500000+92812500000+92812500000+92500000000+92500000000+92500000000
2074+92500000000+92500000000+92500000000+92500000000+92500000000+92500000000
2042+92500000000+92812500000+92812500000+93125000000+93437500000+93437500000
2011+93750000000+94062500000+94062500000+94062500000+94375000000+94375000000
1979+94375000000+94062500000+94062500000+93750000000+93437500000+93125000000
1947+92500000000+91562500000+91250000000+90937500000+90937500000+91250000000
1916+91250000000+90937500000+90312500000+89375000000+88750000000+87500000000
1884+85625000000+82812500000+77500000000+66250000000+46875000000+48437500000
1853+28437500000+19062500000+21875000000+34687500000+52500000000+66250000000
1821+75312500000+80312500000+83437500000+84375000000+84375000000+85625000000
1789+87187500000+87500000000+87812500000+87500000000+87187500000+87187500000
1758+87187500000+88125000000+89062500000+89062500000+88437500000+86875000000
1726+85937500000+85625000000+83125000000+73125000000+59687500000+69687500000
1695+82500000000+69375000000+65937500000+82812500000+87500000000+88437500000
1663+86875000000+83125000000+68125000000+67812500000+80625000000+85937500000
1632+88125000000+89062500000+89062500000+89062500000+89062500000+88750000000
1600+88437500000+87812500000+86562500000+84375000000+67500000000+62500000000
1568+78125000000+85625000000+86875000000+87500000000+86250000000+81875000000
1537+75000000000+76875000000+86250000000+88750000000+90000000000+90937500000
1505+91250000000+91562500000+91562500000+91562500000+91562500000+91250000000
1474+91250000000+90937500000+90937500000+90625000000+89687500000+89062500000
1442+84062500000+82812500000+87500000000+86562500000+75000000000+68125000000
1411+81562500000+87500000000+89062500000+89375000000+89687500000+90000000000
1379+90312500000+90312500000+90312500000+90000000000+90000000000+90000000000
1347+89687500000+89687500000+89687500000+89375000000+89062500000+88125000000
1316+87187500000+82812500000+74687500000+76250000000+83750000000+85625000000
1284+87187500000+87500000000+85625000000+71875000000+71562500000+85000000000
1253+87812500000+88750000000+88750000000+89062500000+89375000000+89687500000
1221+89375000000+88437500000+83437500000+83437500000+88125000000+81875000000
1189+54687500000+54687500000+82812500000+89375000000+90625000000+91250000000
1158+91562500000+91562500000+91250000000+90312500000+88750000000+85937500000
1126+73437500000+52500000000+65000000000+85937500000+89375000000+90625000000
1095+91562500000+92187500000+92500000000+92500000000+92187500000+92187500000
1063+91875000000+91562500000+91250000000+90937500000+90937500000+90937500000
1032+90937500000+90625000000+89687500000+87187500000+76562500000+59687500000
1000+60312500000+80000000000+84062500000+60312500000+63750000000+85000000000
968+88750000000+90000000000+90000000000+86875000000+90312500000+90937500000
937+91250000000+91562500000+91875000000+92500000000+92812500000+93125000000
905+93437500000+93750000000+94062500000+94062500000+94375000000+94375000000
874+94687500000+94687500000+94687500000+95000000000+95000000000+94687500000
842+94687500000+94375000000+94375000000+94062500000+93750000000+93437500000
811+93125000000+92812500000+92812500000+92500000000+92500000000+92187500000
779+92187500000+92187500000+92187500000+92187500000+91875000000+91562500000
747+91250000000+90937500000+90937500000+90937500000+90625000000+90625000000
716+90625000000+90625000000+90625000000+90625000000+90625000000+90312500000
684+90312500000+90312500000+90312500000+90312500000+90000000000+90000000000
653+89687500000+89687500000+89687500000+89687500000+90000000000+90312500000
621+90625000000+91250000000+91875000000+92812500000+93437500000+94062500000
589+94375000000+94062500000+92500000000+84687500000+79687500000+84062500000
558+90000000000+91562500000+91562500000+91562500000+91250000000+90312500000
526+90000000000+89687500000+89375000000+89375000000+89375000000+89375000000
495+89687500000+90000000000+90312500000+90937500000+91562500000+92187500000
463+91875000000+90625000000+88437500000+85937500000+83125000000+80000000000
432+76250000000+72812500000+70000000000+66875000000+64375000000+62812500000
400+61875000000
##END=
