##TITLE=trans-2,6-dimethyl-3-heptene
##JCAMP-DX=4.24
##DATA TYPE=INFRARED SPECTRUM
##DATE=10/06/2025
##SAMPLING PROCEDURE=ATR
##ORIGIN=SDBS
##XUNITS=1/CM
##YUNITS=TRANSMITTANCE
##RESOLUTION=5.2631578947368425
##FIRSTX=4000.0
##LASTX=400.0
##DELTAX=-5.2631578947368425
##MAXY=95.0
##MINY=0.0
##XFACTOR=1
##YFACTOR=1
##NPOINTS=685
##FIRSTY=0.0
##XYDATA=(X++(Y..Y))
4000+0+89375000000+89375000000+89375000000+89062500000+89062500000
3968+89375000000+89375000000+89687500000+89375000000+89375000000+89375000000
3937+89375000000+89062500000+89062500000+89062500000+89062500000+89062500000
3905+89062500000+89062500000+89062500000+89062500000+89062500000+89062500000
3874+89062500000+89375000000+89375000000+89687500000+89687500000+89375000000
3842+89375000000+89375000000+89375000000+89375000000+89687500000+89687500000
3811+89687500000+89687500000+89687500000+90000000000+90000000000+90312500000
3779+90312500000+90000000000+90000000000+90312500000+90312500000+90000000000
3747+90000000000+89687500000+89687500000+89687500000+89687500000+89687500000
3716+89687500000+89687500000+89687500000+89687500000+89687500000+90000000000
3684+90000000000+89687500000+89687500000+89375000000+89375000000+89375000000
3653+89375000000+89375000000+89375000000+89687500000+89375000000+89375000000
3621+89375000000+89375000000+89375000000+89375000000+89375000000+89375000000
3589+89375000000+89375000000+89062500000+89062500000+89062500000+89062500000
3558+89062500000+89062500000+89062500000+88750000000+88750000000+88750000000
3526+89062500000+89062500000+89062500000+89062500000+89375000000+89375000000
3495+89375000000+89375000000+89062500000+89062500000+88750000000+88437500000
3463+88437500000+88125000000+88125000000+87812500000+87500000000+87500000000
3432+87500000000+87500000000+87812500000+87812500000+88125000000+88125000000
3400+88437500000+88750000000+89062500000+89375000000+89375000000+89062500000
3368+89062500000+88750000000+88437500000+87500000000+86562500000+84375000000
3337+82187500000+77187500000+75000000000+74062500000+71875000000+67187500000
3305+64062500000+60000000000+44375000000+23750000000+7812500000+5000000000
3274+4687500000+8125000000+21875000000+20312500000+20312500000+23750000000
3242+26250000000+24375000000+24687500000+29062500000+26250000000+20312500000
3211+24375000000+46250000000+59375000000+56562500000+58125000000+69687500000
3179+78437500000+80937500000+83437500000+85000000000+86250000000+86875000000
3147+88125000000+88437500000+88750000000+89062500000+89687500000+88437500000
3116+87500000000+87500000000+88125000000+89062500000+90312500000+90625000000
3084+90937500000+90937500000+90937500000+90937500000+90937500000+90937500000
3053+90937500000+90937500000+90937500000+90937500000+90625000000+90625000000
3021+90625000000+90937500000+90937500000+91250000000+91562500000+91875000000
2989+92187500000+92500000000+92812500000+92812500000+92812500000+92812500000
2958+92812500000+92812500000+92812500000+92500000000+92500000000+92812500000
2926+92812500000+92812500000+92812500000+92812500000+92812500000+92812500000
2895+93125000000+93125000000+93125000000+93125000000+92812500000+92812500000
2863+93125000000+93125000000+93125000000+93125000000+93437500000+93437500000
2832+93437500000+93437500000+93437500000+93437500000+93437500000+93437500000
2800+93750000000+93750000000+93750000000+93750000000+93750000000+93750000000
2768+93750000000+93750000000+93750000000+94062500000+94062500000+94375000000
2737+94062500000+94062500000+94062500000+94062500000+94062500000+94062500000
2705+94375000000+94375000000+94375000000+94375000000+94375000000+94375000000
2674+94375000000+94375000000+94375000000+94375000000+94375000000+94375000000
2642+94687500000+94687500000+94687500000+94375000000+94375000000+94375000000
2611+94375000000+94375000000+94375000000+94375000000+94375000000+94375000000
2579+94375000000+94375000000+94375000000+94375000000+94375000000+94687500000
2547+94687500000+94687500000+94687500000+94687500000+94687500000+94687500000
2516+95000000000+95000000000+94687500000+94687500000+94687500000+94687500000
2484+94687500000+94687500000+94687500000+94687500000+94687500000+94687500000
2453+94687500000+94687500000+94375000000+94375000000+94375000000+94375000000
2421+94375000000+94375000000+94375000000+94375000000+94375000000+94375000000
2389+94375000000+94375000000+94062500000+94062500000+94062500000+94062500000
2358+94062500000+94062500000+94062500000+94062500000+94062500000+94062500000
2326+94062500000+94375000000+94375000000+94375000000+94375000000+94375000000
2295+94375000000+94062500000+93750000000+93125000000+93125000000+92812500000
2263+92500000000+92500000000+92812500000+92812500000+92812500000+92812500000
2232+93125000000+93125000000+92812500000+92500000000+92187500000+92187500000
2200+92187500000+92500000000+92500000000+92812500000+92812500000+92812500000
2168+92812500000+92812500000+92812500000+92812500000+92812500000+92812500000
2137+92812500000+92812500000+92812500000+93125000000+93125000000+93125000000
2105+93437500000+93437500000+93750000000+93750000000+94062500000+94062500000
2074+94062500000+94062500000+94062500000+94062500000+94375000000+94375000000
2042+94375000000+94375000000+94375000000+94375000000+94375000000+94062500000
2011+94062500000+94062500000+94062500000+93750000000+93750000000+93750000000
1979+93437500000+93437500000+93437500000+93437500000+93437500000+93437500000
1947+93125000000+92812500000+92500000000+92187500000+91562500000+90937500000
1916+90625000000+89687500000+88437500000+86250000000+83437500000+77187500000
1884+65937500000+49687499999+38437500000+38437500000+44062500000+51250000000
1853+58125000000+63437500000+70312500000+75625000000+73750000000+74375000000
1821+81250000000+85000000000+86250000000+87500000000+88125000000+88125000000
1789+87500000000+87500000000+86562500000+85000000000+80625000000+67187500000
1758+55000000000+56250000000+68437500000+73125000000+57187500000+55312500000
1726+63125000000+71875000000+81250000000+84375000000+85937500000+85937500000
1695+84687500000+81875000000+81562500000+84375000000+87812500000+89062500000
1663+88125000000+87187500000+84687500000+84687500000+85937500000+88437500000
1632+90000000000+90312500000+90937500000+91250000000+91250000000+90937500000
1600+90937500000+90937500000+89375000000+88750000000+88750000000+90937500000
1568+92187500000+92500000000+92812500000+92187500000+91562500000+91250000000
1537+90625000000+90625000000+91250000000+92500000000+93125000000+93437500000
1505+93750000000+93437500000+93125000000+92812500000+91562500000+89375000000
1474+86562500000+84687500000+80312500000+77812500000+78437500000+84375000000
1442+87812500000+89375000000+90312500000+90937500000+91562500000+91875000000
1411+92187500000+92187500000+91562500000+90312500000+87812500000+87500000000
1379+85937500000+83750000000+83437500000+84062500000+88125000000+89687500000
1347+90312500000+90625000000+91250000000+91562500000+91875000000+92187500000
1316+92500000000+92812500000+92500000000+92187500000+91562500000+89687500000
1284+87187500000+86250000000+86250000000+87187500000+88750000000+90312500000
1253+91250000000+91562500000+91875000000+91875000000+91875000000+91562500000
1221+90625000000+89687500000+87812500000+82500000000+72812500000+54687500000
1189+42500000000+35937500000+36250000000+56875000000+71875000000+76562500000
1158+78750000000+80312500000+83437500000+84687500000+86875000000+89687500000
1126+90312500000+87812500000+85937500000+86562500000+90000000000+90937500000
1095+92187500000+92812500000+93125000000+92812500000+92500000000+92187500000
1063+92187500000+91875000000+92187500000+92187500000+92500000000+92812500000
1032+93125000000+93125000000+93437500000+93437500000+93125000000+93125000000
1000+93125000000+92812500000+92812500000+92812500000+92500000000+92500000000
968+92812500000+92812500000+93125000000+93437500000+93437500000+93750000000
937+93750000000+94062500000+94062500000+94375000000+94375000000+94687500000
905+94687500000+95000000000+94687500000+94687500000+94375000000+94375000000
874+93750000000+92500000000+90312500000+89062500000+88750000000+88750000000
842+89687500000+90625000000+91250000000+92500000000+93125000000+93750000000
811+94062500000+94062500000+94375000000+94375000000+94375000000+94375000000
779+94375000000+94375000000+94375000000+94375000000+94375000000+94375000000
747+94375000000+94375000000+94375000000+94062500000+94062500000+93750000000
716+93750000000+93437500000+93437500000+93125000000+93125000000+92812500000
684+92812500000+92500000000+92187500000+92187500000+91875000000+91875000000
653+91562500000+91562500000+91562500000+91875000000+92187500000+92500000000
621+92812500000+92812500000+93125000000+93437500000+93750000000+93750000000
589+93750000000+93750000000+93437500000+93437500000+93437500000+93437500000
558+92812500000+92187500000+91250000000+90312500000+89375000000+88750000000
526+88125000000+87500000000+87187500000+87187500000+87187500000+87187500000
495+87187500000+87500000000+87812500000+88125000000+87812500000+87187500000
463+86875000000+85937500000+85000000000+84375000000+84062500000+83437500000
432+83125000000+82500000000+81562500000+80625000000+79687500000+79062500000
400+78437500000
##END=
