##TITLE=trans-2,4,5-triphenyl-3-oxazoline
##JCAMP-DX=4.24
##DATA TYPE=INFRARED SPECTRUM
##DATE=04/06/2025
##SAMPLING PROCEDURE=ATR
##ORIGIN=SDBS
##XUNITS=1/CM
##YUNITS=TRANSMITTANCE
##RESOLUTION=6.010016694490818
##FIRSTX=4000.0
##LASTX=400.0
##DELTAX=-6.010016694490818
##MAXY=0.9940935914557967
##MINY=0.001061793309481196
##XFACTOR=1
##YFACTOR=1
##NPOINTS=600
##FIRSTY=0.6779860945681753
##XYDATA=(X++(Y..Y))
4000+677986094+391684228+200756503+19040298+142072659+786326462
3964+820747725+895406617+102392464+526701754+380620979+991764889
3928+585336581+289897891+687699892+597788466+298659040+467961865
3892+388949534+831156526+708138871+793249731+24541524+196509958
3856+500425908+3194772+377629132+987056656+399285200+491392847
3820+320742322+480028348+344314648+635684475+432423836+502712893
3784+218002601+840710827+644884610+305900158+824291293+42320056
3748+480668195+251242356+607887154+680115682+650640673+896031129
3712+54409963+437359887+583008514+387611130+166288332+806851662
3675+674410749+502497313+730828141+840468239+92803951+346117710
3639+589432695+950317389+716472304+759249063+992439299+27289812
3603+185651222+580943965+794448771+949136593+206863956+185920006
3567+545682004+782687534+660763393+465258745+916123312+9242162
3531+541949157+131985046+448003800+951388533+483840916+745499685
3495+296845106+693838749+680628796+417026239+579867998+461132801
3459+655413801+476875700+791359326+494852481+970954861+689534835
3423+80624421+431212221+215615920+583700624+585075985+258863919
3387+828983456+482222286+776724324+8283059+336918370+196104724
3351+661317049+193294350+213360803+536247312+14332646+350873068
3315+317486267+796844092+85696777+640234680+885628494+427597192
3279+477567978+95800402+732359851+518647694+476661925+545381308
3243+727958548+703530870+75178302+528793380+722929336+618908979
3207+600570631+658414816+810970683+610277197+383833169+516944350
3171+74854199+245204717+235897427+979941369+99164397+107680849
3135+138002772+961884021+969446073+801961363+767717116+851839034
3098+20147918+838207183+707805317+387072942+371742951+571051887
3062+388473315+683931257+634436076+489309094+684502098+159942146
3026+799575535+908614437+343235634+78269493+895685449+84906145
2990+838308690+405120401+220742539+467585694+712894212+748138910
2954+452012875+167265036+462385024+112622497+60763533+848428821
2918+135352697+184299063+802005339+580997028+671075192+717238929
2882+979934186+500824419+884989904+299553982+499324051+306825108
2846+278227178+674205512+430398498+207041381+160762633+957221563
2810+567899495+445710633+476857094+721640396+618693578+422367558
2774+427158877+240489776+760367912+764487822+883164511+634721749
2738+234102221+565896964+270928366+622348386+48773859+617782789
2702+783698164+985287612+14403086+147954345+501941178+978494661
2666+392892376+28209325+898023507+634347073+53774704+728678552
2630+804345851+868452997+874932278+881126605+245824365+730850548
2594+760507323+151883236+414048893+513440162+57930833+899970970
2558+948801252+708836469+283633777+663359197+875820155+101879388
2522+639475671+118541792+280388717+766266413+523530825+762216592
2485+768702376+334330938+777133881+509028567+639819457+592231960
2449+901470469+909740418+373181904+645667941+646626158+735658624
2413+97945678+922334900+592769154+516453561+424859040+678215320
2377+80076245+759590421+256032794+815381384+966354732+895787190
2341+21897361+835963663+173782280+663766410+229956616+259544187
2305+249640223+809299420+539322440+889857010+686317412+784985577
2269+96457290+778576351+1061793+645142754+35283298+198433338
2233+4665869+442126034+373559141+944524771+796108178+631036635
2197+111510149+929458791+146904880+788248966+214446493+942861373
2161+58877943+584263737+77369579+935910272+153915899+379558245
2125+325401206+368977283+435010867+479492531+543187535+573507388
2089+757579795+903059549+797607942+171698058+361680034+457933295
2053+302507066+299773809+927723438+645948915+924789607+603856296
2017+260432692+196076631+431735054+831017689+987415054+745899260
1981+910022433+452449247+83684753+493125470+733571515+277971367
1945+667914645+524753698+840291153+916642269+388558408+843061419
1909+403354278+368522311+276064855+916798016+775880262+677041407
1872+339583313+967055208+166200047+948693293+829051256+522379100
1836+784636022+205780461+172272339+219703830+384602080+771936264
1800+295746807+616297921+914825166+932388153+672031123+753482737
1764+143703706+835193101+67298008+672141216+171555180+605802965
1728+810106353+994093591+447073467+803317875+730249956+921220235
1692+770774897+27660273+936159056+33508114+341173269+526807105
1656+823621932+52623157+60697540+504713469+356023937+286808981
1620+99986069+515854044+799971501+231191273+670151742+809492463
1584+840241288+597733880+33460008+325928365+631576322+221596124
1548+208244694+543469491+30986771+212510099+69695099+917095546
1512+667437390+487147343+587958686+794689369+238948559+769892382
1476+107756303+991112642+817940171+976746316+6930256+681230185
1440+293749717+528148945+27250142+994017678+50629617+192097403
1404+215615144+581447933+969415026+369977993+162488552+978624265
1368+864358584+817717938+348141525+486511604+85673579+703805617
1332+283625370+23209842+575747491+281635117+314066752+805136843
1295+890071961+857891066+987619576+831824715+864790777+803493149
1259+107462069+896668582+324854869+579328234+522791143+661027892
1223+173237485+401421977+68041024+302361994+112787157+946331207
1187+36482650+557542795+56872758+490289525+906042321+316145907
1151+695905620+667888419+493665957+753682031+921207943+59229222
1115+918488673+882984782+229810562+73429200+111300634+190171103
1079+42665459+780125234+876100741+731783071+696633550+84729218
1043+436441909+945343805+918627048+785914273+173107625+431910573
1007+506753855+322852653+939497324+32931136+756955572+33867284
971+540784496+889707432+298564608+59874520+136353093+415078120
935+989527885+609031351+142926045+639169007+131250684+710407614
899+395185602+867257422+978454989+887411532+470746141+209523198
863+315049290+944667290+363609775+745029350+451172525+746348380
827+406740709+714668300+597344022+887686670+241144545+427621714
791+761372318+926043944+673344193+71760462+165692226+310159924
755+458046029+344731202+769018410+913364522+668522501+2636745
719+532129697+639638495+125863577+943938556+241028110+329389677
682+739086240+677792093+864865811+708118335+501925827+670928587
646+272480958+862625363+862718158+394468157+440236437+57819560
610+639790481+949366903+555075795+378282741+199627358+541385866
574+660045370+518430074+992151096+46038040+900497179+575449132
538+627913834+87896493+448210574+278527996+967582576+464029927
502+828916847+502478514+521996522+573613343+909014864+590094469
466+821360105+213447713+672705968+874707412+756005460+744713112
430+561017510+633281627+659940922+650790445+26846399+600597854
##END=
