##TITLE=trans-1-ethyl-2-butenyl hydrogen phthalate brucine salt
##JCAMP-DX=4.24
##DATA TYPE=INFRARED SPECTRUM
##DATE=10/06/2025
##SAMPLING PROCEDURE=ATR
##ORIGIN=SDBS
##XUNITS=1/CM
##YUNITS=TRANSMITTANCE
##RESOLUTION=5.2631578947368425
##FIRSTX=4000.0
##LASTX=400.0
##DELTAX=-5.2631578947368425
##MAXY=95.0
##MINY=0.0
##XFACTOR=1
##YFACTOR=1
##NPOINTS=685
##FIRSTY=0.0
##XYDATA=(X++(Y..Y))
4000+0+94062500000+94062500000+93750000000+93750000000+93750000000
3968+93750000000+93750000000+93437500000+93437500000+93437500000+93125000000
3937+93125000000+92812500000+92812500000+92500000000+92500000000+92500000000
3905+92187500000+92187500000+91875000000+91875000000+91875000000+91875000000
3874+91875000000+91875000000+91562500000+91562500000+91250000000+91250000000
3842+91250000000+91250000000+91562500000+91562500000+91562500000+91250000000
3811+91250000000+91562500000+91562500000+91250000000+91250000000+91250000000
3779+91250000000+91250000000+91250000000+91250000000+90937500000+90937500000
3747+90625000000+90625000000+90625000000+90625000000+90625000000+90625000000
3716+90312500000+90312500000+90312500000+90312500000+90312500000+90312500000
3684+90000000000+89687500000+89687500000+89375000000+89375000000+89062500000
3653+88750000000+88437500000+88125000000+88125000000+87500000000+87500000000
3621+87187500000+86875000000+86250000000+85937500000+85625000000+85000000000
3589+84687500000+84687500000+84687500000+84687500000+84687500000+84375000000
3558+84375000000+84062500000+83750000000+83750000000+83437500000+83125000000
3526+82812500000+82812500000+82500000000+82187500000+81875000000+81562500000
3495+81250000000+80937500000+80937500000+80937500000+80937500000+80937500000
3463+81250000000+81250000000+81250000000+81250000000+81250000000+81562500000
3432+81875000000+82187500000+82500000000+82812500000+83437500000+83750000000
3400+84687500000+85000000000+85625000000+86250000000+86562500000+86875000000
3368+87187500000+87187500000+86875000000+85937500000+85312500000+84687500000
3337+83437500000+82812500000+80937500000+79062500000+75937500000+70625000000
3305+60937500000+54687500000+44375000000+28750000000+16250000000+10937500000
3274+10000000000+10312500000+7500000000+5000000000+4687500000+5000000000
3242+8125000000+11562500000+14687500000+18125000000+19687500000+17500000000
3211+14375000000+11250000000+11875000000+21875000000+42187500000+58750000000
3179+69687500000+75625000000+80000000000+83125000000+85312500000+87812500000
3147+89375000000+90000000000+90625000000+90625000000+90000000000+89062500000
3116+88437500000+88750000000+89375000000+90000000000+90000000000+89687500000
3084+89375000000+89375000000+89375000000+89687500000+90000000000+90312500000
3053+90625000000+90937500000+91250000000+91250000000+91250000000+91250000000
3021+91562500000+91875000000+92187500000+92812500000+93125000000+93437500000
2989+93750000000+93750000000+93750000000+93750000000+93750000000+93750000000
2958+94062500000+94062500000+94062500000+93750000000+93437500000+93125000000
2926+93125000000+92812500000+92500000000+92187500000+92187500000+91875000000
2895+91875000000+91562500000+91250000000+90937500000+90937500000+90625000000
2863+90625000000+90312500000+90000000000+90000000000+89687500000+89687500000
2832+89375000000+89062500000+89062500000+89062500000+89062500000+88750000000
2800+88750000000+88750000000+88750000000+88750000000+88750000000+88750000000
2768+88750000000+88750000000+88750000000+88750000000+88750000000+88750000000
2737+89062500000+89062500000+89062500000+89062500000+89062500000+89062500000
2705+89375000000+89687500000+90000000000+90312500000+90312500000+90625000000
2674+90937500000+90937500000+91250000000+91250000000+91250000000+91250000000
2642+91250000000+91250000000+91562500000+91875000000+92187500000+92500000000
2611+92500000000+92812500000+92812500000+92812500000+93125000000+93125000000
2579+93125000000+93125000000+93125000000+93125000000+93125000000+93125000000
2547+93437500000+93437500000+93750000000+93750000000+93750000000+94062500000
2516+94062500000+94062500000+94062500000+94062500000+94062500000+94375000000
2484+94375000000+94375000000+94687500000+94687500000+94687500000+94687500000
2453+94687500000+94687500000+94687500000+94687500000+94687500000+94687500000
2421+94687500000+94687500000+94687500000+94375000000+94375000000+94375000000
2389+94375000000+94375000000+94375000000+94375000000+94687500000+94687500000
2358+94687500000+94687500000+94687500000+95000000000+95000000000+94687500000
2326+94687500000+94687500000+94375000000+94375000000+94375000000+94062500000
2295+93750000000+93750000000+93437500000+93125000000+93125000000+93125000000
2263+93125000000+93125000000+92812500000+91875000000+90625000000+88437500000
2232+86875000000+84375000000+78437500000+70000000000+52812500000+40937500000
2200+44062500000+62500000000+79687500000+84062500000+85625000000+83437500000
2168+79687500000+74375000000+61875000000+33750000000+28750000000+34375000000
2137+51875000000+62500000000+66562500000+68125000000+70937500000+70937500000
2105+70000000000+68750000000+67500000000+67500000000+67812500000+68125000000
2074+70000000000+71875000000+74375000000+75625000000+72187500000+72812500000
2042+78750000000+81562500000+83750000000+80000000000+75312500000+75312500000
2011+78750000000+81250000000+83437500000+84687500000+85625000000+85937500000
1979+86562500000+87187500000+87500000000+88125000000+88125000000+88125000000
1947+87812500000+86562500000+84062500000+77812500000+67500000000+50000000000
1916+48437500000+50312500000+58750000000+65000000000+65937500000+62187500000
1884+53437500000+38437500000+30000000000+29375000000+28125000000+28125000000
1853+29062500000+35625000000+40312499999+43750000000+53125000000+61875000000
1821+70937500000+76250000000+73125000000+70000000000+62500000000+63437500000
1789+63125000000+64687500000+73750000000+79375000000+76562500000+64062500000
1758+54375000000+42812500000+40000000000+44999999999+54062500000+51562500000
1726+51875000000+57500000000+63750000000+68750000000+67812500000+68750000000
1695+69062500000+66250000000+65625000000+68125000000+70625000000+64375000000
1663+55000000000+54062500000+55000000000+56250000000+49375000000+44999999999
1632+46562499999+56562500000+53125000000+54062500000+51250000000+40000000000
1600+36875000000+41874999999+54062500000+55937500000+56250000000+64375000000
1568+66875000000+67187500000+72500000000+73750000000+77187500000+79062500000
1537+71875000000+69062500000+65312500000+65312500000+68125000000+70937500000
1505+70312500000+65312500000+64687500000+71562500000+78125000000+76875000000
1474+74062500000+69687500000+69375000000+70312500000+73125000000+75625000000
1442+78750000000+81562500000+79687500000+81250000000+79062500000+71250000000
1411+62812500000+56562500000+56250000000+60625000000+59687500000+56875000000
1379+55937500000+60625000000+67187500000+73125000000+76562500000+78125000000
1347+78437500000+68125000000+64375000000+59375000000+59062500000+66250000000
1316+72187500000+66875000000+65625000000+70000000000+68437500000+65937500000
1284+72187500000+74375000000+64375000000+63750000000+61875000000+61250000000
1253+65625000000+72812500000+75937500000+76875000000+73750000000+69375000000
1221+71250000000+70625000000+70312500000+73750000000+69375000000+68437500000
1189+73125000000+74375000000+77500000000+79062500000+77187500000+76562500000
1158+76875000000+79687500000+82187500000+82500000000+82500000000+82187500000
1126+81250000000+80000000000+79375000000+79375000000+81250000000+84062500000
1095+84687500000+85625000000+85312500000+80937500000+65000000000+60625000000
1063+72187500000+81875000000+85937500000+87187500000+86562500000+83125000000
1032+82812500000+84375000000+79687500000+80000000000+85000000000+82500000000
1000+84062500000+87500000000+68125000000+66250000000+80937500000+83437500000
968+88437500000+90000000000+90625000000+90625000000+90625000000+90312500000
937+89062500000+85937500000+87812500000+88750000000+87500000000+83125000000
905+72500000000+72812500000+80000000000+74062500000+65625000000+64687500000
874+68750000000+79687500000+81875000000+82187500000+81875000000+80312500000
842+77500000000+77500000000+80000000000+84687500000+85625000000+86562500000
811+87187500000+84375000000+82500000000+84062500000+82500000000+88125000000
779+92187500000+93125000000+93750000000+93750000000+92812500000+87187500000
747+77187500000+76250000000+81250000000+81250000000+87812500000+90937500000
716+90625000000+86250000000+86250000000+91250000000+91250000000+91250000000
684+91562500000+91875000000+89375000000+82812500000+80937500000+80937500000
653+81875000000+84062500000+86562500000+88750000000+89375000000+90000000000
621+90312500000+90625000000+90312500000+90312500000+90312500000+90312500000
589+90625000000+90312500000+90000000000+89375000000+88750000000+88437500000
558+88125000000+88125000000+87812500000+87812500000+87812500000+88125000000
526+87812500000+87500000000+87187500000+86875000000+86875000000+86875000000
495+86875000000+87187500000+86875000000+86562500000+85937500000+85625000000
463+85625000000+85000000000+83750000000+81562500000+78750000000+75625000000
432+73437500000+72812500000+72812500000+73437500000+75000000000+76875000000
400+77812500000
##END=
