##TITLE=tri-tert-butyl borate
##JCAMP-DX=4.24
##DATA TYPE=INFRARED SPECTRUM
##DATE=10/06/2025
##SAMPLING PROCEDURE=ATR
##ORIGIN=SDBS
##XUNITS=1/CM
##YUNITS=TRANSMITTANCE
##RESOLUTION=5.2631578947368425
##FIRSTX=4000.0
##LASTX=400.0
##DELTAX=-5.2631578947368425
##MAXY=95.0
##MINY=0.0
##XFACTOR=1
##YFACTOR=1
##NPOINTS=685
##FIRSTY=0.0
##XYDATA=(X++(Y..Y))
4000+0+92187500000+92187500000+92187500000+92187500000+92187500000
3968+92187500000+91875000000+91875000000+92187500000+92500000000+92500000000
3937+92500000000+92500000000+92500000000+92500000000+92500000000+92500000000
3905+92500000000+92812500000+92812500000+92812500000+92812500000+92812500000
3874+92812500000+92500000000+92500000000+92812500000+93125000000+93437500000
3842+93437500000+93437500000+93125000000+93125000000+93125000000+93125000000
3811+93125000000+93125000000+93437500000+93437500000+93125000000+93125000000
3779+92812500000+92812500000+92500000000+92187500000+92187500000+91875000000
3747+91875000000+91250000000+90937500000+90625000000+90312500000+90000000000
3716+89375000000+88750000000+87812500000+86875000000+85937500000+85000000000
3684+84062500000+83125000000+82187500000+81250000000+80625000000+79687500000
3653+78750000000+78125000000+77500000000+76562500000+75937500000+75000000000
3621+74375000000+73437500000+72500000000+72187500000+71562500000+70937500000
3589+70000000000+69687500000+68750000000+68125000000+67187500000+66562500000
3558+65625000000+64375000000+63750000000+62812500000+61562500000+60312500000
3526+59375000000+58125000000+56875000000+55312500000+54062500000+52812500000
3495+51250000000+49687499999+48437500000+47500000000+46562499999+46250000000
3463+46250000000+46250000000+46562499999+47187500000+48124999999+49687499999
3432+51562500000+53750000000+55937500000+58125000000+59687500000+61562500000
3400+63437500000+65312500000+67187500000+68750000000+70312500000+72187500000
3368+73125000000+74687500000+75312500000+76562500000+77187500000+77812500000
3337+78437500000+78437500000+78125000000+76562500000+72500000000+62500000000
3305+44375000000+43125000000+24687500000+16250000000+16250000000+26875000000
3274+43437499999+51875000000+49062500000+47500000000+50312500000+57187500000
3242+57812500000+58125000000+65312500000+66250000000+64375000000+64687500000
3211+71562500000+76875000000+83437500000+85625000000+85937500000+85937500000
3179+85937500000+86250000000+87187500000+87812500000+88437500000+88437500000
3147+88750000000+88750000000+88750000000+88750000000+89062500000+88750000000
3116+88437500000+88125000000+88125000000+88125000000+88125000000+88437500000
3084+88750000000+89062500000+89687500000+90000000000+90000000000+90000000000
3053+90000000000+90312500000+90312500000+90312500000+90312500000+90312500000
3021+90312500000+90312500000+90625000000+90625000000+90625000000+90625000000
2989+90625000000+90625000000+90625000000+90937500000+90937500000+90937500000
2958+90937500000+90937500000+91250000000+91250000000+91562500000+91562500000
2926+91562500000+91562500000+91562500000+91250000000+91250000000+91250000000
2895+90937500000+90937500000+90937500000+91250000000+91250000000+91250000000
2863+91562500000+91562500000+91562500000+91875000000+91875000000+91875000000
2832+91875000000+92187500000+92187500000+92187500000+91875000000+90937500000
2800+90937500000+90937500000+90937500000+91250000000+91562500000+91875000000
2768+92187500000+92500000000+92812500000+92812500000+93125000000+93125000000
2737+93125000000+92812500000+92812500000+92812500000+92812500000+92812500000
2705+93125000000+93125000000+93125000000+93437500000+93437500000+93437500000
2674+93750000000+94062500000+94062500000+94062500000+94062500000+94062500000
2642+94062500000+94062500000+93750000000+93750000000+93437500000+92812500000
2611+92500000000+92500000000+92500000000+92500000000+92812500000+93125000000
2579+93437500000+93750000000+94062500000+94375000000+94375000000+94687500000
2547+94375000000+94375000000+94375000000+94375000000+94375000000+94375000000
2516+94375000000+94375000000+94687500000+94687500000+94687500000+94687500000
2484+94687500000+94687500000+94687500000+94687500000+94687500000+95000000000
2453+95000000000+94687500000+94687500000+94687500000+94375000000+94375000000
2421+94062500000+94062500000+94062500000+93750000000+93750000000+93750000000
2389+93437500000+93437500000+93437500000+93437500000+93437500000+93437500000
2358+93437500000+93437500000+93437500000+93750000000+93750000000+93750000000
2326+94062500000+94062500000+94062500000+94062500000+94375000000+94375000000
2295+94375000000+94375000000+94375000000+94375000000+94375000000+94375000000
2263+94687500000+94687500000+94687500000+94375000000+94375000000+94375000000
2232+94375000000+94375000000+94375000000+94375000000+94375000000+94375000000
2200+94062500000+94062500000+94062500000+93750000000+93750000000+93437500000
2168+93437500000+93125000000+93125000000+92812500000+92812500000+92812500000
2137+93125000000+92812500000+92812500000+92812500000+92812500000+92500000000
2105+92500000000+92500000000+92812500000+92812500000+92812500000+93125000000
2074+93125000000+93125000000+93125000000+93125000000+92812500000+92812500000
2042+92500000000+92187500000+91875000000+91562500000+91250000000+90937500000
2011+90937500000+90625000000+90625000000+90000000000+89062500000+87812500000
1979+86562500000+84375000000+81562500000+78437500000+75625000000+72187500000
1947+69375000000+66250000000+63750000000+60937500000+58437500000+55937500000
1916+53750000000+50625000000+46875000000+41250000000+34062500000+30625000000
1884+31250000000+35000000000+37187499999+35312500000+33125000000+33125000000
1853+33125000000+33437500000+33125000000+31562500000+29687500000+27500000000
1821+25625000000+24062500000+22500000000+20625000000+17812500000+14375000000
1789+9062500000+7812500000+7812500000+9062500000+5937500000+5937500000
1758+9062500000+9687500000+11250000000+11250000000+8125000000+5937500000
1726+5625000000+7812500000+5312500000+4687500000+4687500000+5312500000
1695+6562500000+9062500000+13125000000+20312500000+27812500000+34687500000
1663+39375000000+44687500000+48124999999+50937500000+52812500000+54687500000
1632+56875000000+59375000000+61250000000+63125000000+64375000000+65937500000
1600+66875000000+67500000000+66250000000+62812500000+55625000000+48437500000
1568+43750000000+43750000000+47500000000+52812500000+55312500000+57187500000
1537+59687500000+59687500000+55937500000+50312500000+43125000000+35000000000
1505+26250000000+18750000000+13125000000+11250000000+11250000000+12500000000
1474+15312500000+20625000000+26875000000+32812500000+37500000000+43125000000
1442+48437500000+54375000000+59687500000+64687500000+68125000000+70312500000
1411+73125000000+74687500000+76250000000+76875000000+77812500000+78437500000
1379+79375000000+80000000000+80625000000+81250000000+81562500000+82187500000
1347+82500000000+82812500000+83437500000+83750000000+84375000000+84687500000
1316+85000000000+85312500000+85312500000+85312500000+85312500000+84687500000
1284+84687500000+84062500000+83750000000+83437500000+84062500000+84375000000
1253+85000000000+85625000000+86250000000+86875000000+87500000000+88125000000
1221+88437500000+89375000000+89687500000+90312500000+90625000000+90625000000
1189+90625000000+90312500000+90312500000+90000000000+90000000000+89687500000
1158+89375000000+89375000000+89062500000+88125000000+87187500000+85000000000
1126+82500000000+74375000000+57812500000+55937500000+52187500000+45937500000
1095+48124999999+61250000000+73125000000+78750000000+82500000000+84062500000
1063+84375000000+85625000000+87187500000+87812500000+87812500000+87500000000
1032+87187500000+86562500000+85937500000+84687500000+84375000000+84375000000
1000+84375000000+84375000000+84062500000+83437500000+83125000000+82187500000
968+81875000000+81250000000+80937500000+80937500000+80625000000+80625000000
937+80000000000+79687500000+79375000000+79375000000+78750000000+77500000000
905+73125000000+72500000000+73750000000+75937500000+73125000000+69375000000
874+68750000000+65625000000+63750000000+64375000000+61562500000+58750000000
842+61250000000+66875000000+70312500000+73125000000+75312500000+76562500000
811+76875000000+77187500000+77812500000+77812500000+77812500000+77187500000
779+75625000000+74062500000+72500000000+72500000000+73125000000+75312500000
747+76562500000+77812500000+79375000000+80937500000+82500000000+84687500000
716+87500000000+89375000000+89687500000+90937500000+91562500000+92187500000
684+92500000000+91875000000+91250000000+90312500000+88437500000+85000000000
653+72812500000+68437500000+70937500000+83750000000+88125000000+90312500000
621+91562500000+92500000000+92812500000+93125000000+93437500000+93750000000
589+94062500000+94062500000+94375000000+94375000000+94687500000+94687500000
558+95000000000+94687500000+94375000000+94375000000+93750000000+93437500000
526+93125000000+92812500000+92187500000+91250000000+90312500000+89687500000
495+89375000000+89375000000+89375000000+89687500000+90312500000+90937500000
463+91875000000+92812500000+93750000000+93750000000+93125000000+91875000000
432+90312500000+89062500000+88125000000+87187500000+86250000000+85937500000
400+85625000000
##END=
