##TITLE=triethoxyethylsilane
##JCAMP-DX=4.24
##DATA TYPE=INFRARED SPECTRUM
##DATE=10/06/2025
##SAMPLING PROCEDURE=ATR
##ORIGIN=SDBS
##XUNITS=1/CM
##YUNITS=TRANSMITTANCE
##RESOLUTION=5.2631578947368425
##FIRSTX=4000.0
##LASTX=400.0
##DELTAX=-5.2631578947368425
##MAXY=95.0
##MINY=0.0
##XFACTOR=1
##YFACTOR=1
##NPOINTS=685
##FIRSTY=0.0
##XYDATA=(X++(Y..Y))
4000+0+92500000000+92500000000+92812500000+93125000000+93125000000
3968+93125000000+93437500000+93437500000+93437500000+93437500000+93437500000
3937+93437500000+93437500000+93437500000+93437500000+93437500000+93125000000
3905+93125000000+93125000000+93437500000+93437500000+93750000000+93750000000
3874+93750000000+94062500000+94062500000+94062500000+93750000000+93750000000
3842+93750000000+93750000000+93750000000+93750000000+93437500000+93437500000
3811+93437500000+93125000000+92812500000+92500000000+92500000000+92500000000
3779+92500000000+92500000000+92187500000+92187500000+92187500000+92187500000
3747+92187500000+91875000000+91875000000+91875000000+91875000000+91875000000
3716+91875000000+91562500000+91562500000+91562500000+91562500000+91250000000
3684+90937500000+90625000000+90625000000+90625000000+90625000000+90625000000
3653+90937500000+91250000000+91250000000+91562500000+91562500000+91562500000
3621+91562500000+91562500000+91562500000+91562500000+91562500000+91562500000
3589+91562500000+91562500000+91562500000+91562500000+91562500000+91875000000
3558+91875000000+91875000000+91875000000+92187500000+92187500000+92187500000
3526+92187500000+92187500000+92187500000+92187500000+91875000000+91875000000
3495+91875000000+91875000000+91562500000+91250000000+90937500000+90937500000
3463+90625000000+90625000000+90625000000+90625000000+90937500000+90937500000
3432+91250000000+91250000000+91250000000+90937500000+90937500000+90625000000
3400+90625000000+90625000000+90312500000+90000000000+89687500000+89687500000
3368+89375000000+89062500000+88437500000+87812500000+86875000000+85625000000
3337+84062500000+82187500000+79375000000+75000000000+68750000000+60312500000
3305+46250000000+28750000000+15312500000+12500000000+12812500000+19062500000
3274+26562500000+29687500000+26875000000+22500000000+22500000000+24687500000
3242+25312500000+22500000000+22187500000+20000000000+20000000000+29062500000
3211+40937500000+52187500000+60937500000+65000000000+70000000000+74375000000
3179+75312500000+76250000000+79687500000+82500000000+84062500000+83437500000
3147+81562500000+80625000000+80937500000+80625000000+75625000000+74687500000
3116+78437500000+85625000000+87187500000+90625000000+91562500000+92187500000
3084+92187500000+92187500000+92500000000+92187500000+91875000000+91562500000
3053+91250000000+91250000000+91875000000+92187500000+92812500000+93437500000
3021+93750000000+94062500000+94062500000+94062500000+94375000000+94375000000
2989+94687500000+94687500000+95000000000+95000000000+94687500000+94687500000
2958+94687500000+94687500000+94375000000+94062500000+93750000000+93437500000
2926+93125000000+93125000000+93437500000+93750000000+94062500000+94375000000
2895+94687500000+94687500000+94687500000+94687500000+94687500000+94687500000
2863+94687500000+94375000000+94375000000+94375000000+94062500000+94062500000
2832+94062500000+94062500000+94062500000+94062500000+94062500000+93750000000
2800+93437500000+93125000000+93125000000+92812500000+92812500000+92812500000
2768+92500000000+92187500000+92187500000+91875000000+91250000000+90937500000
2737+90937500000+90937500000+91562500000+91875000000+92500000000+92812500000
2705+93125000000+93125000000+93437500000+93437500000+93125000000+93125000000
2674+93125000000+93125000000+93125000000+93125000000+93125000000+93125000000
2642+93125000000+93125000000+92812500000+92812500000+92812500000+92500000000
2611+92500000000+92500000000+92187500000+91875000000+91875000000+91875000000
2579+91562500000+91562500000+91250000000+91250000000+90937500000+90625000000
2547+90625000000+90312500000+90312500000+90000000000+89687500000+89375000000
2516+88750000000+88125000000+87500000000+86562500000+85937500000+85000000000
2484+84375000000+83750000000+83437500000+83125000000+82500000000+82500000000
2453+82500000000+82500000000+82500000000+82500000000+82500000000+82812500000
2421+83125000000+83750000000+84375000000+85312500000+86250000000+86875000000
2389+87500000000+87812500000+88125000000+88437500000+89062500000+89375000000
2358+89687500000+89687500000+90000000000+90312500000+90312500000+90312500000
2326+90312500000+90312500000+90312500000+90312500000+90000000000+90000000000
2295+89687500000+89375000000+88750000000+88437500000+88125000000+87812500000
2263+87500000000+87187500000+86875000000+86562500000+85937500000+85937500000
2232+85937500000+85937500000+85937500000+85937500000+86250000000+86875000000
2200+87187500000+87500000000+88125000000+88437500000+88750000000+89062500000
2168+89687500000+89687500000+90000000000+90312500000+90625000000+90625000000
2137+90625000000+90625000000+90312500000+90312500000+90000000000+89687500000
2105+89375000000+89062500000+88750000000+88437500000+88437500000+88437500000
2074+88437500000+88437500000+88437500000+88437500000+88437500000+88437500000
2042+88437500000+88125000000+88125000000+88125000000+88125000000+88125000000
2011+88125000000+87812500000+87812500000+87812500000+87500000000+87500000000
1979+87187500000+87187500000+86875000000+86562500000+85937500000+85625000000
1947+84687500000+83750000000+83125000000+82500000000+81875000000+80625000000
1916+78750000000+75312500000+70312500000+62500000000+60937500000+61875000000
1884+65312500000+60937500000+52812500000+47187500000+46875000000+48750000000
1853+50937500000+47812500000+46250000000+46562499999+50000000000+55937500000
1821+60625000000+62812500000+58750000000+52187500000+50937500000+53125000000
1789+57187500000+52187500000+41250000000+30000000000+24375000000+24375000000
1758+30937500000+40625000000+47812500000+54687500000+54687500000+51250000000
1726+54062500000+65937500000+71562500000+74687500000+76250000000+77812500000
1695+78750000000+79062500000+78437500000+77812500000+76875000000+75625000000
1663+73750000000+70312500000+65937500000+59375000000+51562500000+47500000000
1632+47500000000+51875000000+57812500000+63437500000+66250000000+66875000000
1600+65000000000+62187500000+57500000000+51875000000+43750000000+38437500000
1568+37812500000+39375000000+45312500000+51250000000+53125000000+54375000000
1537+57500000000+61250000000+62812500000+61875000000+60312500000+58125000000
1505+55625000000+52812500000+48750000000+43750000000+38125000000+32500000000
1474+25312500000+17812500000+13750000000+13437500000+13750000000+15937500000
1442+18750000000+20625000000+20312500000+18437500000+16250000000+12812500000
1411+10312500000+8750000000+7812500000+7500000000+6875000000+5937500000
1379+5312500000+4687500000+4687500000+5312500000+6875000000+5937500000
1347+5000000000+4687500000+4687500000+5312500000+6562500000+9375000000
1316+12812500000+15937500000+20312500000+24687500000+28750000000+32500000000
1284+36875000000+40937500000+44375000000+46875000000+46875000000+39687500000
1253+25625000000+18437500000+18437500000+29687500000+43125000000+50625000000
1221+55312500000+54062500000+49375000000+40312499999+28750000000+20312500000
1189+16562500000+14687500000+14687500000+16562500000+17812500000+17187500000
1158+17187500000+17187500000+18750000000+20625000000+24062500000+29375000000
1126+36875000000+45312500000+55937500000+65625000000+72812500000+77187500000
1095+80937500000+83750000000+85312500000+86562500000+87187500000+87812500000
1063+88125000000+88437500000+88125000000+88125000000+87812500000+87187500000
1032+86875000000+86250000000+85625000000+84375000000+82812500000+80937500000
1000+78750000000+75937500000+71250000000+65312500000+58437500000+49062500000
968+38749999999+32812500000+29687500000+24375000000+18125000000+14062500000
937+11562500000+10312500000+10312500000+10312500000+11875000000+16250000000
905+20625000000+22187500000+19062500000+16562500000+16250000000+16562500000
874+19062500000+25937500000+35937500000+47500000000+56875000000+65937500000
842+72812500000+77812500000+80937500000+83125000000+84375000000+85000000000
811+84375000000+83750000000+83125000000+82187500000+79687500000+75312500000
779+73437500000+74062500000+79062500000+84375000000+87187500000+88125000000
747+87187500000+85625000000+83125000000+80625000000+77500000000+74687500000
716+73750000000+74062500000+75312500000+78125000000+81875000000+85625000000
684+88125000000+90312500000+91875000000+92812500000+93437500000+94062500000
653+94375000000+94687500000+94687500000+95000000000+95000000000+95000000000
621+94687500000+94687500000+94687500000+94375000000+94375000000+94062500000
589+94062500000+93750000000+93437500000+93125000000+92812500000+92187500000
558+91250000000+90312500000+89062500000+87812500000+85625000000+82812500000
526+79062500000+75312500000+69062500000+62812500000+59062500000+54375000000
495+51250000000+49375000000+48124999999+47187500000+46562499999+46250000000
463+46250000000+46250000000+46562499999+46875000000+47812500000+49062500000
432+50625000000+52187500000+54062500000+55625000000+57187500000+58750000000
400+59687500000
##END=
