##TITLE=triethylamine
##JCAMP-DX=4.24
##DATA TYPE=INFRARED SPECTRUM
##DATE=10/06/2025
##SAMPLING PROCEDURE=ATR
##ORIGIN=SDBS
##XUNITS=1/CM
##YUNITS=TRANSMITTANCE
##RESOLUTION=5.2631578947368425
##FIRSTX=4000.0
##LASTX=400.0
##DELTAX=-5.2631578947368425
##MAXY=94.6875
##MINY=0.0
##XFACTOR=1
##YFACTOR=1
##NPOINTS=685
##FIRSTY=0.0
##XYDATA=(X++(Y..Y))
4000+0+92500000000+92812500000+93125000000+93125000000+93437500000
3968+93437500000+93437500000+93437500000+93437500000+93750000000+93750000000
3937+94062500000+94062500000+94062500000+94062500000+94062500000+94375000000
3905+94375000000+94687500000+94687500000+94687500000+94687500000+94687500000
3874+94687500000+94687500000+94687500000+94687500000+94687500000+94687500000
3842+94687500000+94687500000+94687500000+94687500000+94375000000+94375000000
3811+94375000000+94375000000+94375000000+93750000000+93437500000+93125000000
3779+93125000000+93125000000+93437500000+93750000000+93750000000+93437500000
3747+93125000000+92812500000+92187500000+91875000000+91562500000+90937500000
3716+90625000000+90312500000+89687500000+89375000000+89062500000+88437500000
3684+88125000000+87812500000+87187500000+86875000000+86562500000+86250000000
3653+85937500000+85625000000+85312500000+84687500000+84375000000+83750000000
3621+83437500000+83125000000+82812500000+82500000000+82187500000+82187500000
3589+81875000000+81875000000+81875000000+81562500000+81562500000+81875000000
3558+81875000000+81875000000+81875000000+82187500000+82187500000+82500000000
3526+82500000000+82812500000+83125000000+83125000000+83125000000+83125000000
3495+83125000000+83125000000+83437500000+83437500000+83750000000+84062500000
3463+84375000000+84375000000+84687500000+84687500000+84687500000+84687500000
3432+84687500000+85000000000+85312500000+85937500000+86250000000+87187500000
3400+87812500000+88437500000+88750000000+89062500000+89375000000+89687500000
3368+89687500000+89687500000+89687500000+89375000000+89062500000+88437500000
3337+87812500000+86875000000+85312500000+83125000000+79062500000+73437500000
3305+63125000000+43125000000+16250000000+5625000000+4687500000+6875000000
3274+20937500000+28437500000+22500000000+22187500000+27187500000+34062500000
3242+40312499999+41250000000+41562500000+44375000000+34687500000+34375000000
3211+49687499999+60312500000+59062500000+52812500000+46250000000+36875000000
3179+29375000000+24375000000+21562500000+21250000000+25625000000+38125000000
3147+46250000000+51875000000+56562500000+57187500000+62812500000+68125000000
3116+65625000000+65625000000+69687500000+70937500000+76250000000+79687500000
3084+81250000000+81250000000+81562500000+81875000000+82187500000+82187500000
3053+84375000000+87812500000+89062500000+89062500000+89375000000+89687500000
3021+88750000000+88125000000+87812500000+88125000000+89375000000+90312500000
2989+90937500000+91562500000+91875000000+92187500000+92500000000+92812500000
2958+92812500000+93125000000+93125000000+93125000000+93125000000+92812500000
2926+92812500000+92500000000+92187500000+92187500000+92187500000+92187500000
2895+92500000000+92812500000+92500000000+92187500000+92187500000+92187500000
2863+92187500000+92187500000+92187500000+92187500000+92500000000+92500000000
2832+92812500000+92500000000+92500000000+92500000000+92500000000+92187500000
2800+92187500000+92187500000+92500000000+92812500000+92812500000+92812500000
2768+92812500000+92812500000+92500000000+92500000000+92500000000+92812500000
2737+92812500000+92812500000+92812500000+93125000000+92812500000+92812500000
2705+92812500000+92812500000+92812500000+92812500000+92812500000+92812500000
2674+92812500000+93125000000+93125000000+93125000000+93125000000+93125000000
2642+93125000000+93125000000+93125000000+93125000000+93125000000+93437500000
2611+93437500000+93437500000+93437500000+93437500000+93437500000+93750000000
2579+93750000000+93437500000+93437500000+93437500000+93125000000+93125000000
2547+92812500000+92812500000+92812500000+92812500000+93125000000+93125000000
2516+93125000000+93437500000+93437500000+93750000000+93750000000+93750000000
2484+93750000000+93750000000+93750000000+93750000000+93750000000+93750000000
2453+93750000000+93750000000+93750000000+93750000000+93750000000+93750000000
2421+93750000000+93750000000+93750000000+93750000000+93437500000+93437500000
2389+93437500000+93125000000+93125000000+92812500000+92812500000+92812500000
2358+92812500000+92812500000+92812500000+92812500000+92812500000+93125000000
2326+93125000000+93125000000+93125000000+93125000000+93437500000+93437500000
2295+93437500000+93437500000+93437500000+93750000000+93750000000+93750000000
2263+93750000000+93750000000+93750000000+93750000000+93750000000+93437500000
2232+93437500000+93437500000+93437500000+93125000000+93125000000+93125000000
2200+92812500000+92812500000+92812500000+92500000000+92500000000+92187500000
2168+91875000000+91875000000+91562500000+91250000000+91250000000+90937500000
2137+90937500000+90625000000+90625000000+90625000000+90625000000+90625000000
2105+90625000000+90937500000+91250000000+91562500000+91875000000+91875000000
2074+92187500000+92500000000+92812500000+93125000000+93437500000+93437500000
2042+93750000000+93750000000+93750000000+94062500000+94062500000+94062500000
2011+94062500000+93750000000+93750000000+93437500000+93437500000+93125000000
1979+93125000000+92812500000+92812500000+92500000000+92187500000+92187500000
1947+91875000000+91562500000+91250000000+90625000000+90000000000+89375000000
1916+88437500000+87187500000+85000000000+80937500000+74687500000+63125000000
1884+53437500000+51562500000+50000000000+50937500000+58750000000+57500000000
1853+56562500000+56250000000+57187500000+61250000000+69375000000+78750000000
1821+83125000000+85312500000+86250000000+86562500000+85937500000+84687500000
1789+82187500000+78750000000+73750000000+67500000000+56562500000+40937500000
1758+31562500000+31562500000+37187499999+41250000000+44375000000+51562500000
1726+66875000000+64687500000+65312500000+68750000000+66875000000+66875000000
1695+72187500000+73750000000+74062500000+77187500000+80625000000+80000000000
1663+77500000000+74062500000+73125000000+70312500000+63437500000+53437500000
1632+50937500000+52500000000+61875000000+72187500000+79062500000+83125000000
1600+84687500000+85312500000+87812500000+89375000000+90000000000+90312500000
1568+90000000000+89375000000+88437500000+86875000000+84062500000+80937500000
1537+74375000000+62187500000+47187500000+39687500000+36562500000+33750000000
1505+33750000000+43125000000+56562500000+71875000000+80937500000+85312500000
1474+87812500000+88750000000+89062500000+88750000000+87500000000+85000000000
1442+81562500000+76875000000+71875000000+70937500000+69375000000+68750000000
1411+69375000000+73125000000+78125000000+80625000000+81562500000+79375000000
1379+75000000000+69062500000+64375000000+54062500000+50937500000+50937500000
1347+47812500000+47812500000+51875000000+42187500000+32500000000+32500000000
1316+40937500000+55000000000+67187500000+70937500000+77187500000+78437500000
1284+80625000000+84375000000+86250000000+86562500000+84062500000+80000000000
1253+79375000000+80625000000+83437500000+82500000000+76562500000+70000000000
1221+70000000000+76875000000+84687500000+87812500000+90312500000+91562500000
1189+92500000000+92812500000+93125000000+93437500000+93437500000+93437500000
1158+93437500000+93437500000+93437500000+93437500000+93125000000+92500000000
1126+91562500000+89375000000+88125000000+88437500000+89062500000+89062500000
1095+89062500000+89375000000+90312500000+91250000000+91875000000+92812500000
1063+93125000000+93125000000+93125000000+93125000000+93125000000+93125000000
1032+93125000000+93125000000+92812500000+92812500000+92812500000+92500000000
1000+92500000000+92187500000+91562500000+90625000000+89687500000+87812500000
968+85625000000+84062500000+81562500000+79062500000+79062500000+81562500000
937+84375000000+84062500000+83437500000+83437500000+83750000000+85937500000
905+87187500000+88125000000+87500000000+85312500000+81250000000+74375000000
874+69062500000+69062500000+66250000000+65937500000+70000000000+79687500000
842+85000000000+87500000000+88437500000+89375000000+89687500000+90000000000
811+90312500000+90312500000+90312500000+90312500000+90312500000+90312500000
779+90312500000+90312500000+90312500000+90000000000+90000000000+90000000000
747+90000000000+90000000000+90000000000+90000000000+89687500000+89687500000
716+89687500000+89687500000+89687500000+89687500000+89375000000+89375000000
684+89375000000+89062500000+89062500000+89062500000+88750000000+88750000000
653+88437500000+88437500000+88437500000+88125000000+88125000000+87812500000
621+87500000000+86875000000+85937500000+85000000000+84375000000+83750000000
589+83437500000+83437500000+83437500000+83750000000+83750000000+84062500000
558+84062500000+83750000000+83125000000+82812500000+81875000000+81250000000
526+80625000000+80312500000+80312500000+80312500000+80312500000+80312500000
495+80625000000+80937500000+80937500000+80625000000+80312500000+79687500000
463+79375000000+78437500000+77500000000+76875000000+76250000000+75312500000
432+74062500000+72812500000+71562500000+70000000000+68750000000+67812500000
400+67500000000
##END=
