##TITLE=trifluoroacetic anhydride
##JCAMP-DX=4.24
##DATA TYPE=INFRARED SPECTRUM
##DATE=10/06/2025
##SAMPLING PROCEDURE=ATR
##ORIGIN=SDBS
##XUNITS=1/CM
##YUNITS=TRANSMITTANCE
##RESOLUTION=5.2631578947368425
##FIRSTX=4000.0
##LASTX=400.0
##DELTAX=-5.2631578947368425
##MAXY=94.6875
##MINY=0.0
##XFACTOR=1
##YFACTOR=1
##NPOINTS=685
##FIRSTY=0.0
##XYDATA=(X++(Y..Y))
4000+0+77500000000+77500000000+78125000000+78750000000+79375000000
3968+79687500000+79687500000+80000000000+80312500000+80312500000+80000000000
3937+80000000000+80000000000+79687500000+79375000000+79062500000+78750000000
3905+79062500000+79375000000+79062500000+79062500000+79062500000+79687500000
3874+80625000000+80937500000+81875000000+82187500000+81875000000+80625000000
3842+79375000000+78125000000+77500000000+77500000000+78125000000+78750000000
3811+79375000000+80000000000+80625000000+81250000000+82187500000+81875000000
3779+80937500000+80937500000+80937500000+81562500000+81562500000+80312500000
3747+79687500000+79375000000+79062500000+79062500000+79062500000+79687500000
3716+80625000000+81875000000+82187500000+82812500000+83125000000+83437500000
3684+84062500000+84375000000+84375000000+84375000000+84375000000+84687500000
3653+85000000000+85000000000+85312500000+85937500000+85937500000+85312500000
3621+85000000000+84687500000+84687500000+84687500000+85000000000+85312500000
3589+85625000000+85312500000+85312500000+85312500000+85312500000+85312500000
3558+85625000000+86250000000+86562500000+86562500000+86875000000+87187500000
3526+87187500000+87812500000+88125000000+87812500000+87500000000+87187500000
3495+87187500000+87187500000+87500000000+87812500000+87812500000+87812500000
3463+87500000000+87187500000+87187500000+87187500000+87500000000+87812500000
3432+88125000000+88125000000+88750000000+89062500000+88750000000+88437500000
3400+88125000000+87812500000+87500000000+87500000000+87812500000+88125000000
3368+88437500000+88750000000+89062500000+89375000000+89375000000+89375000000
3337+89687500000+89687500000+89687500000+89687500000+89687500000+89375000000
3305+89375000000+89062500000+88125000000+87187500000+86250000000+85937500000
3274+85937500000+86250000000+85937500000+84687500000+84375000000+84375000000
3242+84375000000+85000000000+85937500000+86562500000+87500000000+87500000000
3211+86250000000+85937500000+85937500000+87187500000+88437500000+89375000000
3179+90625000000+91250000000+91250000000+90937500000+90937500000+90937500000
3147+91562500000+92187500000+92187500000+91875000000+91875000000+91875000000
3116+91875000000+91875000000+91875000000+91875000000+92187500000+92500000000
3084+92812500000+93125000000+93125000000+93437500000+93750000000+93437500000
3053+93125000000+93125000000+93125000000+92812500000+92500000000+92500000000
3021+92500000000+92500000000+92187500000+91562500000+90937500000+90937500000
2989+90937500000+91562500000+91875000000+91562500000+91250000000+90937500000
2958+90937500000+91250000000+91562500000+91875000000+91875000000+92187500000
2926+91875000000+91562500000+91250000000+91562500000+91562500000+92187500000
2895+92500000000+92500000000+91562500000+90937500000+90625000000+90625000000
2863+90625000000+90937500000+91250000000+91562500000+91875000000+92187500000
2832+92500000000+92187500000+92187500000+92812500000+93125000000+93437500000
2800+92812500000+92812500000+92812500000+93125000000+93437500000+94062500000
2768+94375000000+94375000000+94062500000+94062500000+93750000000+93750000000
2737+93750000000+93750000000+94062500000+94375000000+94687500000+94687500000
2705+94375000000+94375000000+93750000000+93437500000+92812500000+92187500000
2674+92187500000+91875000000+91875000000+91875000000+91875000000+91875000000
2642+92187500000+92500000000+91875000000+90937500000+90000000000+89687500000
2611+89687500000+89687500000+90000000000+90000000000+90312500000+90312500000
2579+90000000000+89687500000+89375000000+89062500000+88437500000+88125000000
2547+87500000000+87500000000+87187500000+86875000000+86875000000+86250000000
2516+85937500000+85000000000+84062500000+82812500000+81250000000+80000000000
2484+78437500000+77187500000+74687500000+68437500000+59687500000+47500000000
2453+27812500000+15000000000+13437500000+15625000000+29687500000+48124999999
2421+59687500000+65625000000+72500000000+76562500000+77812500000+77812500000
2389+76562500000+75000000000+69375000000+64687500000+57187500000+46562499999
2358+29687500000+22187500000+22187500000+29375000000+42500000000+50937500000
2326+57500000000+60312500000+61875000000+62812500000+64375000000+67187500000
2295+70312500000+72500000000+74687500000+75312500000+75312500000+75000000000
2263+74062500000+73125000000+72187500000+71250000000+70312500000+69062500000
2232+67500000000+64687500000+61875000000+60312500000+58750000000+56250000000
2200+54687500000+53125000000+51875000000+49062500000+46250000000+43437499999
2168+41874999999+41250000000+41250000000+43125000000+48437500000+55000000000
2137+62187500000+65312500000+66875000000+68437500000+70312500000+71875000000
2105+73437500000+74375000000+75625000000+76250000000+77187500000+77500000000
2074+78437500000+80000000000+81250000000+82500000000+84062500000+84687500000
2042+85000000000+85000000000+85000000000+84375000000+84062500000+83750000000
2011+83750000000+83437500000+83437500000+83437500000+83437500000+83750000000
1979+83750000000+83750000000+84062500000+83750000000+83437500000+83125000000
1947+82812500000+82500000000+82500000000+82500000000+82812500000+83125000000
1916+83750000000+84062500000+84375000000+84375000000+84062500000+83437500000
1884+82812500000+82187500000+81562500000+80625000000+79687500000+79062500000
1853+78125000000+77500000000+76875000000+76562500000+76250000000+76250000000
1821+76562500000+76875000000+77187500000+77812500000+78125000000+78437500000
1789+78437500000+78125000000+77812500000+77500000000+77187500000+76875000000
1758+76562500000+76250000000+75625000000+74687500000+73437500000+72187500000
1726+70625000000+68750000000+66250000000+64375000000+59062500000+50625000000
1695+35937500000+28437500000+27812500000+29687500000+36875000000+44375000000
1663+46250000000+49062500000+53437500000+56250000000+56875000000+56250000000
1632+54687500000+53125000000+50000000000+45937500000+40937500000+35937500000
1600+29375000000+22812500000+17812500000+14375000000+11250000000+9375000000
1568+9062500000+9062500000+9062500000+10000000000+11250000000+13750000000
1537+15625000000+15937500000+13437500000+10937500000+8125000000+6250000000
1505+5625000000+5000000000+4687500000+4687500000+4687500000+5000000000
1474+5312500000+5937500000+7500000000+10625000000+13750000000+18437500000
1442+21562500000+25000000000+27187500000+30000000000+31562500000+31562500000
1411+31875000000+32812500000+34062500000+35312500000+37187499999+39687500000
1379+40312499999+38125000000+34687500000+30000000000+26250000000+23437500000
1347+21250000000+19062500000+17812500000+16875000000+15937500000+14687500000
1316+12812500000+10000000000+8125000000+7500000000+7500000000+7187500000
1284+7187500000+7500000000+8750000000+10000000000+13750000000+19062500000
1253+25000000000+30312500000+35937500000+43750000000+50000000000+54687500000
1221+58437500000+61875000000+65000000000+66875000000+69062500000+70625000000
1189+72187500000+72812500000+73750000000+74687500000+75000000000+75625000000
1158+76250000000+76562500000+76875000000+77187500000+77500000000+77812500000
1126+78125000000+78437500000+78750000000+79375000000+79687500000+79687500000
1095+79375000000+78437500000+77187500000+75625000000+71875000000+67187500000
1063+63437500000+58125000000+54687500000+54687500000+55937500000+60937500000
1032+67187500000+70625000000+71250000000+70937500000+70937500000+71250000000
1000+71250000000+71562500000+71562500000+71250000000+69687500000+67500000000
968+65312500000+64062500000+62500000000+62500000000+62812500000+65000000000
937+66562500000+69062500000+71562500000+73437500000+73125000000+70312500000
905+63750000000+56875000000+51250000000+50625000000+53125000000+63750000000
874+70937500000+73750000000+74687500000+71250000000+71250000000+65937500000
842+63750000000+66875000000+77500000000+73437500000+74062500000+75625000000
811+76250000000+77187500000+78125000000+79062500000+79062500000+77187500000
779+72500000000+65312500000+44375000000+28750000000+30000000000+61875000000
747+75937500000+82187500000+84687500000+86250000000+87187500000+88125000000
716+87812500000+87187500000+87187500000+86562500000+85312500000+83750000000
684+82187500000+80000000000+78750000000+78750000000+78750000000+78750000000
653+78750000000+79375000000+80312500000+81250000000+81875000000+82812500000
621+83750000000+84687500000+86250000000+87812500000+89062500000+89062500000
589+86562500000+84062500000+80625000000+78437500000+77500000000+77187500000
558+77500000000+78125000000+79062500000+79687500000+80000000000+80000000000
526+80000000000+80000000000+80625000000+80312500000+80000000000+79687500000
495+79687500000+79375000000+79062500000+78750000000+78125000000+77500000000
463+77500000000+77500000000+79375000000+82187500000+86562500000+90937500000
432+93125000000+87500000000+80937500000+72187500000+64687500000+60312500000
400+58750000000
##END=
