##TITLE=trifluoroacetic acid
##JCAMP-DX=4.24
##DATA TYPE=INFRARED SPECTRUM
##DATE=10/06/2025
##SAMPLING PROCEDURE=ATR
##ORIGIN=SDBS
##XUNITS=1/CM
##YUNITS=TRANSMITTANCE
##RESOLUTION=5.2631578947368425
##FIRSTX=4000.0
##LASTX=400.0
##DELTAX=-5.2631578947368425
##MAXY=95.0
##MINY=0.0
##XFACTOR=1
##YFACTOR=1
##NPOINTS=685
##FIRSTY=0.0
##XYDATA=(X++(Y..Y))
4000+0+88437500000+88437500000+88437500000+88437500000+88437500000
3968+88437500000+88750000000+88750000000+88750000000+88750000000+88750000000
3937+89062500000+89062500000+89062500000+89062500000+89062500000+89062500000
3905+89062500000+89375000000+89687500000+90000000000+90000000000+89687500000
3874+89687500000+89375000000+89375000000+89687500000+89687500000+90000000000
3842+89687500000+89687500000+89687500000+89687500000+89687500000+89375000000
3811+88750000000+87812500000+86562500000+85000000000+83750000000+82500000000
3779+81562500000+80937500000+80625000000+80625000000+80312500000+80000000000
3747+79687500000+79375000000+79062500000+78437500000+78125000000+76875000000
3716+75625000000+74687500000+73750000000+72500000000+70937500000+69375000000
3684+68125000000+67500000000+67187500000+66875000000+66875000000+66250000000
3653+65625000000+65000000000+64375000000+63437500000+62812500000+61875000000
3621+60625000000+59375000000+57812500000+56562500000+55000000000+53125000000
3589+51250000000+50000000000+48437500000+46562499999+44687500000+43125000000
3558+41250000000+39687500000+38125000000+36875000000+35312500000+34062500000
3526+33125000000+31875000000+30937500000+30000000000+29062500000+28437500000
3495+27812500000+27187500000+26562500000+26250000000+25937500000+25625000000
3463+25625000000+25312500000+25000000000+25000000000+25000000000+25000000000
3432+25000000000+24687500000+24687500000+24687500000+24687500000+24687500000
3400+24687500000+24687500000+25000000000+25000000000+25625000000+25937500000
3368+26250000000+26562500000+27187500000+27500000000+27812500000+28437500000
3337+29062500000+30000000000+30625000000+31250000000+31562500000+31562500000
3305+31875000000+31875000000+32187500000+32500000000+32500000000+32812500000
3274+33125000000+33125000000+33437500000+34062500000+34687500000+35312500000
3242+36562500000+37500000000+38437500000+39375000000+40312499999+41250000000
3211+42187500000+42812500000+43750000000+44999999999+46562499999+47500000000
3179+49062500000+50000000000+51250000000+52187500000+52812500000+53437500000
3147+53750000000+54062500000+54062500000+54375000000+54687500000+55312500000
3116+56250000000+57187500000+58437500000+59375000000+60312500000+61562500000
3084+62812500000+64062500000+65312500000+66250000000+66562500000+66250000000
3053+65000000000+63750000000+62187500000+60000000000+58125000000+56875000000
3021+56562500000+56875000000+57500000000+58437500000+59375000000+60000000000
2989+60937500000+61875000000+62812500000+63750000000+64687500000+65625000000
2958+66250000000+66250000000+66875000000+67187500000+67812500000+68750000000
2926+69687500000+70625000000+71250000000+71875000000+72500000000+73437500000
2895+74375000000+75312500000+76562500000+77500000000+79062500000+79687500000
2863+80625000000+81250000000+82187500000+82812500000+83437500000+84375000000
2832+85000000000+85625000000+86562500000+87187500000+87812500000+88125000000
2800+88750000000+89375000000+90000000000+90625000000+91562500000+92187500000
2768+92812500000+93437500000+93750000000+94062500000+94375000000+94375000000
2737+94375000000+94375000000+94375000000+94375000000+94375000000+94375000000
2705+94687500000+94687500000+95000000000+95000000000+94687500000+94687500000
2674+94375000000+94062500000+93437500000+92500000000+91562500000+90937500000
2642+90000000000+89062500000+88125000000+87500000000+86875000000+85937500000
2611+85625000000+85312500000+85000000000+84687500000+84375000000+84375000000
2579+84062500000+84062500000+84062500000+84062500000+84062500000+84062500000
2547+84375000000+84375000000+84375000000+84687500000+84687500000+84687500000
2516+84375000000+84375000000+84062500000+83750000000+83437500000+83125000000
2484+82500000000+82187500000+81875000000+81250000000+80937500000+80312500000
2453+79375000000+78437500000+77500000000+77187500000+76250000000+74375000000
2421+72812500000+71250000000+69062500000+66875000000+64062500000+61562500000
2389+57812500000+54687500000+50625000000+46562499999+41562500000+35312500000
2358+28750000000+23750000000+18750000000+14687500000+12187500000+10312500000
2326+9062500000+8437500000+8125000000+8125000000+8125000000+8437500000
2295+9687500000+10625000000+12187500000+14062500000+15625000000+16875000000
2263+19062500000+21875000000+24687500000+26875000000+29375000000+31562500000
2232+33750000000+35937500000+38437500000+40937500000+43437499999+45312500000
2200+48437500000+51250000000+53750000000+55312500000+56875000000+58437500000
2168+59375000000+60312500000+60937500000+61250000000+61562500000+61875000000
2137+62187500000+62187500000+62500000000+62500000000+62500000000+62500000000
2105+62812500000+62812500000+62812500000+63125000000+63437500000+63750000000
2074+64375000000+65312500000+66562500000+67187500000+68125000000+69062500000
2042+70000000000+70625000000+71562500000+72187500000+72187500000+71875000000
2011+71562500000+71250000000+71250000000+71562500000+71875000000+72500000000
1979+73437500000+74062500000+75000000000+75937500000+76875000000+77187500000
1947+77812500000+78437500000+78750000000+78750000000+77812500000+76875000000
1916+75937500000+74375000000+72500000000+70312500000+68437500000+64687500000
1884+60000000000+54062500000+48437500000+45937500000+45312500000+44687500000
1853+44062500000+43750000000+43750000000+44375000000+45625000000+48124999999
1821+50625000000+53437500000+55000000000+55937500000+56562500000+57812500000
1789+58437500000+60000000000+61562500000+64062500000+65937500000+67812500000
1758+69062500000+70000000000+71250000000+71875000000+71875000000+71562500000
1726+70937500000+69687500000+68437500000+67500000000+65937500000+64687500000
1695+63125000000+61875000000+60625000000+59375000000+58437500000+57187500000
1663+55312500000+53125000000+50312500000+47187500000+44062500000+41250000000
1632+39375000000+38125000000+36875000000+35312500000+33750000000+31875000000
1600+29375000000+26250000000+22812500000+19687500000+16562500000+14062500000
1568+12187500000+10937500000+10000000000+9375000000+8750000000+8437500000
1537+8125000000+8125000000+8125000000+7812500000+7812500000+7500000000
1505+7187500000+6875000000+6562500000+5937500000+5625000000+5312500000
1474+5000000000+4687500000+4687500000+4687500000+5000000000+5312500000
1442+6250000000+7500000000+8750000000+10937500000+13125000000+15000000000
1411+17812500000+20312500000+23125000000+26875000000+32500000000+39375000000
1379+44999999999+48750000000+52812500000+56562500000+59375000000+60937500000
1347+62812500000+64375000000+65312500000+66250000000+66875000000+67500000000
1316+68125000000+68437500000+68750000000+69062500000+69375000000+69375000000
1284+69375000000+69687500000+69687500000+69687500000+69687500000+69687500000
1253+69687500000+69375000000+69375000000+69062500000+68750000000+68437500000
1221+67812500000+67500000000+66875000000+66562500000+65937500000+65625000000
1189+65000000000+64687500000+64062500000+63750000000+63437500000+62812500000
1158+62500000000+61875000000+61250000000+60312500000+59375000000+58125000000
1126+57187500000+55312500000+53750000000+51250000000+50000000000+48124999999
1095+46562499999+45625000000+44999999999+44687500000+44687500000+44375000000
1063+44375000000+44375000000+44375000000+44375000000+44375000000+44375000000
1032+44375000000+44375000000+44375000000+44375000000+44375000000+44062500000
1000+43437499999+41874999999+37187499999+31250000000+28437500000+25937500000
968+25000000000+25000000000+25625000000+26250000000+27187500000+27812500000
937+27500000000+27500000000+33750000000+39375000000+47187500000+57812500000
905+64062500000+67187500000+67500000000+67500000000+67187500000+67187500000
874+66875000000+66250000000+64687500000+62812500000+61250000000+60625000000
842+59375000000+48750000000+32187500000+25000000000+20000000000+20000000000
811+20937500000+21875000000+20312500000+19687500000+20000000000+22812500000
779+30312500000+38437500000+45312500000+51250000000+58125000000+61875000000
747+65000000000+67812500000+70312500000+72187500000+73750000000+74687500000
716+75937500000+76562500000+76875000000+75937500000+74687500000+72500000000
684+67500000000+63437500000+61875000000+62187500000+65625000000+71875000000
653+76250000000+79062500000+80937500000+82812500000+84687500000+86250000000
621+87500000000+89062500000+90625000000+91875000000+93125000000+94062500000
589+94375000000+93750000000+91875000000+88437500000+82187500000+75937500000
558+74375000000+75625000000+82500000000+89062500000+87812500000+92187500000
526+93437500000+94062500000+94375000000+94687500000+94687500000+93437500000
495+91562500000+89375000000+87187500000+84687500000+81875000000+79375000000
463+77187500000+75000000000+73750000000+73437500000+73437500000+73750000000
432+74375000000+74375000000+73437500000+71875000000+70625000000+69375000000
400+69375000000
##END=
