##TITLE=tripropyl borate
##JCAMP-DX=4.24
##DATA TYPE=INFRARED SPECTRUM
##DATE=10/06/2025
##SAMPLING PROCEDURE=ATR
##ORIGIN=SDBS
##XUNITS=1/CM
##YUNITS=TRANSMITTANCE
##RESOLUTION=5.2631578947368425
##FIRSTX=4000.0
##LASTX=400.0
##DELTAX=-5.2631578947368425
##MAXY=95.0
##MINY=0.0
##XFACTOR=1
##YFACTOR=1
##NPOINTS=685
##FIRSTY=0.0
##XYDATA=(X++(Y..Y))
4000+0+89375000000+89375000000+89687500000+90000000000+90000000000
3968+89687500000+89687500000+89687500000+90000000000+90312500000+90312500000
3937+90312500000+90312500000+90000000000+90000000000+90000000000+89687500000
3905+89687500000+89687500000+89687500000+89687500000+89687500000+89687500000
3874+89687500000+89687500000+89687500000+89375000000+89375000000+89375000000
3842+89375000000+89375000000+89375000000+89375000000+89687500000+89375000000
3811+89375000000+89062500000+89062500000+88750000000+88437500000+87500000000
3779+86562500000+85937500000+85937500000+85625000000+85000000000+84375000000
3747+83750000000+82812500000+81875000000+80625000000+79687500000+78125000000
3716+76562500000+74687500000+72812500000+70312500000+68125000000+66250000000
3684+64062500000+62500000000+60937500000+59687500000+58125000000+56562500000
3653+55000000000+53750000000+52187500000+50937500000+49687499999+48750000000
3621+47500000000+46250000000+44999999999+44375000000+43750000000+43125000000
3589+42500000000+42187500000+42187500000+42187500000+42500000000+42812500000
3558+43125000000+43750000000+44062500000+44687500000+45312500000+45937500000
3526+46562499999+47500000000+48124999999+49062500000+49687499999+50625000000
3495+51250000000+52500000000+53437500000+54375000000+55312500000+56250000000
3463+57500000000+58437500000+59375000000+60312500000+61562500000+62812500000
3432+63750000000+64687500000+65625000000+66875000000+67500000000+68437500000
3400+69375000000+70000000000+70937500000+71875000000+72500000000+73125000000
3368+73750000000+74062500000+74375000000+74687500000+74687500000+74687500000
3337+74375000000+73750000000+73125000000+71875000000+68750000000+65000000000
3305+58125000000+45625000000+27187500000+13437500000+9062500000+9062500000
3274+12187500000+16562500000+15000000000+15625000000+18750000000+21562500000
3242+26875000000+26562500000+27500000000+23125000000+20937500000+25000000000
3211+38749999999+44687500000+49375000000+60000000000+64687500000+66875000000
3179+70625000000+72812500000+74375000000+75625000000+76875000000+78437500000
3147+80937500000+82187500000+82812500000+82500000000+81875000000+81875000000
3116+82500000000+83750000000+84375000000+85312500000+85937500000+86250000000
3084+86250000000+86562500000+87187500000+87500000000+88125000000+88437500000
3053+89062500000+89062500000+89062500000+89062500000+89062500000+89062500000
3021+89375000000+89687500000+90312500000+90625000000+90625000000+90625000000
2989+90937500000+90937500000+91250000000+90937500000+90625000000+90625000000
2958+90625000000+90937500000+91250000000+91562500000+91562500000+91562500000
2926+91875000000+91875000000+91562500000+91562500000+91562500000+91562500000
2895+91875000000+91875000000+92187500000+91875000000+91875000000+91875000000
2863+91875000000+91875000000+91875000000+91875000000+91875000000+91875000000
2832+92187500000+92187500000+92187500000+92187500000+92187500000+91875000000
2800+91562500000+91250000000+90937500000+90625000000+90312500000+90312500000
2768+90312500000+90625000000+90625000000+90937500000+90937500000+90937500000
2737+90937500000+90937500000+90625000000+90625000000+90625000000+90625000000
2705+90937500000+91250000000+91250000000+91250000000+91250000000+90937500000
2674+90937500000+90937500000+90937500000+90937500000+91250000000+91562500000
2642+91875000000+92187500000+92812500000+93437500000+93750000000+94062500000
2611+94062500000+94375000000+94375000000+94375000000+94375000000+94375000000
2579+94375000000+94375000000+94062500000+94062500000+94062500000+94062500000
2547+93750000000+93750000000+93750000000+93750000000+93750000000+93750000000
2516+93750000000+94062500000+94062500000+94375000000+94375000000+94375000000
2484+94687500000+94687500000+94687500000+94687500000+94687500000+94687500000
2453+94687500000+94687500000+94687500000+94687500000+94687500000+94687500000
2421+94687500000+94687500000+94687500000+94687500000+94687500000+94687500000
2389+94687500000+94687500000+95000000000+95000000000+95000000000+94687500000
2358+94687500000+94687500000+94375000000+94375000000+94062500000+94062500000
2326+94062500000+93750000000+93750000000+93750000000+93437500000+93437500000
2295+93437500000+93125000000+92812500000+92500000000+91875000000+90312500000
2263+87812500000+83750000000+83125000000+83437500000+84375000000+84062500000
2232+84375000000+84375000000+84687500000+85312500000+86250000000+87187500000
2200+88437500000+89375000000+89687500000+89687500000+90000000000+90000000000
2168+90000000000+89687500000+89687500000+89687500000+89375000000+89375000000
2137+89375000000+89375000000+89375000000+89375000000+89687500000+89687500000
2105+90000000000+90000000000+89687500000+89375000000+89062500000+88750000000
2074+88437500000+88125000000+88125000000+88125000000+87812500000+87812500000
2042+87500000000+87187500000+86875000000+86562500000+86250000000+85937500000
2011+85937500000+85625000000+85312500000+84375000000+83125000000+81562500000
1979+80625000000+79062500000+77187500000+75000000000+73437500000+70625000000
1947+67812500000+64062500000+60937500000+56250000000+50625000000+44062500000
1916+37187499999+27812500000+21562500000+18750000000+18437500000+20312500000
1884+27812500000+30312500000+23750000000+23125000000+26250000000+25625000000
1853+25000000000+23750000000+19062500000+15625000000+12500000000+11562500000
1821+11250000000+9062500000+6562500000+5625000000+6250000000+11250000000
1789+17500000000+24062500000+30312500000+35937500000+34375000000+29375000000
1758+20625000000+16250000000+15625000000+16250000000+12187500000+9062500000
1726+6875000000+5625000000+5625000000+5937500000+6875000000+5937500000
1695+4687500000+4687500000+4687500000+5000000000+6875000000+12812500000
1663+20000000000+28125000000+33750000000+28750000000+25937500000+25937500000
1632+26562500000+30625000000+35000000000+34375000000+34375000000+37187499999
1600+43437499999+46562499999+41874999999+38125000000+36562500000+36562500000
1568+40625000000+49687499999+58750000000+64687500000+68750000000+71250000000
1537+73125000000+75625000000+77500000000+78750000000+79375000000+79687500000
1505+79687500000+79687500000+79375000000+79062500000+78125000000+77187500000
1474+75625000000+74062500000+72812500000+71250000000+69687500000+67500000000
1442+65625000000+65000000000+65625000000+68750000000+70937500000+70625000000
1411+69062500000+67500000000+65937500000+63437500000+60625000000+58750000000
1379+56875000000+52187500000+49375000000+49062500000+49375000000+50937500000
1347+53125000000+54062500000+49375000000+37500000000+24062500000+23750000000
1316+25625000000+27500000000+27500000000+27500000000+28437500000+37812500000
1284+51250000000+61562500000+68125000000+69375000000+65937500000+57812500000
1253+46562499999+45625000000+50625000000+58125000000+62500000000+57812500000
1221+53437500000+53750000000+57812500000+51250000000+47500000000+37812500000
1189+26875000000+26250000000+31875000000+43750000000+54375000000+64687500000
1158+73437500000+80000000000+84375000000+85937500000+87812500000+89062500000
1126+88750000000+87187500000+84375000000+80000000000+78750000000+78750000000
1095+79375000000+74687500000+71562500000+70937500000+71562500000+75937500000
1063+80625000000+81562500000+79375000000+78437500000+78750000000+80000000000
1032+83750000000+86875000000+89375000000+90937500000+91562500000+91250000000
1000+90625000000+89687500000+88750000000+87812500000+86875000000+86250000000
968+85937500000+85625000000+85312500000+85000000000+85000000000+84687500000
937+84375000000+84375000000+83750000000+82500000000+81250000000+80312500000
905+80312500000+79375000000+77187500000+75625000000+75937500000+76875000000
874+76875000000+76875000000+77500000000+78125000000+78750000000+79062500000
842+79375000000+79062500000+78437500000+77187500000+75000000000+71562500000
811+65625000000+59687500000+59062500000+60937500000+64687500000+63750000000
779+55937500000+45937500000+36875000000+34375000000+36875000000+48437500000
747+62187500000+71250000000+75937500000+80000000000+81562500000+83437500000
716+85625000000+87500000000+88437500000+89062500000+89375000000+89687500000
684+89375000000+89062500000+87812500000+86875000000+85937500000+85312500000
653+84375000000+84062500000+84062500000+84062500000+84062500000+84375000000
621+85000000000+85625000000+86250000000+87187500000+87812500000+88437500000
589+89062500000+89687500000+89687500000+90000000000+90000000000+89687500000
558+89687500000+89375000000+89062500000+88750000000+88125000000+87187500000
526+85937500000+85312500000+84375000000+84062500000+84062500000+84375000000
495+84687500000+85312500000+85937500000+86562500000+87500000000+88125000000
463+89062500000+89375000000+87812500000+84687500000+80937500000+75937500000
432+70937500000+66875000000+64375000000+62187500000+60937500000+60312500000
400+60000000000
##END=
