##TITLE=triphenylene
##JCAMP-DX=4.24
##DATA TYPE=INFRARED SPECTRUM
##DATE=10/06/2025
##SAMPLING PROCEDURE=ATR
##ORIGIN=SDBS
##XUNITS=1/CM
##YUNITS=TRANSMITTANCE
##RESOLUTION=5.2631578947368425
##FIRSTX=4000.0
##LASTX=400.0
##DELTAX=-5.2631578947368425
##MAXY=94.6875
##MINY=0.0
##XFACTOR=1
##YFACTOR=1
##NPOINTS=685
##FIRSTY=0.0
##XYDATA=(X++(Y..Y))
4000+0+80937500000+80937500000+80937500000+80625000000+80312500000
3968+80312500000+80312500000+80312500000+80312500000+80000000000+80000000000
3937+79687500000+79375000000+79375000000+79375000000+79062500000+78750000000
3905+78750000000+79062500000+79062500000+79062500000+79375000000+79375000000
3874+79062500000+78750000000+78750000000+78750000000+78750000000+79062500000
3842+79375000000+79062500000+79062500000+78750000000+78437500000+78437500000
3811+78750000000+79062500000+79375000000+79375000000+79062500000+78750000000
3779+78750000000+78750000000+78750000000+78437500000+78437500000+78437500000
3747+78437500000+78437500000+78437500000+78125000000+78125000000+78125000000
3716+78437500000+78750000000+78750000000+78750000000+78750000000+79062500000
3684+79062500000+78750000000+78437500000+78437500000+78437500000+78437500000
3653+78437500000+78437500000+78437500000+78437500000+78437500000+78437500000
3621+78437500000+78125000000+78125000000+78125000000+78125000000+78125000000
3589+78125000000+78437500000+78125000000+78125000000+77812500000+77812500000
3558+77812500000+77812500000+77812500000+77812500000+77812500000+78125000000
3526+77812500000+77812500000+77812500000+77812500000+77812500000+77812500000
3495+77812500000+77812500000+77812500000+77500000000+77500000000+77500000000
3463+77500000000+77187500000+77187500000+76875000000+76875000000+76562500000
3432+76562500000+76562500000+76562500000+76875000000+76875000000+76875000000
3400+76875000000+76875000000+76875000000+76875000000+76562500000+76250000000
3368+73437500000+72187500000+71562500000+71250000000+71250000000+70937500000
3337+70625000000+70000000000+68125000000+66562500000+65937500000+63437500000
3305+60000000000+54062500000+44687500000+32187500000+18125000000+11875000000
3274+11250000000+11875000000+8125000000+5312500000+4687500000+5000000000
3242+8750000000+12812500000+16562500000+21250000000+23125000000+19375000000
3211+15937500000+12187500000+12500000000+25000000000+48437500000+62812500000
3179+70625000000+74375000000+76875000000+78437500000+79687500000+80937500000
3147+81875000000+82187500000+82500000000+82187500000+81875000000+81250000000
3116+81250000000+81562500000+81562500000+81875000000+81875000000+81562500000
3084+81562500000+81562500000+81875000000+82187500000+82500000000+82500000000
3053+82500000000+82500000000+82500000000+82812500000+82812500000+83125000000
3021+83125000000+83437500000+84062500000+84375000000+84687500000+85000000000
2989+85000000000+85312500000+85312500000+85625000000+85625000000+85625000000
2958+85937500000+85937500000+85937500000+85937500000+85937500000+85937500000
2926+85937500000+85937500000+85937500000+86250000000+86250000000+86250000000
2895+86250000000+86250000000+85937500000+85937500000+85625000000+85625000000
2863+85625000000+85625000000+85937500000+85937500000+85937500000+86250000000
2832+86250000000+86562500000+86875000000+86875000000+87187500000+87187500000
2800+87500000000+87812500000+87812500000+87812500000+87812500000+87812500000
2768+87812500000+87812500000+87812500000+87812500000+88125000000+88125000000
2737+88125000000+88125000000+88125000000+88125000000+88437500000+88437500000
2705+88750000000+88437500000+88437500000+88437500000+88750000000+88750000000
2674+88750000000+89062500000+89062500000+89062500000+89062500000+89062500000
2642+89062500000+89062500000+89062500000+89062500000+89062500000+89375000000
2611+89375000000+89375000000+89375000000+89687500000+89687500000+89687500000
2579+89687500000+89375000000+89062500000+89062500000+88750000000+88750000000
2547+88750000000+88750000000+89062500000+89062500000+89062500000+89062500000
2516+89062500000+89062500000+89375000000+89375000000+89375000000+89375000000
2484+89375000000+89062500000+89062500000+89062500000+89062500000+89375000000
2453+89375000000+89375000000+89375000000+89687500000+89687500000+89687500000
2421+89687500000+89687500000+89687500000+90000000000+90000000000+90000000000
2389+90000000000+90000000000+90000000000+90000000000+90000000000+90000000000
2358+90000000000+90000000000+90000000000+90000000000+90000000000+89687500000
2326+89687500000+90000000000+90000000000+90000000000+90312500000+90312500000
2295+90312500000+90312500000+90312500000+90312500000+90312500000+90312500000
2263+90312500000+90625000000+90625000000+90312500000+90312500000+90000000000
2232+90000000000+90000000000+90000000000+90000000000+90000000000+90000000000
2200+90000000000+90000000000+89687500000+89687500000+89687500000+90000000000
2168+90000000000+90000000000+90000000000+90000000000+90000000000+90000000000
2137+90000000000+90000000000+89687500000+89687500000+89687500000+89687500000
2105+89687500000+89687500000+89687500000+89687500000+89687500000+89687500000
2074+89375000000+89375000000+89687500000+89687500000+90000000000+90000000000
2042+90312500000+90312500000+90312500000+90312500000+90312500000+90312500000
2011+90312500000+90312500000+90000000000+90000000000+90000000000+90000000000
1979+90000000000+89687500000+89687500000+89687500000+89687500000+89375000000
1947+89062500000+89062500000+88750000000+88437500000+88125000000+84687500000
1916+65312500000+68125000000+81875000000+81875000000+79687500000+76250000000
1884+68437500000+55312500000+43437499999+42812500000+42812500000+44062500000
1853+47187500000+54687500000+58750000000+64062500000+61250000000+45937500000
1821+53125000000+73125000000+79062500000+81562500000+84687500000+85625000000
1789+85625000000+85937500000+85312500000+84375000000+82187500000+74687500000
1758+69062500000+59687500000+57500000000+60625000000+72500000000+73125000000
1726+76562500000+81562500000+82812500000+83437500000+83750000000+83437500000
1695+83437500000+85312500000+86562500000+87500000000+87500000000+87500000000
1663+87500000000+87500000000+87500000000+87187500000+85625000000+85625000000
1632+86875000000+87812500000+88125000000+88437500000+88750000000+89375000000
1600+89687500000+90312500000+90312500000+90312500000+89687500000+89375000000
1568+81250000000+75625000000+78125000000+87500000000+89375000000+90312500000
1537+90625000000+90937500000+90937500000+90937500000+90937500000+90937500000
1505+91250000000+91250000000+91250000000+91562500000+91562500000+91250000000
1474+91250000000+90937500000+90625000000+90937500000+88437500000+84687500000
1442+90625000000+90937500000+90625000000+90312500000+88125000000+90937500000
1411+91875000000+91875000000+92187500000+92187500000+92187500000+91250000000
1379+88125000000+88750000000+92500000000+93125000000+93125000000+93125000000
1347+93125000000+93125000000+93125000000+93125000000+92812500000+92500000000
1316+92187500000+91875000000+90312500000+85937500000+85625000000+89375000000
1284+92500000000+92812500000+92812500000+93125000000+93125000000+93125000000
1253+93125000000+92812500000+92812500000+92500000000+92500000000+92500000000
1221+92500000000+92187500000+92187500000+92187500000+92187500000+92187500000
1189+92500000000+92500000000+92500000000+92500000000+92812500000+92812500000
1158+84062500000+89687500000+91562500000+92187500000+85312500000+90937500000
1126+92812500000+92812500000+93125000000+93125000000+93125000000+93125000000
1095+92812500000+92812500000+92812500000+92812500000+93125000000+93125000000
1063+93125000000+93125000000+93437500000+93437500000+93437500000+93750000000
1032+93125000000+91250000000+85000000000+84687500000+90625000000+93750000000
1000+94062500000+94375000000+94062500000+94062500000+94062500000+94062500000
968+94062500000+94062500000+94062500000+94375000000+94375000000+94687500000
937+94687500000+94687500000+94062500000+87500000000+89687500000+84687500000
905+84687500000+92187500000+90937500000+88437500000+85937500000+80000000000
874+37812500000+16250000000+15937500000+55312500000+72187500000+76562500000
842+76562500000+77500000000+80625000000+85625000000+86875000000+91250000000
811+92500000000+92500000000+92500000000+92812500000+92812500000+92500000000
779+92500000000+92500000000+92500000000+92812500000+92812500000+93125000000
747+93125000000+92812500000+92500000000+92500000000+92500000000+92500000000
716+92812500000+92812500000+93125000000+63437500000+63437500000+92500000000
684+93125000000+92812500000+92812500000+92812500000+92500000000+92187500000
653+91875000000+91875000000+91562500000+91562500000+91562500000+91875000000
621+91875000000+92187500000+92500000000+93125000000+93437500000+93437500000
589+93750000000+93750000000+93750000000+93750000000+93437500000+93125000000
558+92812500000+92500000000+92187500000+91875000000+91562500000+91250000000
526+91250000000+90937500000+90937500000+90937500000+90625000000+90625000000
495+90625000000+90625000000+90625000000+90312500000+89687500000+88750000000
463+87500000000+85000000000+82500000000+79687500000+77500000000+75000000000
432+73125000000+71875000000+70937500000+70312500000+69687500000+69687500000
400+69375000000
##END=
