##TITLE=undecane
##JCAMP-DX=4.24
##DATA TYPE=INFRARED SPECTRUM
##DATE=10/06/2025
##SAMPLING PROCEDURE=ATR
##ORIGIN=SDBS
##XUNITS=1/CM
##YUNITS=TRANSMITTANCE
##RESOLUTION=5.2631578947368425
##FIRSTX=4000.0
##LASTX=400.0
##DELTAX=-5.2631578947368425
##MAXY=95.0
##MINY=0.0
##XFACTOR=1
##YFACTOR=1
##NPOINTS=685
##FIRSTY=0.0
##XYDATA=(X++(Y..Y))
4000+0+92500000000+92812500000+92812500000+92812500000+93125000000
3968+93125000000+93125000000+93125000000+93125000000+93437500000+93437500000
3937+93437500000+93125000000+93125000000+92812500000+92812500000+92812500000
3905+92812500000+92812500000+92812500000+92812500000+92812500000+92812500000
3874+92812500000+93125000000+93125000000+93125000000+93125000000+93125000000
3842+92812500000+92812500000+92812500000+92812500000+92812500000+92812500000
3811+92812500000+92812500000+92812500000+92812500000+92812500000+92812500000
3779+92812500000+92500000000+92500000000+92500000000+92187500000+92187500000
3747+92187500000+92187500000+92187500000+92187500000+92187500000+92187500000
3716+92187500000+92187500000+92187500000+92500000000+92500000000+92500000000
3684+92500000000+92187500000+92187500000+92187500000+91875000000+91875000000
3653+91875000000+91875000000+91875000000+91562500000+91562500000+91250000000
3621+91250000000+91250000000+91250000000+90937500000+90937500000+90937500000
3589+90937500000+90937500000+90937500000+90625000000+90625000000+90625000000
3558+90625000000+90625000000+90937500000+90937500000+90937500000+90937500000
3526+91250000000+91250000000+91250000000+91250000000+91250000000+91250000000
3495+90937500000+90937500000+90937500000+90937500000+90937500000+90937500000
3463+90937500000+90937500000+90937500000+90625000000+90625000000+90625000000
3432+90312500000+90312500000+90625000000+90625000000+90625000000+90937500000
3400+90937500000+90937500000+90937500000+90625000000+90625000000+90625000000
3368+90312500000+90000000000+89687500000+89062500000+88750000000+87812500000
3337+86875000000+86250000000+85000000000+83750000000+81562500000+79375000000
3305+75937500000+70312500000+60312500000+44375000000+20625000000+12500000000
3274+11875000000+17812500000+10312500000+5625000000+4687500000+5312500000
3242+11250000000+19062500000+25625000000+32500000000+26562500000+24375000000
3211+15937500000+12187500000+12812500000+34687500000+58750000000+68125000000
3179+74687500000+79062500000+81875000000+83750000000+85625000000+87187500000
3147+88437500000+89062500000+89687500000+90000000000+89375000000+88125000000
3116+88125000000+89687500000+90312500000+90625000000+90312500000+90000000000
3084+89687500000+89687500000+89687500000+90000000000+90312500000+90625000000
3053+90937500000+91562500000+91562500000+91875000000+91875000000+92187500000
3021+92187500000+92500000000+92812500000+93125000000+93437500000+93437500000
2989+93750000000+93750000000+94062500000+94062500000+94062500000+94375000000
2958+94375000000+94375000000+94375000000+94375000000+94375000000+94375000000
2926+94375000000+94375000000+94375000000+94375000000+94062500000+94062500000
2895+94062500000+94062500000+94062500000+94062500000+93750000000+93750000000
2863+93750000000+93750000000+93750000000+93750000000+94062500000+94062500000
2832+94062500000+94062500000+94062500000+94062500000+94062500000+94062500000
2800+94062500000+94062500000+94062500000+94062500000+94062500000+94375000000
2768+94375000000+94375000000+94375000000+94375000000+94375000000+94375000000
2737+94375000000+94375000000+94375000000+94375000000+94375000000+94375000000
2705+94375000000+94687500000+94687500000+94687500000+94687500000+94687500000
2674+94375000000+94375000000+94375000000+94375000000+94375000000+94375000000
2642+94062500000+94062500000+94062500000+94062500000+94062500000+94375000000
2611+94375000000+94375000000+94375000000+94375000000+94375000000+94375000000
2579+94375000000+94375000000+94375000000+94375000000+94375000000+94375000000
2547+94375000000+94375000000+94375000000+94375000000+94375000000+94375000000
2516+94375000000+94375000000+94375000000+94375000000+94375000000+94375000000
2484+94375000000+94375000000+94375000000+94375000000+94375000000+94375000000
2453+94062500000+94062500000+94062500000+94062500000+94062500000+94062500000
2421+94062500000+94062500000+94062500000+94062500000+94375000000+94375000000
2389+94375000000+94375000000+94375000000+94375000000+94375000000+94375000000
2358+94375000000+94375000000+94375000000+94375000000+94375000000+94375000000
2326+94375000000+94375000000+94375000000+94375000000+94375000000+94375000000
2295+94375000000+94375000000+94375000000+94375000000+94375000000+94687500000
2263+94687500000+94687500000+94687500000+94687500000+95000000000+94687500000
2232+94687500000+94687500000+94687500000+94375000000+94375000000+94375000000
2200+94062500000+94062500000+94062500000+94062500000+94062500000+94062500000
2168+94062500000+94062500000+94062500000+94062500000+94062500000+94062500000
2137+94062500000+94062500000+94062500000+93750000000+93750000000+93750000000
2105+93750000000+93750000000+93437500000+93437500000+93437500000+93437500000
2074+93437500000+93750000000+93750000000+93750000000+93750000000+93437500000
2042+93437500000+93437500000+93437500000+93437500000+93437500000+93437500000
2011+93437500000+93437500000+93437500000+93125000000+93125000000+92812500000
1979+92500000000+92500000000+92187500000+91875000000+91562500000+91562500000
1947+90937500000+90000000000+89687500000+89687500000+89375000000+88750000000
1916+88437500000+88125000000+87187500000+85312500000+83125000000+79062500000
1884+68437500000+49375000000+41874999999+43437499999+47812500000+48750000000
1853+52187500000+62187500000+68125000000+71875000000+75000000000+79375000000
1821+83125000000+85625000000+86875000000+87500000000+88125000000+88437500000
1789+88750000000+89062500000+88437500000+87812500000+86875000000+85312500000
1758+80000000000+65625000000+65000000000+77187500000+82812500000+83750000000
1726+85625000000+86875000000+87187500000+87812500000+88125000000+86250000000
1695+86562500000+89375000000+90312500000+90937500000+90625000000+90312500000
1663+89687500000+89062500000+88437500000+88125000000+88125000000+88437500000
1632+88750000000+89375000000+89375000000+89687500000+89687500000+89687500000
1600+89687500000+89687500000+89687500000+89687500000+90000000000+90000000000
1568+90312500000+90312500000+90625000000+90625000000+90937500000+90937500000
1537+91250000000+91250000000+91562500000+91562500000+91562500000+91562500000
1505+91250000000+91250000000+91250000000+90937500000+90937500000+90937500000
1474+90625000000+90625000000+90625000000+90312500000+90312500000+90312500000
1442+90000000000+90000000000+89687500000+89687500000+89375000000+88437500000
1411+88437500000+88750000000+89375000000+89687500000+89687500000+89687500000
1379+89687500000+88750000000+88437500000+87812500000+87500000000+87500000000
1347+87187500000+87187500000+87187500000+87187500000+87187500000+87187500000
1316+87500000000+87500000000+87812500000+87812500000+88125000000+88125000000
1284+88125000000+88437500000+88437500000+88437500000+88437500000+88437500000
1253+88437500000+88437500000+88437500000+88437500000+88750000000+89062500000
1221+89687500000+90000000000+90625000000+90937500000+91250000000+91250000000
1189+91562500000+91562500000+91562500000+91562500000+91562500000+91562500000
1158+91562500000+91562500000+91562500000+91875000000+91875000000+91875000000
1126+91875000000+91875000000+91562500000+91562500000+91250000000+90937500000
1095+90625000000+90312500000+90000000000+89687500000+89687500000+89687500000
1063+89687500000+90000000000+90312500000+90625000000+90625000000+90937500000
1032+91250000000+91562500000+91562500000+91875000000+91875000000+91875000000
1000+91875000000+91875000000+91875000000+91562500000+91562500000+91562500000
968+91562500000+91562500000+91562500000+91250000000+90937500000+90937500000
937+90625000000+90625000000+90625000000+90625000000+90625000000+90937500000
905+90937500000+91250000000+91250000000+91562500000+90937500000+90312500000
874+89375000000+88125000000+86875000000+85937500000+83437500000+79375000000
842+73750000000+73750000000+79687500000+84687500000+88125000000+90312500000
811+91875000000+92500000000+93125000000+93125000000+93125000000+93125000000
779+93437500000+93437500000+93125000000+93125000000+93125000000+92812500000
747+92500000000+92500000000+92500000000+92500000000+92500000000+92500000000
716+92500000000+92812500000+92812500000+93125000000+93125000000+93125000000
684+93125000000+92812500000+92812500000+92500000000+92187500000+92187500000
653+92187500000+92187500000+92187500000+92187500000+92187500000+92500000000
621+92812500000+93125000000+93437500000+93750000000+94062500000+94375000000
589+94062500000+94062500000+93750000000+93437500000+93125000000+92812500000
558+92187500000+91875000000+91250000000+90937500000+90312500000+90312500000
526+90312500000+90312500000+90312500000+90625000000+90625000000+90937500000
495+90937500000+90937500000+90625000000+90000000000+89375000000+88437500000
463+87812500000+86875000000+85625000000+84062500000+82812500000+80937500000
432+79375000000+78125000000+76875000000+75625000000+74687500000+74062500000
400+73750000000
##END=
