##TITLE=uracil
##JCAMP-DX=4.24
##DATA TYPE=INFRARED SPECTRUM
##DATE=10/06/2025
##SAMPLING PROCEDURE=ATR
##ORIGIN=SDBS
##XUNITS=1/CM
##YUNITS=TRANSMITTANCE
##RESOLUTION=5.2631578947368425
##FIRSTX=4000.0
##LASTX=400.0
##DELTAX=-5.2631578947368425
##MAXY=95.0
##MINY=0.0
##XFACTOR=1
##YFACTOR=1
##NPOINTS=685
##FIRSTY=0.0
##XYDATA=(X++(Y..Y))
4000+0+84687500000+84687500000+85000000000+85000000000+85000000000
3968+85000000000+85000000000+85312500000+85312500000+85937500000+85937500000
3937+86250000000+86250000000+86250000000+86250000000+86250000000+86250000000
3905+86250000000+86250000000+86250000000+86562500000+86562500000+86875000000
3874+86875000000+87187500000+87187500000+87187500000+87187500000+87500000000
3842+87500000000+87812500000+88125000000+88125000000+88125000000+88125000000
3811+88125000000+88125000000+88125000000+88437500000+88437500000+88750000000
3779+88750000000+88750000000+88750000000+88750000000+88750000000+88750000000
3747+88437500000+88437500000+88437500000+88437500000+88437500000+88750000000
3716+88750000000+89062500000+89062500000+89375000000+89375000000+89375000000
3684+89687500000+89687500000+89687500000+89687500000+90000000000+90000000000
3653+90000000000+90312500000+90312500000+90312500000+90312500000+90312500000
3621+90312500000+90312500000+90312500000+90312500000+90312500000+90312500000
3589+90312500000+90625000000+90625000000+90937500000+91250000000+91250000000
3558+90937500000+90937500000+90625000000+90312500000+90000000000+89687500000
3526+89062500000+88437500000+87187500000+85937500000+83750000000+82187500000
3495+80312500000+77812500000+75312500000+72500000000+69375000000+67187500000
3463+65000000000+64375000000+64375000000+63750000000+60312500000+56250000000
3432+52187500000+49687499999+49375000000+49375000000+45312500000+44062500000
3400+40000000000+38437500000+35625000000+34062500000+34062500000+34062500000
3368+33750000000+34062500000+35312500000+39375000000+42812500000+43125000000
3337+42187500000+41562500000+41562500000+43437499999+43437499999+42500000000
3305+40312499999+35000000000+31875000000+27187500000+20312500000+15312500000
3274+13125000000+11562500000+8125000000+5000000000+4687500000+5625000000
3242+10312500000+15625000000+19375000000+23437500000+28437500000+25000000000
3211+20625000000+17500000000+18750000000+31875000000+46250000000+51250000000
3179+51250000000+56250000000+56250000000+59687500000+64062500000+67187500000
3147+69687500000+71250000000+71875000000+71250000000+69375000000+68750000000
3116+69687500000+72500000000+75000000000+76250000000+76250000000+76250000000
3084+76875000000+77812500000+79062500000+80000000000+80625000000+80937500000
3053+81250000000+81250000000+81562500000+81875000000+82187500000+82500000000
3021+82812500000+83750000000+84687500000+85000000000+85000000000+85000000000
2989+85000000000+85312500000+86250000000+86875000000+87187500000+86875000000
2958+86875000000+86875000000+86562500000+85937500000+85312500000+85000000000
2926+85312500000+86562500000+87812500000+88125000000+88125000000+88125000000
2895+88125000000+88125000000+88437500000+89062500000+89375000000+89687500000
2863+90000000000+90312500000+90312500000+90625000000+90625000000+90937500000
2832+91250000000+91250000000+91562500000+91562500000+91875000000+91875000000
2800+92187500000+92187500000+91875000000+91562500000+91562500000+91562500000
2768+91562500000+91875000000+92187500000+92187500000+92187500000+92500000000
2737+92812500000+93125000000+93125000000+93437500000+93437500000+93750000000
2705+93750000000+93750000000+93750000000+93750000000+93750000000+93750000000
2674+93750000000+93750000000+94062500000+94062500000+94375000000+94375000000
2642+94687500000+94375000000+93437500000+92500000000+92187500000+91875000000
2611+91562500000+91562500000+91562500000+91562500000+91875000000+92187500000
2579+92500000000+92812500000+93437500000+93437500000+93437500000+93750000000
2547+93750000000+94062500000+94062500000+94062500000+94062500000+94062500000
2516+94062500000+94062500000+94375000000+94375000000+94687500000+94687500000
2484+94687500000+95000000000+94687500000+94687500000+94687500000+94375000000
2453+94375000000+94062500000+94062500000+93750000000+93437500000+93125000000
2421+93125000000+92812500000+92187500000+91875000000+91562500000+90937500000
2389+90312500000+89375000000+87812500000+86250000000+83750000000+81250000000
2358+78437500000+75937500000+72812500000+70625000000+69062500000+65312500000
2326+63125000000+62187500000+61875000000+61250000000+56875000000+52187500000
2295+50312500000+49687499999+49687499999+51562500000+53437500000+48437500000
2263+39375000000+30000000000+23125000000+18125000000+18125000000+19687500000
2232+23750000000+23437500000+19375000000+18750000000+20312500000+27812500000
2200+35000000000+34687500000+37187499999+41874999999+43125000000+40312499999
2168+36875000000+33437500000+30937500000+29687500000+29062500000+28750000000
2137+28125000000+27187500000+25937500000+24375000000+24062500000+24375000000
2105+25937500000+27812500000+30312500000+32812500000+35625000000+37500000000
2074+39687500000+41874999999+44062500000+45937500000+48124999999+50000000000
2042+51562500000+52812500000+53750000000+55312500000+56875000000+58750000000
2011+60625000000+61562500000+62812500000+63750000000+65000000000+66250000000
1979+67500000000+67812500000+68125000000+67812500000+67812500000+67500000000
1947+67500000000+65937500000+62187500000+60937500000+62187500000+66875000000
1916+71250000000+73437500000+75625000000+76562500000+76875000000+75000000000
1884+71250000000+64062500000+53750000000+48124999999+40625000000+35312500000
1853+35000000000+43125000000+54062500000+62187500000+67812500000+74062500000
1821+75000000000+56250000000+32187500000+30625000000+31875000000+51875000000
1789+64062500000+71875000000+75625000000+70937500000+54687500000+57500000000
1758+66875000000+66250000000+65937500000+68750000000+74375000000+75937500000
1726+77500000000+80000000000+80937500000+81562500000+82187500000+83125000000
1695+83750000000+84687500000+85000000000+85625000000+85937500000+86250000000
1663+86250000000+86250000000+86250000000+86562500000+86562500000+86875000000
1632+87500000000+88437500000+89062500000+89375000000+89375000000+89062500000
1600+88750000000+88125000000+87500000000+86562500000+84687500000+79687500000
1568+70312500000+55625000000+39687500000+33125000000+33125000000+35937500000
1537+42812500000+58437500000+65937500000+69687500000+73750000000+76250000000
1505+78437500000+79687500000+80625000000+81875000000+82812500000+83437500000
1474+84062500000+84687500000+85000000000+85312500000+85625000000+85625000000
1442+85625000000+85937500000+85937500000+86250000000+86250000000+86562500000
1411+86875000000+87187500000+87812500000+88125000000+88125000000+88125000000
1379+88125000000+87812500000+87812500000+87812500000+87812500000+87812500000
1347+88125000000+88125000000+88125000000+88125000000+88125000000+88437500000
1316+88437500000+88437500000+88750000000+88750000000+88750000000+88750000000
1284+88750000000+88750000000+88437500000+88437500000+88125000000+87500000000
1253+86562500000+85625000000+82812500000+70625000000+70937500000+74687500000
1221+75312500000+73437500000+80000000000+84375000000+86250000000+87187500000
1189+87500000000+87812500000+88125000000+88437500000+88437500000+88437500000
1158+88437500000+88750000000+88437500000+88437500000+88437500000+88125000000
1126+88125000000+88125000000+88437500000+88437500000+88750000000+89062500000
1095+88750000000+88125000000+86875000000+85625000000+84375000000+82812500000
1063+81250000000+78437500000+75000000000+72812500000+71562500000+70937500000
1032+70937500000+71875000000+74375000000+76562500000+78750000000+80312500000
1000+81562500000+82500000000+80312500000+76562500000+76562500000+82187500000
968+84062500000+84062500000+84062500000+84375000000+85312500000+85625000000
937+85937500000+86250000000+83437500000+83125000000+89062500000+90312500000
905+90937500000+87812500000+84062500000+84687500000+90000000000+91562500000
874+91875000000+91562500000+91250000000+91250000000+91250000000+91250000000
842+91562500000+91875000000+92500000000+92812500000+93125000000+93437500000
811+93750000000+94062500000+94062500000+94062500000+94062500000+94062500000
779+94062500000+94375000000+94375000000+94687500000+94687500000+94375000000
747+94375000000+94375000000+94375000000+94687500000+94687500000+94687500000
716+95000000000+94687500000+94687500000+94375000000+94375000000+94375000000
684+94375000000+94375000000+94375000000+94375000000+93437500000+89375000000
653+76875000000+78437500000+88750000000+87187500000+80000000000+61250000000
621+54687500000+73750000000+77500000000+65000000000+44999999999+39375000000
589+41250000000+61875000000+75312500000+80937500000+85000000000+87812500000
558+89062500000+90000000000+90625000000+90937500000+90625000000+90000000000
526+89375000000+88750000000+88437500000+88125000000+88125000000+88437500000
495+89375000000+90625000000+91250000000+89687500000+86250000000+81875000000
463+77500000000+72812500000+69375000000+67187500000+65937500000+65312500000
432+64687500000+63437500000+61875000000+59375000000+57187500000+55625000000
400+55000000000
##END=
