##TITLE=uric acid
##JCAMP-DX=4.24
##DATA TYPE=INFRARED SPECTRUM
##DATE=10/06/2025
##SAMPLING PROCEDURE=ATR
##ORIGIN=SDBS
##XUNITS=1/CM
##YUNITS=TRANSMITTANCE
##RESOLUTION=5.2631578947368425
##FIRSTX=4000.0
##LASTX=400.0
##DELTAX=-5.2631578947368425
##MAXY=94.6875
##MINY=0.0
##XFACTOR=1
##YFACTOR=1
##NPOINTS=685
##FIRSTY=0.0
##XYDATA=(X++(Y..Y))
4000+0+83437500000+83750000000+83750000000+84062500000+84062500000
3968+84375000000+84375000000+84375000000+84375000000+84375000000+84687500000
3937+84687500000+84687500000+85000000000+85000000000+84687500000+84687500000
3905+84687500000+84687500000+85000000000+85000000000+85312500000+85625000000
3874+85625000000+85625000000+85625000000+86250000000+86562500000+86562500000
3842+86875000000+86875000000+86875000000+86875000000+86875000000+86875000000
3811+87187500000+87187500000+87500000000+87500000000+87500000000+87812500000
3779+87812500000+88125000000+88125000000+88125000000+88125000000+88125000000
3747+88437500000+88437500000+88437500000+88125000000+88437500000+88437500000
3716+88437500000+88750000000+88750000000+89062500000+89062500000+89375000000
3684+89375000000+89062500000+89062500000+89062500000+89062500000+89062500000
3653+89062500000+89375000000+89375000000+89687500000+89687500000+90000000000
3621+90000000000+90000000000+89687500000+89687500000+89687500000+89687500000
3589+89687500000+89687500000+89687500000+89687500000+89375000000+89375000000
3558+89375000000+89375000000+89062500000+89062500000+88750000000+88437500000
3526+88125000000+88125000000+87500000000+86875000000+86250000000+85625000000
3495+85000000000+83750000000+82812500000+81562500000+80312500000+79062500000
3463+78125000000+76875000000+75312500000+73437500000+71250000000+70000000000
3432+69062500000+68125000000+67187500000+65937500000+64687500000+63125000000
3400+62500000000+62187500000+61875000000+61250000000+60937500000+60312500000
3368+60312500000+60000000000+59687500000+59062500000+57812500000+55937500000
3337+53750000000+52500000000+50312500000+48750000000+47187500000+45937500000
3305+44062500000+40312499999+34375000000+25937500000+15937500000+11250000000
3274+10312500000+10937500000+8125000000+5312500000+4687500000+5000000000
3242+7812500000+11250000000+14687500000+18125000000+20000000000+17187500000
3211+14687500000+11250000000+11562500000+20000000000+34062500000+42500000000
3179+47812500000+50937500000+53437500000+55312500000+56875000000+58125000000
3147+59687500000+60937500000+62187500000+63437500000+65000000000+65937500000
3116+66250000000+66875000000+67500000000+67812500000+67812500000+67812500000
3084+67812500000+68125000000+69062500000+70312500000+71875000000+72812500000
3053+73437500000+74375000000+74687500000+74375000000+74375000000+75000000000
3021+76250000000+76875000000+78125000000+79062500000+80000000000+80625000000
2989+81562500000+81875000000+82187500000+82500000000+82812500000+83125000000
2958+83750000000+84062500000+84375000000+84375000000+84687500000+84687500000
2926+85000000000+85312500000+85312500000+85625000000+85625000000+85937500000
2895+86250000000+86250000000+86562500000+86875000000+86875000000+87187500000
2863+87500000000+87500000000+87812500000+88125000000+88437500000+88750000000
2832+88750000000+88750000000+88750000000+89062500000+89062500000+89375000000
2800+89687500000+89687500000+89687500000+89687500000+90000000000+90312500000
2768+90625000000+90625000000+90937500000+90937500000+90937500000+91250000000
2737+91250000000+91562500000+91562500000+91562500000+91562500000+91875000000
2705+91875000000+92187500000+92187500000+92187500000+92500000000+92500000000
2674+92812500000+93125000000+93125000000+93437500000+93437500000+93750000000
2642+93750000000+92500000000+91562500000+91562500000+92187500000+93125000000
2611+93750000000+94062500000+94375000000+94375000000+94375000000+94375000000
2579+94375000000+94375000000+94375000000+94687500000+94687500000+94687500000
2547+94687500000+94687500000+94687500000+94687500000+94687500000+94687500000
2516+94687500000+94687500000+94687500000+94687500000+94687500000+94687500000
2484+94687500000+94687500000+94687500000+94687500000+94687500000+94687500000
2453+94375000000+94375000000+94375000000+94062500000+94062500000+94062500000
2421+93750000000+93750000000+93437500000+93437500000+93437500000+93125000000
2389+93125000000+93125000000+92812500000+92812500000+92500000000+92187500000
2358+91562500000+90937500000+90312500000+89687500000+89062500000+88125000000
2326+87500000000+86562500000+85625000000+84687500000+83750000000+82812500000
2295+81875000000+80625000000+78125000000+75937500000+74375000000+72500000000
2263+70312500000+66875000000+63750000000+59687500000+56875000000+54687500000
2232+53437500000+50312500000+46562499999+44062500000+42500000000+40937500000
2200+39062500000+37500000000+36562500000+35000000000+34062500000+32812500000
2168+31250000000+30000000000+29687500000+30000000000+30625000000+31875000000
2137+33750000000+35625000000+38125000000+39375000000+39375000000+40625000000
2105+43750000000+46250000000+49375000000+52500000000+55312500000+57500000000
2074+60312500000+62500000000+64687500000+61250000000+54375000000+50312500000
2042+50000000000+50000000000+52187500000+54687500000+57500000000+59375000000
2011+61250000000+63125000000+64687500000+65937500000+66875000000+67500000000
1979+68125000000+69062500000+69687500000+70625000000+70937500000+71562500000
1947+71875000000+72187500000+72500000000+72812500000+72812500000+72500000000
1916+72500000000+71875000000+70625000000+68750000000+67187500000+65000000000
1884+59062500000+48437500000+39687500000+39687500000+40000000000+41250000000
1853+43437499999+49062500000+53750000000+58125000000+57812500000+60625000000
1821+68437500000+72500000000+74375000000+73125000000+71562500000+71250000000
1789+70625000000+70000000000+70000000000+70312500000+71562500000+67500000000
1758+63125000000+55625000000+54375000000+57500000000+68125000000+68125000000
1726+70625000000+69062500000+61562500000+60000000000+60312500000+65000000000
1695+69687500000+73437500000+75625000000+77187500000+78125000000+75312500000
1663+67187500000+65000000000+64062500000+63437500000+63750000000+66562500000
1632+71562500000+75000000000+76875000000+77500000000+77812500000+79687500000
1600+80625000000+81875000000+83125000000+83750000000+84062500000+84687500000
1568+85000000000+85312500000+85625000000+85937500000+85937500000+86250000000
1537+86250000000+86250000000+86875000000+87187500000+87500000000+87812500000
1505+88125000000+88437500000+88750000000+89062500000+89062500000+89375000000
1474+89375000000+89375000000+89375000000+89687500000+89687500000+90000000000
1442+90000000000+90312500000+90000000000+89687500000+89062500000+88125000000
1411+84062500000+73750000000+62500000000+62187500000+68437500000+77812500000
1379+82500000000+85000000000+87187500000+88437500000+89375000000+90000000000
1347+90625000000+90937500000+90937500000+91250000000+91562500000+91562500000
1316+91875000000+92187500000+92500000000+92812500000+92812500000+92812500000
1284+92500000000+91562500000+89687500000+81875000000+79687500000+82812500000
1253+88750000000+90312500000+90625000000+90000000000+88750000000+83125000000
1221+67500000000+63437500000+65000000000+75937500000+84062500000+86875000000
1189+88125000000+89062500000+89687500000+90312500000+90625000000+90625000000
1158+90625000000+90625000000+90625000000+90625000000+90625000000+90625000000
1126+90625000000+90625000000+90625000000+90312500000+90312500000+90000000000
1095+89375000000+88437500000+87187500000+85937500000+84687500000+83125000000
1063+80625000000+78750000000+78750000000+80000000000+82500000000+84375000000
1032+85937500000+86562500000+86875000000+86875000000+86562500000+85937500000
1000+85625000000+84375000000+82500000000+80000000000+77812500000+75312500000
968+73125000000+71250000000+68750000000+65937500000+64687500000+63437500000
937+62187500000+60937500000+60937500000+61250000000+63125000000+67187500000
905+71250000000+75000000000+76875000000+77812500000+78437500000+71562500000
874+50937500000+50937500000+63750000000+72187500000+74687500000+74375000000
842+74062500000+74375000000+76875000000+74687500000+69062500000+71250000000
811+75937500000+78750000000+81562500000+83125000000+84375000000+85000000000
779+86250000000+86875000000+87500000000+88125000000+88125000000+88437500000
747+88437500000+89062500000+90000000000+90312500000+90937500000+91250000000
716+91562500000+89687500000+81250000000+73750000000+73750000000+81250000000
684+85937500000+87812500000+88437500000+89687500000+90312500000+90625000000
653+89375000000+86875000000+80000000000+78750000000+80000000000+81875000000
621+83750000000+86875000000+89375000000+91250000000+92500000000+93750000000
589+94687500000+94375000000+92187500000+86562500000+77187500000+75625000000
558+76875000000+80625000000+84687500000+87187500000+88750000000+90937500000
526+90625000000+88437500000+85937500000+83437500000+82500000000+82500000000
495+82812500000+83437500000+84687500000+85937500000+87187500000+88437500000
463+89375000000+89687500000+88437500000+85312500000+82187500000+77812500000
432+74062500000+71562500000+70312500000+69687500000+69687500000+69687500000
400+69375000000
##END=
