##TITLE=xanthosine
##JCAMP-DX=4.24
##DATA TYPE=INFRARED SPECTRUM
##DATE=10/06/2025
##SAMPLING PROCEDURE=ATR
##ORIGIN=SDBS
##XUNITS=1/CM
##YUNITS=TRANSMITTANCE
##RESOLUTION=5.2631578947368425
##FIRSTX=4000.0
##LASTX=400.0
##DELTAX=-5.2631578947368425
##MAXY=94.6875
##MINY=0.0
##XFACTOR=1
##YFACTOR=1
##NPOINTS=685
##FIRSTY=0.0
##XYDATA=(X++(Y..Y))
4000+0+78750000000+78750000000+79062500000+79062500000+79375000000
3968+79375000000+79687500000+79687500000+80000000000+80000000000+80312500000
3937+80312500000+80312500000+80312500000+80312500000+80312500000+80625000000
3905+80625000000+80937500000+80937500000+80937500000+80937500000+80937500000
3874+80937500000+80937500000+81250000000+81250000000+81562500000+81562500000
3842+81562500000+81562500000+81562500000+81562500000+81875000000+82187500000
3811+82500000000+82500000000+82500000000+82812500000+82812500000+83125000000
3779+83125000000+83437500000+83437500000+83437500000+83437500000+83125000000
3747+82812500000+82500000000+82187500000+81875000000+81875000000+81250000000
3716+80937500000+80625000000+80000000000+79375000000+78437500000+77812500000
3684+76562500000+75312500000+74062500000+73125000000+71562500000+70000000000
3653+68125000000+66250000000+64062500000+60625000000+56562500000+45937500000
3621+42500000000+47500000000+52187500000+54062500000+55312500000+55625000000
3589+55625000000+55937500000+55937500000+55312500000+54375000000+53437500000
3558+52500000000+51875000000+51250000000+50937500000+50000000000+48750000000
3526+46562499999+44375000000+43437499999+42812500000+41562500000+40000000000
3495+37500000000+36562500000+36562500000+37187499999+38749999999+40625000000
3463+42500000000+44062500000+44687500000+45312500000+45312500000+45312500000
3432+45625000000+45937500000+46250000000+46875000000+47187500000+48124999999
3400+48750000000+49062500000+46250000000+40625000000+43125000000+45625000000
3368+45312500000+45937500000+46562499999+46875000000+47812500000+49062500000
3337+49375000000+49062500000+48437500000+47500000000+45937500000+44062500000
3305+40937500000+37187499999+30000000000+22812500000+13750000000+9687500000
3274+8750000000+8750000000+7187500000+5000000000+4687500000+5000000000
3242+7187500000+9375000000+11875000000+14375000000+15312500000+13125000000
3211+11875000000+10625000000+10937500000+16875000000+28437500000+38437500000
3179+44375000000+47812500000+50312500000+52187500000+54062500000+55312500000
3147+56875000000+57812500000+58750000000+59375000000+59375000000+59062500000
3116+59062500000+59062500000+60000000000+60937500000+61875000000+62187500000
3084+62812500000+63125000000+63750000000+64375000000+64687500000+65312500000
3053+65625000000+65937500000+66562500000+66875000000+67500000000+68437500000
3021+69062500000+69687500000+70312500000+71250000000+71875000000+72500000000
2989+72812500000+73125000000+73750000000+74062500000+74375000000+74687500000
2958+75000000000+75312500000+75937500000+76250000000+76562500000+76875000000
2926+77187500000+77500000000+77812500000+77812500000+78125000000+78437500000
2895+78437500000+78750000000+78750000000+79062500000+79062500000+79062500000
2863+79375000000+79375000000+79687500000+79687500000+80000000000+80312500000
2832+80312500000+80625000000+80937500000+80937500000+81250000000+81562500000
2800+81875000000+82187500000+82187500000+82500000000+82500000000+82812500000
2768+82812500000+83125000000+83125000000+83437500000+83437500000+83750000000
2737+83750000000+83750000000+83750000000+84062500000+84062500000+84062500000
2705+84062500000+84375000000+84687500000+84687500000+85000000000+85312500000
2674+85625000000+85625000000+85625000000+85937500000+85937500000+86250000000
2642+86562500000+86875000000+87187500000+87187500000+87187500000+87187500000
2611+87500000000+87500000000+87812500000+88125000000+88125000000+88125000000
2579+88437500000+88437500000+88437500000+88750000000+88750000000+88750000000
2547+88750000000+89062500000+89062500000+89062500000+89062500000+89375000000
2516+89375000000+89375000000+89687500000+89687500000+90000000000+90312500000
2484+90312500000+90625000000+90625000000+90625000000+90625000000+90625000000
2453+90625000000+90625000000+90625000000+90625000000+90937500000+90937500000
2421+90937500000+90937500000+90937500000+90625000000+90625000000+90625000000
2389+90625000000+90625000000+90625000000+90625000000+90312500000+90312500000
2358+90000000000+89687500000+89687500000+89062500000+88750000000+88437500000
2326+87812500000+87187500000+86875000000+86250000000+85937500000+85312500000
2295+85000000000+84375000000+83125000000+81562500000+80312500000+77812500000
2263+75000000000+72187500000+69062500000+64687500000+59687500000+52812500000
2232+45625000000+37812500000+32812500000+32187500000+32500000000+30937500000
2200+29062500000+27500000000+25937500000+23750000000+22812500000+22812500000
2168+24062500000+27187500000+31875000000+36250000000+40625000000+43437499999
2137+45937500000+47812500000+50312500000+52812500000+55625000000+58125000000
2105+60000000000+61562500000+63125000000+65000000000+66875000000+68125000000
2074+63750000000+59062500000+59062500000+63125000000+66875000000+69687500000
2042+70000000000+63750000000+58437500000+52500000000+52500000000+56250000000
2011+62500000000+66875000000+69375000000+71562500000+73437500000+74687500000
1979+75625000000+76250000000+77187500000+77500000000+77812500000+77500000000
1947+77500000000+77187500000+77187500000+77187500000+77500000000+77187500000
1916+76250000000+74375000000+73437500000+72500000000+70000000000+65000000000
1884+55937500000+44375000000+35000000000+32500000000+31875000000+31875000000
1853+32500000000+36562500000+40625000000+45937500000+51562500000+57500000000
1821+64062500000+68437500000+65937500000+65625000000+67500000000+70000000000
1789+65000000000+58750000000+58125000000+59687500000+61875000000+56875000000
1758+50937500000+44062500000+42187500000+44062500000+55000000000+58125000000
1726+61562500000+66562500000+68437500000+70000000000+70937500000+71250000000
1695+69687500000+65937500000+63125000000+62187500000+62812500000+65625000000
1663+66250000000+65625000000+63750000000+58750000000+58437500000+60312500000
1632+63750000000+67187500000+69687500000+71562500000+73437500000+74062500000
1600+75000000000+75625000000+76250000000+75625000000+73750000000+73125000000
1568+73437500000+75000000000+74375000000+72812500000+69687500000+69375000000
1537+68750000000+68750000000+70000000000+71875000000+71250000000+72812500000
1505+76875000000+80312500000+81562500000+83125000000+83125000000+79062500000
1474+62500000000+57187500000+61250000000+70312500000+75000000000+76875000000
1442+76875000000+74375000000+71250000000+71250000000+75625000000+78437500000
1411+77187500000+72812500000+69062500000+65937500000+58125000000+54687500000
1379+58750000000+67500000000+63437500000+52187500000+51250000000+52500000000
1347+57187500000+53437500000+50312500000+50625000000+55312500000+60937500000
1316+67187500000+66250000000+67812500000+72812500000+74062500000+73750000000
1284+75312500000+77812500000+79687500000+80625000000+81562500000+82500000000
1253+83437500000+83750000000+83125000000+79687500000+79062500000+79062500000
1221+81250000000+84375000000+79687500000+75000000000+75625000000+82187500000
1189+85625000000+86875000000+87812500000+88437500000+89062500000+89687500000
1158+90000000000+90000000000+89687500000+89062500000+88437500000+86250000000
1126+80937500000+74687500000+74062500000+74375000000+68125000000+68125000000
1095+75312500000+76875000000+79062500000+80625000000+80312500000+75625000000
1063+68750000000+68750000000+70000000000+70625000000+70312500000+70312500000
1032+75937500000+79375000000+82500000000+84062500000+85625000000+85625000000
1000+85625000000+85625000000+86250000000+86250000000+86562500000+86562500000
968+86875000000+86562500000+86250000000+85625000000+84375000000+83125000000
937+79687500000+77812500000+77812500000+75000000000+68125000000+64375000000
905+64375000000+67500000000+71875000000+76875000000+80312500000+83437500000
874+83437500000+82187500000+82187500000+83437500000+83750000000+83750000000
842+84687500000+85625000000+86250000000+83750000000+78437500000+75312500000
811+73750000000+73750000000+75625000000+79687500000+81562500000+81875000000
779+82187500000+84375000000+87187500000+85937500000+83437500000+84375000000
747+84062500000+79062500000+76562500000+75625000000+75937500000+84062500000
716+85937500000+86875000000+86875000000+86250000000+83750000000+78750000000
684+76875000000+78750000000+83437500000+83750000000+86562500000+87500000000
653+88125000000+88125000000+88437500000+88750000000+89062500000+90312500000
621+90937500000+92187500000+93437500000+94062500000+94062500000+93750000000
589+93437500000+92812500000+92187500000+91562500000+91562500000+91250000000
558+90937500000+90312500000+89062500000+87500000000+85937500000+85000000000
526+85000000000+85625000000+86562500000+88750000000+90625000000+91875000000
495+92500000000+92812500000+93125000000+93125000000+93750000000+94375000000
463+94687500000+94375000000+93437500000+92187500000+90625000000+88437500000
432+85312500000+81875000000+78437500000+74687500000+71250000000+69062500000
400+68125000000
##END=
