##TITLE=NiW-a757.1
##JCAMP-DX=4.24
##DATA TYPE=INFRARED SPECTRUM
##DATE=14/2/2018
##SAMPLING PROCEDURE=Diamant ATR
##ORIGIN=Lara
##XUNITS=1/CM
##YUNITS=TRANSMITTANCE
##RESOLUTION=4
##FIRSTX=3997.453
##LASTX=373.96442
##DELTAX=-1.4165319
##MAXY=1.0016428
##MINY=0.54369915
##XFACTOR=1
##YFACTOR=9.3285257e-010
##NPOINTS=2559
##FIRSTY=0.99988955
##XYDATA=(X++(Y..Y))
3997+1071862351+1071939152+1072491653+1073225168+1073741823+1073690068
3989+1072989267+1072068157+1071584279+1071731046+1072043110+1072003495
3980+1071625300+1071285506+1071172604+1071125769+1070958811+1070716904
3972+1070555122+1070562726+1070827571+1071384480+1071953721+1072110966
3963+1071908355+1071842415+1071980748+1071765486+1071011524+1070350530
3955+1070328039+1070689877+1070893510+1070768212+1070438833+1070047604
3946+1069781098+1069849593+1070214817+1070471100+1070225488+1069549287
3938+1068899091+1068739928+1069217735+1069998149+1070484199+1070448481
3929+1070326953+1070603810+1071245444+1071839923+1071980748+1071597314
3921+1070846867+1070162679+1069956617+1070230535+1070479790+1070273026
3912+1069766977+1069470312+1069646663+1070045623+1070172710+1069700910
3904+1068799606+1068120913+1068147430+1068716607+1069375556+1069809148
3895+1069901668+1069739055+1069622446+1069771450+1069912530+1069668962
3887+1069155565+1068812832+1068801587+1068847208+1068871360+1069226042
3878+1070109902+1071199312+1071930271+1071758841+1070575057+1068997170
3870+1067862649+1067384267+1067175394+1067178781+1067813706+1069091543
3861+1070245423+1070696586+1070614800+1070424585+1070354875+1070481835
3853+1070856707+1071291385+1071411443+1071103469+1070504006+1069829594
3844+1069284569+1069034165+1069172498+1069620849+1070071437+1070233219
3836+1070254752+1070508926+1070978427+1071252728+1071064685+1070643808
3827+1070435638+1070591862+1070813130+1070721121+1070236733+1069563280
3819+1068986499+1068859987+1069508138+1070558317+1070984816+1070462602
3810+1069616249+1069222016+1069526540+1069979492+1070017254+1069927226
3802+1070207980+1070516274+1070081852+1069096910+1068453487+1068683509
3793+1069507627+1070237628+1070301139+1069571586+1068575271+1068114907
3785+1068431060+1068931422+1069073077+1069121382+1069558935+1070060191
3776+1069903648+1069145406+1068458854+1068274006+1068559361+1069117356
3768+1069735541+1070205361+1070427140+1070456085+1070438642+1070568668
3759+1070975999+1071446011+1071466074+1070806230+1069788510+1069121893
3751+1069473507+1070564131+1071262249+1071049670+1070349700+1070093608
3742+1070587453+1071063663+1070932806+1070173477+1069110967+1068286721
3734+1068074142+1068383586+1069030267+1069968885+1071025965+1071726957
3725+1071585813+1070771471+1070194754+1070511290+1071324482+1071742484
3717+1071477191+1070921880+1070470717+1070261908+1070310276+1070488927
3708+1070630391+1070745593+1070866674+1070893830+1070723166+1070380880
3700+1069928759+1069402775+1068968992+1068911806+1069332491+1070004283
3691+1070641700+1071143595+1071408057+1071288829+1070993634+1070874342
3683+1070917215+1070807571+1070353086+1069637653+1068955957+1068895832
3674+1069809020+1070934978+1071370039+1071049798+1070651859+1070821501
3666+1071429909+1071925990+1071931805+1071538147+1071114268+1070887440
3657+1070884757+1071035741+1071143148+1071057465+1070889485+1070885907
3649+1071106600+1071258415+1071145193+1070880348+1070652882+1070620103
3640+1070832107+1071144107+1071336686+1071396492+1071512078+1071722612
3632+1071864204+1071915831+1071980748+1071889314+1071487798+1071048647
3623+1070783547+1070671475+1070717224+1070955616+1071128900+1070929036
3615+1070526369+1070358964+1070595440+1070918557+1070856515+1070349125
3606+1069939110+1070137696+1070820989+1071462176+1071662423+1071412657
3598+1070962325+1070577613+1070442731+1070579019+1070792620+1070831532
3589+1070539851+1069930293+1069328018+1069193263+1069595099+1070172455
3581+1070523814+1070558700+1070513527+1070618378+1070876578+1071192922
3572+1071519043+1071795133+1071860817+1071521343+1070819009+1070202102
3564+1070108049+1070548605+1071207299+1071662870+1071610157+1071009608
3555+1070096484+1069349934+1069311980+1070119039+1071251450+1071985732
3547+1071980748+1071412402+1070732431+1070321011+1070275518+1070416534
3538+1070482985+1070363948+1070134885+1069924670+1069840137+1069911827
3530+1070022046+1070008947+1069904799+1069936235+1070232261+1070650390
3521+1070915554+1070890379+1070661124+1070381136+1070149708+1070082043
3513+1070296603+1070683168+1070871850+1070645534+1070239545+1069999172
3504+1069970483+1070022940+1070139421+1070310085+1070359667+1070233219
3496+1070232708+1070555314+1070801565+1070412828+1069460025+1068599231
3488+1068336176+1068587730+1068924265+1069058062+1069086687+1069315047
3479+1069841415+1070436661+1070841947+1070987436+1070883862+1070529181
3471+1069994827+1069439898+1068987458+1068680186+1068492271+1068317071
3462+1068116185+1068124044+1068598081+1069312492+1069692539+1069538297
3454+1069241696+1069160102+1069159335+1068950398+1068570734+1068311129
3445+1068325313+1068490610+1068541534+1068251642+1067613651+1066886269
3437+1066401242+1066351660+1066732666+1067379220+1068052609+1068531950
3428+1068587794+1067991206+1066767297+1065339946+1064252708+1063799884
3420+1063918793+1064274560+1064501451+1064488608+1064374300+1064277691
3411+1064161210+1063893362+1063371340+1062696033+1062192796+1062091778
3403+1062298734+1062614503+1062928867+1063110456+1062986117+1062499173
3394+1061718887+1060761931+1059795966+1058938814+1058133481+1057309299
3386+1056587093+1056109478+1055791153+1055491485+1055302100+1055401840
3377+1055715501+1055924054+1055784572+1055332131+1054846529+1054669476
3369+1054897389+1055160764+1054870617+1053796286+1052296925+1050951424
3360+1050111268+1049742594+1049470528+1048852088+1047833857+1046856711
3352+1046342100+1046233798+1046134058+1045692032+1044833730+1043778440
3343+1042766214+1041686963+1040215014+1038374134+1036612995+1035185580
3335+1033772605+1031910129+1029568376+1027074745+1024604116+1022054576
3326+1019378397+1016688544+1013987189+1011084885+1007828283+1004197512
3318+1000229695+995989365+991565848+987084442+982728845+978533434+974104422
3308+968899085+962927839+956842284+951169875+945730044+940010161+934009395
3298+928445607+924089947+921115952+919235074+918307382+918576061+920249344
3288+923058170+926434255+929985605+933557337+937024665+940340881+943565472
3278+946548603+948879430+950421537+951589027+952820156+954013012+954695156
3268+954542319+953491885+951427756+948126491+943730065+938949247+934456149
3258+930283548+926117656+921971124+918231475+915147837+912571206+910283636
3248+908427485+907416602+907448550+908333943+909839054+911912065+914481476
3238+917321035+920261165+923382118+926926375+931068370+935760630+940766422
3228+945794322+950567601+954911185+958901430+962741074+966383346+969529282
3218+972028983+973986344+975523275+976774787+977987387+979267076+980314572
3208+980709443+980428816+979825391+979083442+977993393+976400426+974525554
3199+972536757+970116669+966852336+962811997+958361836+953648747+948636629
3189+943496912+938641273+934403883+930908377+928186577+926237587+925024795
3179+924559192+924871255+925800417+927013272+928338455+929887974+931813323
3169+934137121+936818093+939799115+942981535+946238393+949448287+952504770
3159+955324522+957844031+960008667+961777089+963123805+964044916+964590452
3149+964864178+964941299+964775619+964189446+963031604+961458956+959999274
3139+959152729+958929096+958876830+958516590+957643209+956234898+954220288
3129+951493440+948179779+944670345+941210301+937597037+933451783+928622469
3119+923179634+917272475+911232222+905669648+901207475+898113230+896291071
3109+895588929+896006547+897604242+900260614+903503798+906630821+909181255
3099+911333176+913613973+916120511+918176334+918872917+917879733+915608265
3089+912649925+909247578+905343975+900903462+895984120+890690161+885326620
3080+880500564+876837462+874661134+874095279+875309860+878334203+882627247
3070+887202131+891339718+894942247+898096426+900614784+902206410+902894751
3060+903073976+903205153+903518941+904019303+904715056+905742361+907257503
3050+909300164+911764148+914481731+917359436+920345187+923260909+925891339
3040+928251877+930473763+932475275+934100573+935454253+936698864+937695052
3030+938234965+938437959+938516806+938328060+937558317+936266359+934899453
3020+933805697+933028031+932583961+932633607+933289809+934461197+935975573
3010+937745401+939732026+941813981+943816132+945690940+947524089+949305099
3000+950859665+952070731+952997529+953744973+954414529+955185614+956229787
2990+957513182+958829484+960022596+961065363+961959637+962695197+963321177
2980+963955654+964647446+965255727+965577566+965632004+965683759+965904772
2970+966165208+966257281+966145082+965885540+965496100+965003213+964466687
2961+963925368+963443855+963172621+963249678+963720712+964589301+965802349
2951+967140183+968263649+968922087+969066426+968808993+968337192+967815553
2941+967299920+966738666+966027834+965023213+963569664+961662589+959565107
2931+957647362+956070113+954714196+953452717+952397874+951782501+951642890
2921+951763524+951979553+952427777+953414955+955078590+957257091+959667659
2911+962130301+964584318+966977059+969223161+971254895+973055010+974633409
2901+975974374+977053625+977984448+979059354+980444981+981901788+983035669
2891+983791420+984484361+985399210+986558138+987842812+989164353+990473818
2881+991687504+992638134+993103162+992956970+992367475+991729866+991305412
2871+991051812+990858913+990709590+990525381+990130318+989491879+988799001
2861+988228994+987730037+987039140+985948324+984600011+983409008+982675876
2851+982477291+982906665+984061248+985731209+987434331+988882831+990203158
2842+991633896+993251335+995059820+997078647+999225840+1001351563+1003435436
2832+1005513175+1007454242+1009039605+1010161538+1010807261+1011062778
2823+1011192293+1011462505+1011904531+1012409621+1012926021+1013439162
2815+1013920930+1014371774+1014795717+1015185221+1015569039+1015938160
2806+1016117897+1015886661+1015230395+1014341743+1013388940+1012470769
2798+1011799360+1011663135+1012064588+1012618941+1013009404+1013341402
2789+1013888408+1014719171+1015726732+1016805663+1017876416+1018862061
2781+1019691929+1020267815+1020526079+1020627289+1020940950+1021665200
2772+1022545929+1023174336+1023494706+1023790093+1024239467+1024754908
2764+1025200512+1025522032+1025687903+1025708158+1025684197+1025745856
2755+1025975495+1026399374+1026988039+1027664943+1028376031+1029129609
2747+1029899416+1030531913+1030875988+1031018538+1031212140+1031558770
2738+1031948913+1032294969+1032585436+1032765939+1032825617+1032911045
2730+1033129119+1033359652+1033437476+1033401695+1033459200+1033763788
2721+1034232714+1034558323+1034504523+1034193290+1033954259+1033933813
2713+1034032403+1034136615+1034189393+1034095148+1033798163+1033428658
2704+1033182279+1033096724+1033129566+1033356840+1033835861+1034362037
2696+1034649884+1034691735+1034681512+1034699083+1034709754+1034710521
2687+1034668989+1034514299+1034320569+1034281465+1034435069+1034599982
2679+1034575446+1034326511+1034062881+1034114380+1034577236+1035191650
2670+1035694951+1036078960+1036381503+1036516450+1036429233+1036214610
2662+1036043243+1036087203+1036408275+1036791773+1036870748+1036571847
2653+1036270198+1036328087+1036648137+1036882824+1036924292+1036906018
2645+1036860333+1036678296+1036323934+1035856542+1035339056+1034891280
2636+1034700170+1034864252+1035321932+1035952959+1036628905+1037183386
2628+1037500561+1037685345+1038035299+1038751754+1039718997+1040602984
2619+1041141428+1041337202+1041446718+1041774819+1042395496+1043035213
2611+1043286703+1042993872+1042413578+1041933023+1041693736+1041630991
2602+1041770538+1042201894+1042778610+1043092910+1042825126+1042069886
2594+1041287683+1040870960+1040805659+1040913514+1041262764+1041971871
2585+1042736695+1043041602+1042877200+1042857457+1043440051+1044270751
2577+1044580642+1044145133+1043485545+1043126774+1043097319+1043218975
2568+1043429125+1043677741+1043868979+1044053699+1044438220+1045065733
2560+1045645772+1045867424+1045831131+1045903588+1046086648+1045874963
2551+1044966440+1043746556+1042784872+1042225343+1041977366+1042079407
2543+1042517152+1043002051+1043241530+1043267982+1043362611+1043732882
2534+1044306213+1044847212+1045221764+1045412108+1045340993+1044956792
2526+1044433172+1044033253+1043857797+1043881886+1044095231+1044491636
2517+1045025351+1045608585+1046110928+1046436345+1046625730+1046790387
2509+1046921436+1046865848+1046584645+1046328874+1046371172+1046600555
2500+1046635506+1046341653+1045995022+1045909339+1046100896+1046387977
2492+1046694481+1047045201+1047260016+1047020154+1046399478+1045909658
2483+1045829534+1045913428+1045894515+1045848000+1045954257+1046243318
2475+1046641832+1047027502+1047209219+1047058810+1046739846+1046608478
2466+1046788790+1047057660+1047242317+1047409019+1047542113+1047412789
2458+1046936388+1046387274+1046171756+1046515319+1047284871+1047971679
2449+1048025862+1047434769+1046858563+1046965013+1047713735+1048528524
2441+1049046904+1049346061+1049511996+1049418071+1049015085+1048563922
2432+1048411213+1048595422+1048809087+1048793433+1048596828+1048349554
2424+1048015766+1047539109+1047005139+1046505352+1046043838+1045695738
2415+1045673055+1046077191+1046716014+1047295350+1047669264+1047767918
2407+1047501028+1046975939+1046584518+1046607392+1046920414+1047269153
2398+1047611119+1048034232+1048518812+1048950359+1049266128+1049417176
2390+1049235203+1048584240+1047694566+1047073890+1046993893+1047290302
2381+1047668433+1047960114+1048144451+1048376965+1048892917+1049603814
2373+1049975427+1049609181+1048785254+1048183555+1048243488+1048868446
2364+1049504840+1049586051+1049192585+1049049077+1049553975+1050220912
2356+1050398029+1049995043+1049286958+1048562005+1048064902+1047919477
2347+1048054103+1048232818+1048168795+1047776863+1047359437+1047310110
2339+1047568437+1047675845+1047483840+1047350875+1047530675+1047881076
2330+1048217164+1048455684+1048415685+1047947207+1047237205+1046728984
2322+1046719081+1047078171+1047417517+1047589650+1047876986+1048539258
2313+1049334815+1049738121+1049524711+1048934896+1048401501+1048242274
2305+1048469357+1048844741+1049160063+1049374494+1049478515+1049438837
2296+1049341205+1049375325+1049564965+1049612823+1049175589+1048360033
2288+1047797757+1048000815+1048742381+1049339544+1049485991+1049487780
2279+1049660808+1049816328+1049540877+1048824486+1048152310+1047974618
2271+1048323229+1048990230+1049801760+1050550163+1050908167+1050684470
2262+1050117721+1049742338+1049966354+1050758077+1051585326+1051736055
2254+1051062345+1050308001+1050241166+1050676547+1050882673+1050623323
2245+1050222701+1050031335+1050347488+1051355496+1052721763+1053709389
2237+1053959154+1053859031+1054119531+1055054890+1056199634+1056790088
2228+1056680508+1056339564+1056023220+1055725021+1055734350+1056250239
2220+1056661467+1056180210+1055006330+1054134866+1054243807+1055094058
2211+1055644194+1054830427+1052818500+1051123749+1050881842+1051658294
2203+1052573718+1053611629+1054887869+1055603046+1054842248+1052934598
2194+1051268215+1050943053+1052033103+1053993019+1056250494+1058080512
2186+1058452061+1056900115+1054486544+1052992167+1052954149+1053259568
2177+1052943351+1052585475+1053311898+1055015084+1056627091+1057673628
2169+1058417494+1058870957+1058638571+1057514274+1055824123+1054548458
2160+1055044348+1057813622+1061523879+1064046008+1064281716+1062938004
2152+1061893831+1062394065+1063888059+1065027052+1065256435+1064899390
2143+1064248683+1063310959+1062287105+1061658889+1061537361+1061491037
2135+1061313281+1061246894+1061276925+1061114184+1060835793+1060657590
2126+1060388273+1059836092+1059339563+1059379562+1060018384+1060903394
2118+1061495318+1061292643+1060105729+1058212072+1056316881+1055251176
2109+1055420817+1056501282+1057736309+1058497235+1058606112+1058273986
2101+1057765254+1057250835+1057022793+1057446737+1058460751+1059458983
2092+1059806892+1059311002+1058327658+1057480218+1057094675+1057075123
2084+1057359265+1057975213+1058652883+1059024433+1059158165+1059351767
2075+1059629136+1059853982+1060048159+1060280290+1060430188+1060258374
2067+1059720569+1059170689+1059086922+1059597380+1060392617+1060893746
2058+1060397537+1058657612+1056632075+1055923224+1057063431+1058989099
2050+1060350830+1060608263+1059878965+1058761761+1058444394+1059736288
2041+1061880222+1063456704+1064221272+1064777350+1065069095+1064614098
2033+1063683148+1063103109+1063365142+1064432253+1065817242+1066869018
2024+1067510843+1068350744+1069739438+1071185958+1071871679+1071455595
2016+1070417045+1069674201+1069723209+1070214178+1070355834+1069677332
2007+1068551502+1067940282+1068306464+1068995764+1069124896+1068568881
1999+1067690069+1066935085+1067096612+1068787850+1071090179+1071980748
1990+1070952421+1069327060+1068135992+1066922945+1065342757+1064175459
1982+1064095015+1064508544+1064475510+1064354109+1065401732+1067681060
1973+1069649027+1069903329+1068423776+1066191986+1064325484+1063517723
1965+1063753240+1064475510+1065076826+1065307359+1065473231+1066173456
1956+1067627388+1069355429+1070558573+1070674223+1069656375+1067954147
1948+1066229237+1064935490+1064149262+1063671008+1063128219+1062184042
1939+1060826784+1059433872+1058632118+1058929166+1060160615+1061483369
1931+1062200655+1062323206+1062232091+1062298798+1062891297+1064115014
1922+1065410742+1066003943+1065783761+1065352661+1065289852+1065584344
1914+1065973976+1066530246+1067524389+1068790341+1069650049+1069702060
1905+1069263548+1068830851+1068552907+1068434191+1068607985+1069016019
1897+1069135438+1068495019+1067387398+1066677652+1066968375+1068113949
1888+1069385907+1070170027+1070366312+1070083705+1069441176+1068689132
1880+1068140912+1067980152+1068248959+1068824014+1069415938+1069846590
1871+1070139102+1070156737+1069628580+1068711431+1067770066+1066727363
1863+1065361351+1063814899+1062402244+1061176290+1060016340+1059029289
1854+1058587838+1058886484+1059672265+1060638166+1061799011+1063212689
1846+1064629753+1065664916+1066300096+1066966138+1067932934+1068990077
1837+1069797966+1070360945+1070893255+1071402243+1071773537+1071980748
1829+1072005795+1071809446+1071439366+1070957341+1070434169+1070034122
1820+1069891828+1069929782+1069940005+1069897515+1070056613+1070573332
1812+1071173498+1071478405+1071578337+1071807273+1072171666+1072478874
1803+1072695861+1072884479+1073030927+1073070542+1072982111+1072839497
1795+1072747616+1072700334+1072614459+1072475807+1072271343+1071980748
1786+1071675074+1071344929+1070765465+1069793110+1068613608+1067625407
1778+1067228427+1067558190+1068325505+1068996850+1069159144+1068819797
1769+1068344099+1068074653+1068023218+1067915107+1067521131+1066869976
1761+1066279267+1066101830+1066328721+1066647366+1066846846+1066938152
1752+1066886269+1066551651+1065849764+1064793452+1063505647+1062188068
1744+1060974382+1060015189+1059631308+1059989759+1060825698+1061903927
1735+1063228982+1064573908+1065538404+1066240035+1066949589+1067652946
1727+1068234774+1068663190+1068966372+1069081958+1068856984+1068310426
1718+1067720930+1067246446+1066697332+1065889635+1064650007+1062876792
1710+1060804485+1058686237+1056415663+1053904588+1051363419+1048798033
1701+1045838351+1042196271+1037893196+1032499369+1024922888+1014416820
1693+999491068+975603335+938545239+892580431+850306839+826386520+834371163
1683+866746648+897415368+916965587+927499130+930054931+924224510+911001561
1673+892996260+870537668+841890522+810220886+783749557+765736717+755311668
1663+752896563+758357352+768330600+779173778+788989142+797541747+807080189
1653+819850314+830630237+835541912+838188955+842357020+849084016+856262304
1643+862455074+868168632+873832479+879482397+885943718+894637851+904314434
1633+911749835+916979196+921922883+927560150+933268021+937528222+939149175
1623+937613586+933191730+926676801+917960049+905426208+888311540+869568188
1613+852203691+836627999+823140589+812328144+803296837+793746702+782241251
1604+769898201+760217081+756534363+758145221+758657084+748626458+721665439
1594+680472439+636427933+602069082+584226395+582835017+593933392+613124456
1584+637213522+663813918+690350547+715289609+740544504+769150118+797238949
1574+817262501+829734939+839297023+847893268+854198302+857470686+859063717
1564+860378166+862044485+865267861+872724475+882792224+887084500+883958819
1554+875560073+862216746+843142992+818215688+789367592+758819505+727233252
1544+696050495+668517104+646606986+631463992+623760807+620962204+621234142
1534+625095382+632359161+640633887+648663895+657459238+667700206+678035355
1524+687098482+696159756+706841791+717434501+726145055+734617217+744690844
1514+756113167+768088566+779983776+791219845+803154606+819219351+837104720
1504+849690188+857505254+864103757+871164989+879057112+887536366+895418904
1494+901437177+905766385+909480923+913297245+916726619+918511974+917903119
1485+914322697+906836052+894983779+878727541+855958547+822079548+774791538
1475+719127720+668580296+639333687+634942182+645773284+664484561+689627192
1465+719134620+746651591+767777397+784252092+801023515+822237688+844638903
1455+861058648+871833203+880290350+887866703+894705644+900709924+905760507
1445+909885187+913349128+916230091+918165535+918522070+916146516+909048162
1435+895768346+875951622+848898976+815747550+783508162+761022478+749467509
1425+741660878+728673382+706175174+675366779+642200146+617745537+608886874
1415+612284492+622841165+637735289+654766893+671717734+687114647+700537205
1405+711552452+718930923+722235574+723096496+724035944+727065080+733486850
1395+744030872+757696294+771620747+783936578+794900774+805003089+813414423
1385+818655477+820168384+818154796+812626789+803382520+790615270+775131907
1375+758272372+742247945+729700494+721971240+719030088+720709122+726613278
1366+736019649+748723068+764571272+781968611+798757670+814242822+828849226
1356+842871375+856154385+868476222+879848004+890341422+899830345+907966483
1346+914156122+917502369+916952233+911532784+900909404+886543693+871951920
1336+860968300+856008576+857532856+864268415+874134255+885257358+896205835
1326+905671118+912278056+914697185+911758014+902306469+885252949+860282451
1316+828451160+792239482+755793053+724576752+703239837+693545555+694496249
1306+703851759+719446811+739726647+763661343+790398027+818625702+845304945
1296+864404831+868255848+853140073+824980574+797589285+782291728+778142321
1286+773095572+755561817+725102352+692758815+672024877+669421027+682503726
1276+704543359+729533792+754053702+776916942+798167407+818054800+836332421
1266+851666015+860749141+858308670+840435121+810357813+780007928+762659724
1256+763377329+777581834+797223358+816507007+833084125+846631278+857535412
1247+866345259+873581180+879584310+884409343+887843318+889473727+888873625
1237+886025632+881569081+876455050+871395522+866637259+862073685+857537776
1227+853103142+849180626+846451669+845723521+847562420+851825560+857617773
1217+863837635+869827155+875580583+881440524+887686327+894400737+901508165
1207+908749772+915720081+922066966+927639444+932452081+936564813+940006071
1197+942845503+945312745+947710918+950240714+953010819+956067493+959298537
1187+962481660+965510923+968473353+971513862+974676793+977873590+980959847
1177+983701200+985532432+985003892+978632024+961010541+929782547+892718317
1167+866158111+862023207+877636342+900519197+920449975+934527008+944038870
1157+950748807+955837982+959969435+963435421+966361750+968917167+971398084
1147+974023275+976657667+978971690+980832185+982340939+983614494+984732274
1137+985813506+987009237+988374355+989760941+990897314+991543548+991527255
1128+990769652+989419039+987931946+986990516+987182457+988510707+990309480
1118+991847880+992868092+993488513+993904661+994254742+994544059+994713125
1108+994819702+994985765+995214318+995400636+995385684+994829478+992855441
1098+987561674+976533775+959495206+940897982+928208876+926269087+933776434
1088+945551393+957092497+966490945+973536650+978550621+981728441+982322281
1078+978140479+967189062+951303927+937036997+929952699+928105941+924711518
1068+917803059+913293220+917151905+928205490+940504069+949831594+955746804
1058+959314639+961349504+962424921+962974227+963080292+962611495+961456145
1048+959485494+956574564+952768912+948330636+943726935+939586984+936460664
1038+934607644+934063067+934799137+936839497+940166831+944373552+948628514
1028+952215965+954860388+956485814+956965921+955979957+952916190+947177458
1018+938652263+927794069+915498237+902974236+891523607+882420482+876767242
1009+875124692+877448299+883392262+892438073+903277418+910939455+903968059
999+871403957+819679267+776733052+768923354+796124811+836522445+870743985
989+893640514+908249027+918322717+926696033+935366589+945043620+955084468
979+964182354+971272786+975738921+976959891+974398467+968212022+959037590
969+946894786+931023069+911977110+893995387+883518902+883992620+893046482
959+905457708+917581535+928517170+938796155+949082488+959512586+969631706
949+978835913+986769823+993379444+998791353+1003216915+1006927172+1010179876
939+1013078155+1015619324+1017913156+1020155041+1022398395+1024552169
931+1026540199+1028337055+1029943376+1031416348+1032840377+1034227538
922+1035493938+1036584562+1037573913+1038598278+1039718038+1040852686
914+1041798652+1042376263+1042628393+1042745640+1042751519+1042420478
905+1041521859+1039962437+1037630651+1034216995+1029313307+1022537942
897+1013191824+999989449+982106508+961095904+941446074+928720547+926324867
887+932861265+942407247+948572159+948999041+945108026+936676373+918268982
877+884449213+839337852+797446416+772567032+767858671+777657166+795208684
867+816438447+839185590+861999502+883687585+903166305+919612119+932734881
857+942905756+951003940+957897447+963970925+969145337+973146955+975761859
847+977078288+977414823+976955993+975696111+973693449+971075030+967801688
837+963634326+958457615+952644189+946923156+941817368+937409888+933589541
827+930208024+927113971+924318691+922055209+920610607+920173181+920766255
817+922319990+924836560+928223125+931926161+935171582+937680867+939848506
807+942193709+944793215+947284802+949441195+951511202+953759860+956007176
798+957899619+959212023+959662994+958741948+955668980+949086258+936774900
788+916289961+886669502+849725139+809202079+768762466+731087975+697749656
778+668944945+645053315+629763489+629471106+647378008+679105214+715411201
768+748457200+774961562+795040065+809868760+820482236+827662312+832006152
758+833921086+833765438+831989923+829050879+825254748+820819730+816151814
748+811952249+808862349+807080573+806497786+807035974+808670792+811343521
738+815033332+819757602+825387969+831537290+837695621+843561760+849299151
728+855378827+862037137+868850519+874996263+880162304+885039476+890522883
718+896672333+902940819+908891363+914234202+918908251+923391638+928191113
708+933088859+937506625+941253366+944503451+947503578+950480384+953532522
698+956572264+959206976+960256707+957289358+946603553+924207897+889123646
688+847645867+812124063+790870339+778539812+760231266+727399379+688301562
679+661137356+658259715+678522171+711864069+746914135+777047032+803109944
669+829461852+854083036+870559392+879958543+885020946+883605480+871461270
659+850049279+829929691+823836086+835740242+858469557+881710481+899757505
649+912285212+921396196+929279885+937091883+944866566+952124850+958437807
639+963776429+968502617+972853421+976754852+980293422+983787522+987335549
629+990730037+993669719+995928217+997632361+999315420+1001342682+1003238575
619+1003582842+1000416204+991314037+972907859+941864650+898564329+850168123
609+809005794+787065262+790186087+814772959+849790248+883782661+910739080
599+930246105+944465945+955646681+965097778+973392759+980835188+987367752
589+992680369+996810096+1000147653+1003041907+1005773547+1008420590+1010770586
579+1012936372+1015535430+1018692419+1021554406+1023202386+1023600644
571+1023671056+1024633316+1026874434+1029546460+1031640748+1032918073
562+1033180043+1030931832+1023860250+1011785494+998422871+988136921+981614644
552+977526320+977112664+982837850+992849882+1000928323+1002342512+996468450
543+983126975+959367927+921781483+871862595+818750872+776277992+755912089
533+760835713+785508076+820074777+855899380+888101006+914349213+933565069
523+946434359+955503108+963789144+972952650+982487130+991077434+998388048
513+1004761322+1010124096+1014219959+1017235485+1019527016+1021415498
504+1023529465+1026390173+1029529336+1032062710+1033964035+1035734630
496+1037484843+1039121834+1040602793+1041517514+1041565180+1041696037
487+1043248686+1045850811+1047728367+1048337222+1048966077+1050445183
479+1052005756+1052487652+1051668773+1050520643+1050561217+1052471423
470+1055411297+1058410466+1061275519+1063582321+1064384715+1063558680
462+1062100723+1060711262+1059562046+1059870787+1063228471+1068428376
453+1071980748+1072625449+1071206213+1069991440+1068874172+1066294154
445+1061489248+1053286084+1036972341+1005320915+954454719+890017985+830637521
435+800877323+812628195+856131894+910095912+956825416+990088914+1011881273
425+1025388874+1033127585+1038307619+1044082772+1051010590+1056129030
416+1058020067+1059515914+1062909954+1067059553+1068766764+1065837560
408+1057468845+1042694396+1020904529+994200879+967955356+948447500+940062491
398+942692538+950871933+959880301+970079546+983159114+998999715+1015509936
388+1030392558+1042773562+1052264530+1058099361+1061470718+1065258096
380+1069727298+1071980748+1071702166+1070036295+1071980748
##END=
