##TITLE=JPK-145, X12105
##JCAMP-DX=4.24
##DATA TYPE=INFRARED SPECTRUM
##DATE=5/3/2019
##SAMPLING PROCEDURE=Diamant-ATR
##ORIGIN=Angelika Moesle
##XUNITS=1/CM
##YUNITS=TRANSMITTANCE
##RESOLUTION=4
##FIRSTX=3997.453
##LASTX=373.96442
##DELTAX=-1.4165319
##MAXY=0.96436191
##MINY=0.42790461
##XFACTOR=1
##YFACTOR=8.9813201e-010
##NPOINTS=2559
##FIRSTY=0.96190029
##XYDATA=(X++(Y..Y))
3997+1071001010+1070983755+1071055495+1071232757+1071402320+1071309342
3989+1070959001+1070715374+1070806361+1071067043+1071273505+1071393958
3980+1071433445+1071374313+1071356395+1071579382+1071950031+1072141893
3972+1072064975+1071943992+1071910544+1071856323+1071690676+1071422627
3963+1071073149+1070776496+1070814125+1071269058+1071774097+1071786640
3955+1071100425+1070127379+1069652006+1070144103+1071283327+1072307540
3946+1072764530+1072616071+1071852076+1070567114+1069281356+1068612861
3938+1068681814+1069134822+1069617297+1070075349+1070572225+1070973269
3929+1071050452+1070864231+1070778222+1071067441+1071556287+1071815044
3921+1071729765+1071539629+1071351418+1070964177+1070298203+1069662226
3912+1069383161+1069449924+1069601170+1069713526+1069983831+1070597908
3904+1071233885+1071246362+1070625250+1070158372+1070419187+1071136527
3895+1071715762+1071900124+1071835020+1071764607+1071706537+1071524763
3887+1071192208+1070763223+1070278028+1069762305+1069272198+1068932740
3878+1068877126+1069122943+1069515559+1069725737+1069580066+1069467909
3870+1069940760+1070850759+1071589336+1072011286+1072290683+1072377422
3861+1072148529+1071732818+1071306223+1070938892+1070826536+1071387387
3853+1072433965+1072742563+1072108245+1071393360+1071206343+1071636920
3844+1072325857+1072711836+1072516590+1071949965+1071324473+1070707145
3836+1070097249+1069708018+1069839487+1070503802+1071234150+1071535050
3827+1071443400+1071313788+1071243972+1071107459+1071011031+1071181855
3819+1071426012+1071437493+1071282464+1071219948+1071310669+1071333963
3810+1071096244+1070726125+1070590608+1070645492+1070332447+1069603957
3802+1069166611+1069484102+1070061744+1070409630+1070600629+1070723205
3793+1070713516+1070598306+1070520327+1070566252+1070668321+1070702300
3785+1070646288+1070562203+1070465310+1070350565+1070241992+1070086631
3776+1069792899+1069475275+1069421188+1069820109+1070539042+1071087882
3768+1071099827+1070847374+1070767139+1070704888+1070202305+1069355221
3759+1068846134+1068989350+1069163094+1068763377+1068039532+1067873819
3751+1068924445+1070453896+1071185704+1071084563+1070861709+1071068835
3742+1071466694+1071400793+1070683054+1069698926+1069171788+1069483505
3734+1070169587+1070684514+1070970946+1071111574+1071198778+1071253396
3725+1071085692+1070634674+1070319241+1070492985+1070890379+1071107127
3717+1071182784+1071373849+1071768456+1072249006+1072514466+1072249006
3708+1071591394+1071019061+1070793486+1070793619+1070713516+1070383283
3700+1069948392+1069661629+1069610594+1069665611+1069526509+1068978665
3691+1068330477+1068469910+1069779559+1071093921+1071280805+1070594523
3683+1069873466+1069654793+1069781617+1069607674+1068820451+1068110609
3674+1068492607+1069723746+1071057818+1072323866+1073362679+1073741823
3666+1073317418+1072311256+1071107393+1070117225+1069559161+1069387142
3657+1069442226+1069591083+1069815596+1070224670+1070852883+1071417650
3649+1071429463+1070886862+1070311277+1069990202+1069901539+1069848314
3640+1069610793+1069213133+1068924976+1068946943+1069223818+1069463529
3632+1069359667+1069029103+1069227534+1070366758+1071439882+1071525958
3623+1070668122+1069375993+1068435400+1068567533+1069470563+1069948990
3615+1069508591+1068687190+1068129391+1067939918+1067942506+1068071056
3606+1068296564+1068596004+1069054454+1069673906+1070143240+1070146293
3598+1069898619+1069879572+1070080791+1070041436+1069675101+1069434992
3589+1069587233+1069813804+1069619354+1069040650+1068539195+1068392661
3581+1068543244+1068770080+1068931148+1069032355+1069082925+1069028572
3572+1068821114+1068434737+1067879725+1067358095+1067279585+1067739164
3564+1068257276+1068420402+1068240552+1067940051+1067667821+1067439061
3555+1067234921+1067059850+1067007621+1067238505+1067709897+1068088377
3547+1068139412+1068031701+1068033559+1068112600+1068062760+1067765179
3538+1067297305+1066950481+1066951675+1067122433+1067126945+1066923337
3530+1066683693+1066529062+1066505370+1066523819+1066321339+1065836144
3521+1065477241+1065627160+1066061453+1066240175+1066073731+1066040747
3513+1066491234+1067166101+1067554735+1067466337+1067077039+1066637237
3504+1066373701+1066515125+1067157341+1068076365+1068785277+1068859142
3496+1068269355+1067390415+1066672344+1066353725+1066343439+1066266322
3488+1065851739+1065315310+1065093053+1065287570+1065643419+1065950225
3479+1066232078+1066537158+1066709575+1066512139+1065963565+1065377693
3471+1065011225+1064882410+1064918181+1065069361+1065316173+1065689543
3462+1066155559+1066435487+1066204669+1065538231+1064899334+1064620600
3454+1064587550+1064478048+1064132020+1063636405+1063214389+1063078208
3445+1063245183+1063511705+1063703168+1063852291+1064065788+1064348968
3437+1064636461+1064873053+1065033657+1065170833+1065359775+1065483612
3428+1065242441+1064606862+1064082910+1064235483+1065030073+1065834285
3420+1066001924+1065367606+1064311869+1063449853+1063116235+1063122938
3411+1063154661+1063245979+1063623729+1064239332+1064737403+1064858718
3403+1064708136+1064545408+1064397414+1064095386+1063668194+1063327210
3394+1063055445+1062689375+1062413960+1062639601+1063316724+1063837624
3386+1063736285+1063216845+1062841285+1062879843+1063176561+1063467108
3377+1063537654+1063215385+1062537266+1061840498+1061472238+1061533361
3369+1061960951+1062613719+1063230251+1063546215+1063520200+1063386540
3360+1063446269+1063710402+1063775905+1063304248+1062588102+1062270876
3352+1062477338+1062654799+1062395776+1062032095+1062129054+1062665948
3343+1063142118+1063298872+1063258655+1063130238+1062968706+1062952446
3335+1063166275+1063402203+1063463989+1063395964+1063235427+1062854757
3326+1062228071+1061595678+1061249252+1061295973+1061686000+1062315474
3318+1063023457+1063585503+1063807959+1063649612+1063250359+1062831993
3309+1062525851+1062327950+1062217983+1062166617+1062016499+1061679298
3301+1061481662+1061844281+1062534744+1062786799+1062265700+1061413240
3292+1060816551+1060718331+1061103779+1061764776+1062250569+1062162104
3284+1061577693+1060963882+1060682825+1060807525+1061313758+1062091890
3275+1062736494+1062711541+1061958496+1061120702+1060902029+1061301083
3267+1061687328+1061595412+1061164570+1060738970+1060359096+1059847355
3258+1059181447+1058586484+1058325470+1058506248+1059090991+1059991566
3250+1060995140+1061670471+1061649566+1061068208+1060468930+1060222915
3241+1060277135+1060425926+1060565359+1060667495+1060706849+1060668092
3233+1060555802+1060363410+1060055808+1059632332+1059214099+1059034647
3224+1059267722+1059801563+1060248532+1060336864+1060211832+1060128477
3216+1060014130+1059641225+1059060530+1058543545+1058267334+1058282863
3207+1058541422+1058821151+1058891830+1058804161+1058771510+1058795666
3199+1058681850+1058410483+1058216299+1058200637+1058104075+1057680467
3190+1057159302+1057032478+1057399344+1057837089+1057955152+1057768202
3182+1057470289+1057224671+1057243585+1057650005+1058154911+1058315249
3173+1058150266+1058046603+1058125644+1058206543+1058236275+1058235545
3165+1058050585+1057600032+1057092406+1056714390+1056452380+1056363053
3156+1056596990+1057074885+1057507586+1057745571+1057827267+1057744244
3148+1057449118+1057101099+1057027766+1057309818+1057595984+1057499954
3139+1057019669+1056413424+1055862461+1055454381+1055298822+1055414961
3131+1055616379+1055705905+1055701392+1055754551+1055928494+1056133297
3122+1056170660+1055836180+1055162574+1054529849+1054279851+1054260141
3114+1053990632+1053204471+1052041688+1050875188+1050072568+1049745786
3105+1049684796+1049640796+1049545961+1049364651+1048980729+1048383907
3097+1047774675+1047360889+1047111820+1046729093+1045833296+1044241263
3088+1042121959+1039909412+1038039044+1036722294+1035910051+1035388753
3080+1034860022+1034054084+1032892097+1031462326+1029733648+1027432304
3071+1024317258+1020458988+1016142070+1011593138+1006941872+1002436676
3063+998565067+995865997+994704740+995246479+997452323+1000979496+1005208150
3053+1009491355+1013412870+1016855694+1019849226+1022351855+1024238217
3044+1025487209+1026258371+1026751199+1027003652+1026808538+1025925351
3036+1024463858+1022926776+1021811244+1021272758+1021127882+1021111291
3027+1021246212+1021897386+1023258402+1025021458+1026799181+1028505694
3019+1030076357+1031292564+1032135003+1032908157+1033841052+1034790272
3010+1035387625+1035392934+1034938001+1034403961+1034025878+1033741238
3002+1033404900+1032903578+1032081115+1030858271+1029485110+1028429307
2993+1027914248+1027667436+1027162331+1026013219+1024129245+1021611751
2985+1018591208+1015116463+1011117500+1006433051+1000857716+994151122+986038251
2975+976232339+964466267+950539213+934369682+916019990+895700780+873761929
2965+850701176+827265327+804513702+783532567+765001366+749290484+737063771
2955+729488192+727711266+732266767+742814309+757960159+775241239+791728726
2945+805040973+813931046+818113377+817716845+812908293+803992935+791824889
2935+777933208+764024936+751331942+740424568+731444304+724249196+718395261
2925+713266896+708436444+703960050+700405998+698588855+699059582+701697065
2915+705856500+710916708+716554890+722580246+728775630+734965306+741092931
2905+747195337+753330461+759516554+765745518+772094205+778815400+786280547
2895+794770439+804220501+814180845+824115970+833700023+842753421+851061339
2885+858437491+864837611+870173898+874022744+875595398+873934478+868178963
2876+858029080+844416133+829918604+818300792+813007907+815301553+823425241
2866+833613018+842080412+846372178+845531133+839775219+830253350+818758977
2856+807279270+797594341+791006209+788061920+788439272+791340490+796140215
2846+802610085+810675240+820258231+831345521+843961532+858003397+873090513
2836+888466715+903112172+916170970+927293566+936507634+943920752+949698898
2826+954163213+957690254+960526235+962808399+964705579+966402535+967985609
2816+969466215+970879792+972297882+973818108+975568621+977623219+979941088
2806+982430842+984948137+987232292+989079433+990610078+992164947+993933909
2796+995808060+997521011+998844265+999730239+1000357522+1001040154+1002019770
2786+1003252834+1004428558+1005312077+1006023843+1006836219+1007788094
2778+1008676457+1009325973+1009719585+1009938789+1010097003+1010290590
2769+1010556183+1010871949+1011206761+1011565398+1011984892+1012468229
2761+1012949841+1013379621+1013806814+1014290217+1014778399+1015183160
2752+1015516246+1015809448+1015964875+1015882847+1015705055+1015687336
2744+1015832609+1015898841+1015768500+1015553477+1015328566+1015030852
2735+1014643081+1014255906+1013926404+1013621655+1013328387+1013172628
2727+1013412671+1014211309+1015397984+1016602046+1017607080+1018374128
2718+1018825212+1018938032+1018953894+1019149472+1019471873+1019678468
2710+1019734746+1019825533+1020052369+1020333757+1020577649+1020805680
2701+1021099611+1021518176+1022041996+1022550618+1022901822+1023076827
2693+1023168676+1023226613+1023241678+1023249045+1023276055+1023229600
2684+1023024531+1022794112+1022792054+1023062492+1023330807+1023283156
2676+1022907994+1022485647+1022258081+1022221646+1022253435+1022299094
2667+1022364862+1022423794+1022440452+1022477882+1022680296+1023089835
2659+1023535078+1023797884+1023845800+1023818922+1023852702+1024011779
2650+1024319381+1024703835+1024979117+1025028161+1024980644+1025041102
2642+1025151003+1025022254+1024569312+1024118561+1024085312+1024554181
2633+1025238870+1025782600+1026054896+1026184772+1026315711+1026388912
2625+1026282263+1026096374+1026111107+1026426341+1026818692+1027024889
2616+1027069287+1027225178+1027662724+1028203799+1028500119+1028413247
2608+1028091044+1027718537+1027403634+1027258494+1027317426+1027395007
2599+1027268581+1026967284+1026711977+1026631742+1026656628+1026653244
2591+1026623114+1026708592+1026915320+1026935561+1026486734+1025757182
2582+1025255793+1025265350+1025643698+1026084561+1026370528+1026434703
2574+1026397804+1026522571+1026935959+1027420757+1027693716+1027797910
2565+1027953403+1028148981+1028225500+1028259744+1028527992+1029145520
2557+1029983446+1030857674+1031601361+1032027757+1032053042+1031887727
2548+1031876378+1032080717+1032245700+1032234086+1032184777+1032194201
2540+1032226919+1032344053+1032611505+1032824603+1032741514+1032507643
2531+1032451499+1032540826+1032382014+1031728849+1030786729+1030015235
2523+1029737099+1029913431+1030252490+1030523658+1030716913+1030874995
2514+1030920588+1030788787+1030578608+1030360134+1029986698+1029379590
2506+1028844288+1028758279+1029037079+1029251239+1029216862+1029136229
2497+1029151294+1029107426+1028872892+1028618514+1028569006+1028676982
2489+1028788675+1028974231+1029396579+1029947277+1030333256+1030460412
2480+1030444418+1030342747+1030178891+1030070517+1030039193+1029935862
2472+1029810498+1029988622+1030478264+1030750494+1030469969+1030071313
2463+1030231651+1030987218+1031683853+1031766146+1031413017+1031291104
2455+1031764221+1032505453+1032913201+1032800446+1032568633+1032685900
2446+1033114884+1033401449+1033253787+1032816109+1032420572+1032269459
2438+1032311269+1032303372+1032087419+1031802580+1031692082+1031784131
2429+1031918520+1031956348+1031817380+1031448522+1030898156+1030388207
2421+1030246252+1030696937+1031602290+1032436766+1032677870+1032254593
2412+1031552848+1031040311+1030918929+1031036727+1031057765+1030773523
2404+1030293371+1029914161+1029832731+1029971168+1030041914+1029831271
2395+1029456640+1029254093+1029437128+1029953847+1030559694+1030897095
2387+1030714723+1030162366+1029672193+1029482986+1029526389+1029749575
2378+1030222427+1030872805+1031401470+1031594061+1031624855+1031935311
2370+1032749544+1033714891+1034119984+1033562053+1032392765+1031394435
2361+1030995713+1030960739+1030911230+1030856280+1030981445+1031139659
2353+1030895767+1030103102+1029142533+1028485917+1028309186+1028538876
2344+1029101188+1029931349+1030720696+1031029360+1030743924+1030184930
2336+1029795566+1029804924+1030102770+1030415416+1030580002+1030537927
2327+1030236894+1029776519+1029440314+1029330678+1029152024+1028600596
2319+1027830561+1027345565+1027555876+1028465145+1029673123+1030740606
2310+1031570701+1032257845+1032678799+1032599294+1032159094+1031802381
2302+1031649144+1031330392+1030581396+1029673587+1029098998+1029061502
2293+1029394654+1029830607+1030217051+1030503218+1030601770+1030379778
2285+1029842287+1029262787+1029055529+1029462347+1030325226+1031184721
2276+1031643304+1031583111+1031059225+1030218378+1029477213+1029497454
2268+1030589160+1032235812+1033575989+1034305077+1034771955+1035271087
2259+1035667354+1035741085+1035592162+1035538472+1035672795+1035729206
2251+1035520421+1035238568+1034995208+1034392811+1033134197+1031876047
2242+1031805368+1033278541+1035333404+1036658915+1036744393+1035954250
2234+1034882254+1033980684+1033468411+1033168972+1032699903+1032143498
2225+1032094189+1032668844+1033045135+1032564518+1031931860+1032558877
2217+1034648251+1036536338+1036426770+1034473312+1032515740+1031955950
2208+1032625309+1033561654+1034028865+1033781190+1033086679+1032618473
2200+1032840730+1033536502+1034184027+1034498929+1034424069+1034048907
2191+1033663923+1033455603+1033320085+1033434565+1034415110+1036219976
2183+1037620612+1037610657+1036742203+1036312423+1036687585+1036987953
2174+1036389008+1035539534+1036218317+1039225653+1042892658+1044173704
2166+1041611147+1037093208+1034177456+1034803545+1038109192+1041878731
2157+1044311809+1044826272+1044031616+1042978069+1042359613+1042491215
2149+1043537528+1045105337+1046049779+1045387588+1043239548+1040591580
2140+1038273977+1036401750+1034921210+1034329499+1035118846+1036765099
2132+1038220685+1039154443+1039878486+1040452080+1040566294+1040052230
2123+1039060868+1037799930+1036312953+1034658736+1033322541+1033086148
2115+1034138699+1035515643+1035850853+1034753041+1033120658+1032006255
2106+1031556631+1031317053+1031061879+1030832986+1030658446+1030744720
2098+1031469228+1032752000+1033865872+1034167833+1033687947+1032924018
2089+1032393628+1032406835+1032953617+1033638439+1033882463+1033423150
2081+1032605067+1032032336+1031976722+1032184180+1032252536+1032187365
2072+1032437628+1033273829+1034415574+1035355504+1035625477+1034910725
2064+1033650451+1033078981+1033736062+1034574054+1034413915+1033516062
2055+1032908622+1032855662+1032765406+1032306690+1032000680+1032552042
2047+1033785703+1034738441+1034720058+1033772098+1032535384+1032128566
2038+1033534312+1036649159+1040050306+1041883377+1041348474+1039611168
2030+1038666593+1038933978+1038944663+1037853819+1036892985+1037402669
2021+1038738997+1039520778+1039987060+1041417427+1043613516+1044736148
2013+1043790644+1041836656+1040552623+1040352201+1040153835+1038919245
2004+1036986692+1035364861+1034378078+1033858572+1034019640+1035096083
1996+1036405666+1036630046+1035164439+1032897804+1031329729+1031041771
1987+1031642972+1032703354+1033771302+1034068087+1033457129+1033248743
1979+1034660263+1036905528+1038346447+1038842792+1039031535+1038631353
1970+1037143978+1034978284+1032767197+1030496780+1028161458+1026415524
1962+1025859052+1026218353+1026640900+1026618601+1026347964+1026126836
1953+1025669514+1024451713+1022658793+1021166042+1020537432+1020601872
1945+1021009553+1021648981+1022367981+1022719119+1022476555+1022191981
1936+1022659523+1023799610+1024665542+1024667068+1024049740+1023263247
1928+1022670606+1022705116+1023652611+1025348107+1027232943+1028661187
1919+1029219517+1028892735+1027991497+1026906294+1025975722+1025399407
1911+1025057693+1024662688+1024189837+1023868364+1023807441+1023898892
1902+1023937649+1023736297+1023268357+1022734383+1022466799+1022704386
1894+1023317600+1023830403+1023832593+1023259265+1022358358+1021501385
1885+1020922350+1020582428+1020363622+1020355459+1020723453+1021403430
1877+1022178376+1022893859+1023466258+1023920726+1024424836+1025036258
1868+1025475462+1025442611+1025012233+1024455563+1024020075+1023832328
1860+1023785540+1023683139+1023526517+1023403609+1023204115+1022792519
1851+1022325839+1022061507+1022036421+1022205055+1022630256+1023209757
1843+1023559700+1023586843+1023580008+1023687785+1023805583+1023802264
1834+1023622879+1023254487+1022737502+1022167094+1021620909+1021083683
1826+1020444189+1019633605+1018851758+1018499558+1018804240+1019630752
1817+1020594041+1021328172+1021688469+1021708644+1021428450+1020840787
1809+1020026022+1019220615+1018673700+1018510309+1018737411+1019285056
1800+1019989787+1020644280+1021148323+1021524215+1021824783+1022133049
1792+1022528983+1022866516+1022838245+1022333140+1021492426+1020576654
1783+1019824803+1019340802+1019084766+1018939426+1018772319+1018470158
1775+1018010314+1017561819+1017325227+1017103435+1016456972+1015262864
1766+1013741178+1012178943+1010778838+1009691313+1008940259+1008312909
1758+1007587671+1006735941+1005816187+1004772728+1003421866+1001663256
1749+999731766+998001959+996517437+995101604+993719351+992474275+991330671
1740+990081015+988666708+987260697+986119283+985560754+985634817+986032013
1730+986651332+987517264+988523691+989568477+990593420+991464596+992147294
1720+992906842+994060069+995412591+996369974+996854107+997169541+997500703
1710+997915750+998476602+999237611+1000107326+1000865548+1001529597+1002378805
1700+1003321654+1003746259+1003662307+1003613727+1003685203+1003666620
1691+1003608750+1003593884+1003446554+1003038010+1002642208+1002639620
1683+1002694305+1002146594+1001056015+999858324+998960072+998561616+998491866
1673+998402870+998226206+998151479+998196209+998059431+997632106+997188787
1663+997097468+997429825+997846598+997968179+997613988+996877601+996263192
1653+996414571+996733257+996342963+995580295+994999600+994692794+994176806
1643+993213648+992003082+990752896+989578565+988666177+988339860+988575722
1633+988824392+988882129+988957321+989242160+989714746+990247061+990914561
1623+991878714+992880363+993423097+993386729+992869413+991716584+989581220
1613+986436309+982657810+978932205+975973382+973947653+972390993+970752637
1604+968844175+966949052+965564477+965002630+965314147+966417401+968058611
1594+969747670+970988897+971608946+971800343+971854829+971861797+971648301
1584+970952263+969702010+968220741+967035592+966472020+966361057+965924308
1574+964607757+962821208+961502466+961516934+962648990+963760606+964041198
1564+963057401+960299466+953962525+940091086+921372005+911135715+911231746
1554+916642428+924063244+931662117+938737303+944990292+950367659+955306154
1544+960132159+964805459+969827573+975344042+979387735+981320420+982535699
1534+984138549+986045286+987355333+987796993+987693331+987073812+985606546
1524+982815959+977741814+969659935+960209342+952055192+946541245+944481338
1514+946077751+950355581+955770909+960928342+965183275+968497948+970327900
1504+970323852+968906094+965802263+959950850+951023745+941851354+937484529
1494+939198674+944034103+949452882+954352686+958031570+960200250+961133277
1485+960968891+959514632+956658808+952424978+946297088+936860697+922869933
1475+905352791+889131694+879471653+874331143+866554942+851383608+828939852
1465+806355202+793376439+791130710+793719813+795916631+795130138+792510905
1455+791915677+795378012+803101253+813642159+822837578+825287248+819865084
1445+812821289+812552244+822409125+838805293+856416739+873333807+889154855
1435+901679614+909847502+915120875+918716007+920600179+920427364+918177918
1425+913886948+907808367+900590960+892717335+884896338+879223845+877382213
1415+878778004+882353757+887574370+893894985+900526785+906846205+912672533
1405+917821405+921731837+924170888+925748984+927238085+928803904+930137246
1395+931127347+931895922+932384966+932386028+931703131+930044998+927084914
1385+922740786+916877693+908606275+896399273+879687870+860940120+845764340
1375+840472717+848048893+864884531+883971275+900892855+914170593+923378820
1366+928996695+932046106+933026252+931963017+929495495+927055913+926037938
1356+927002887+929333896+931726160+933144913+933273993+932223367+929998012
1346+926327224+921030092+914353163+906829548+898843500+890066646+879190729
1336+864656567+845759761+823112131+798477396+774402318+753796278+739254351
1326+732340698+733528368+742696578+759298810+781858506+807377424+831897745
1316+852429191+868083131+879250391+886482796+890323877+891462835+890468089
1306+887512119+882803646+877451432+873536752+872820938+875207096+878611295
1296+880454122+879438935+876181535+872424340+869752148+868930747+870147817
1286+873454127+878770173+885671947+893352118+900673718+906248720+908902595
1276+908554577+906623219+905134582+905175132+906227616+906980197+906614259
1266+905295717+903750870+902635736+902221883+902406909+902844256+903108787
1256+902842596+901817587+900014778+897759426+895719097+894675173+895257328
1247+897740844+901875059+906855828+911564235+915043626+917106851+918701207
1237+921385079+926002897+931849599+937286562+941070104+942996219+943534639
1227+943224648+942420634+941279950+939779169+937819938+935450438+932979996
1217+930774948+928851753+926677366+923377825+918102262+910288233+900068003
1207+888901208+879595224+874879650+875433799+879386373+883888252+887130653
1197+889007060+890324740+891725708+893183351+894153211+894010327+892385576
1187+889269800+885004248+880186140+875434994+871254455+868208761+867098605
1177+868646306+872871309+878887440+885416574+891480223+896614495+900663829
1167+903604734+905488176+906312962+905879929+903931715+900600583+896667454
1157+893192709+890856789+889725596+889541831+890047997+891037501+892245280
1147+893313560+894003624+894513375+895510843+897772434+901716314+907116444
1137+913085921+918332682+921544422+921498431+916665656+905356043+887991077
1128+869940492+860011473+863685513+878176869+895386342+908884743+917109174
1118+921492060+923710314+924605115+924385778+923200962+921501815+919948672
1108+919119971+919299223+920366839+921871137+923321149+924469332+925319270
1098+925927838+926294970+926389342+926073974+924962160+922568038+918619711
1088+912978542+905173738+894138412+878384260+856470296+827853454+794281593
1078+760836954+734570898+720156127+715969085+715174163+711577771+704677523
1068+699338781+701220232+712560705+731509342+754366421+777908520+800092391
1058+819687358+835882042+848155144+856377518+861014914+863109397+863916331
1048+864475258+865420164+867135039+869998495+874272210+879681897+885258028
1038+889659960+891557605+889593662+882065865+867477218+846762472+825164406
1028+810215528+806336288+811639525+820431643+828166963+833743028+838266607
1018+842863388+847541864+851217895+852317498+849775183+844287318+838727978
1009+836424842+838253932+841730137+843569048+843075756+842668805+845278149
999+851678004+860274013+868829938+875930144+881092090+884300645+885810119
989+885909667+884193399+878661533+865438813+840381929+803541387+763680103
979+736313845+733566993+754798325+787995090+819815709+843322037+857813991
969+864874046+865997275+862408847+855374873+846404764+837436844+830654992
959+827701412+828967327+833811185+841443174+851362969+862974278+875155066
949+886468992+895761106+902595984+907330936+910818291+913848324+916721934
939+919273208+921210871+922426547+923075465+923394283+923430651+923020250
929+922028157+920468909+918340911+915406112+911129013+904943385+896940348
919+888527705+882231712+880441645+883902587+891137912+899411519+906510398
909+911722582+915333641+917760681+919395254+920713398+922032670+923315043
899+924396463+925199083+925633841+925541726+924830956+923467086+921186448
890+917272233+910728632+900862925+887969110+873585730+859895400+848467259
880+839345173+831510837+824401406+818790434+815956311+816113862+817882360
870+819297463+819301910+818389920+818062076+819824601+824541171+832276093
860+842424847+854003770+865872907+876767207+885412659+890874973+892842367
850+891633925+888007270+882873529+877150134+871913926+868457962+867837116
840+870302912+875263174+881760851+888952044+896161553+902705287+908018214
830+912020960+915044953+917313446+918731801+919147446+918590178+917414454
820+916392497+916364491+917556475+919422397+921209013+922429865+922740321
810+921641713+918557460+913372353+907139207+902225003+901129182+904531788
800+910592384+916494168+920546091+922634204+923002397+921102496+915322824
790+902818705+879793059+844784592+804367898+773688694+766502943+783242485
781+810794431+833577115+842591224+835263585+811393111+771465860+717532515
771+654811630+592767338+543455659+515578922+507764693+508403989+504447665
761+491874958+478343009+476836520+496871389+539324663+596554596+656594463
751+708978780+748816571+776904482+796906600+812432854+825737402+837751813
741+848539464+857853412+865666512+872275085+878008036+883064727+887545103
731+891397665+894393519+896228781+896449976+894181815+887971167+875619290
721+854006557+819949501+772566924+715653519+658740843+615954583+600447575
711+615803469+651987993+690445190+714021268+713517889+688026380+643141588
701+589485715+539338997+501551524+479966366+476438429+491596357+521369843
691+556682130+589074450+615351191+636428158+653767972+667714338+677908751
681+684372051+687835116+688826345+687154674+682760905+676533798+670008580
671+664404311+660265649+658131213+658564379+661013915+664797325+670009045
662+676690287+684364286+692429043+700455507+708147291+715407437+722422430
652+729709122+737905480+747152797+756955590+766893834+777026793+787483946
642+798059229+808266783+817701714+826345440+834379270+841728478+848014184
632+852919762+856505071+859177993+861157997+861542185+858023107+848979930
622+837034273+828893064+829349723+835914096+839994689+831384079+802886562
612+758182681+716605991+700340828+712647378+735584891+750071734+751177377
602+744477685+736089000+728955413+723993624+721485819+721527828+723970065
592+728677542+735815576+745259068+756142617+767513817+778849379+789542194
582+798001823+801660997+799209071+793637321+791595398+797867168+810740676
572+824152338+832929258+834132657+825431725+806288571+782406948+765774055
562+765462006+777318667+786244312+781442463+767708200+759746642+767081183
552+786633278+808502910+825134077+834488972+838023578+838102022+836640197
543+834725099+833090592+832793674+835029847+840091914+846592511+852058143
533+854743210+854846275+853729217+852211049+849986888+846518978+842010662
523+837221224+832714766+828581148+824497768+819916716+814451880+808244020
513+802023019+796692240+792604746+789540668+787651916+787600284+789303479
503+791641058+793952555+796941109+801567953+807908411+815275803+822710489
493+829271213+834252712+837434389+839191671+840260481+841396320+843364843
483+846998732+852517058+858682047+863357204+865294933+865221666+864876435
473+865116876+865059337+863308293+859950417+856515557+854111149+852291815
463+850297808+848751899+849094078+851555029+854292392+855139144+853990630
453+852327387+851700303+853134055+856857072+862306644+868422058+874148838
443+878804418+881868496+882856274+881853364+879986248+878994288+879810646
433+881635886+882890187+882658904+881188518+879184358+876294157+870880820
424+862632763+854876670+852940600+859928450+870990389+877066647+875878578
414+869848842+861696683+853981338+848880050+847636965+849711207+852629481
404+854175125+854662311+856161964+859922212+864187167+864831771+861054003
394+856947660+856188908+858593847+861400561+862942821+863827335+864989919
384+866901036+870686171+877145223+885400116+894322509+902708804+906170741
374+900947408
##END=
