##TITLE=CZ-PHOS42
##JCAMP-DX=4.24
##DATA TYPE=INFRARED SPECTRUM
##DATE=16/11/2021
##SAMPLING PROCEDURE=Diamant ATR
##ORIGIN=Angelika Moesle
##XUNITS=1/CM
##YUNITS=TRANSMITTANCE
##RESOLUTION=4
##FIRSTX=3997.453
##LASTX=373.96442
##DELTAX=-1.4165319
##MAXY=1.0026972
##MINY=0.282621
##XFACTOR=1
##YFACTOR=9.3383457e-010
##NPOINTS=2559
##FIRSTY=1
##XYDATA=(X++(Y..Y))
3997+1070853486+1070430498+1069514824+1068881716+1068989585+1069487825
3989+1069738094+1069490059+1068900545+1068169652+1067418271+1066873947
3980+1066875734+1067509800+1068356349+1068812909+1068675041+1068259458
3972+1067932851+1067763835+1067700837+1067746346+1067808834+1067722347
3963+1067552693+1067587351+1067958191+1068559577+1069234046+1069728647
3955+1069706499+1069158090+1068588299+1068597937+1069309426+1070140592
3946+1070317842+1069789220+1069290405+1069361510+1069647841+1069591673
3938+1069239918+1068906928+1068686403+1068540301+1068437027+1068246118
3929+1067859960+1067480376+1067439653+1067707475+1067728666+1067085792
3921+1066195521+1065930316+1066696251+1067998849+1068961245+1069179154
3912+1068861610+1068376710+1067812153+1066999497+1066035186+1065515116
3904+1065911487+1066886394+1067951617+1069144367+1070158656+1070163634
3895+1069038222+1067739261+1067409973+1067991956+1067953340+1066653039
3887+1065437119+1065752364+1067025538+1067754452+1068121973+1068801037
3878+1068920970+1067680348+1065878041+1064529359+1063744851+1063679300
3870+1065128447+1067485226+1068716657+1068577193+1068618171+1069528611
3861+1070197399+1069751689+1068412390+1066494044+1064398895+1063774212
3853+1066610913+1070232441+1070853486+1069140857+1066870628+1065266443
3844+1064956623+1065734939+1066600828+1066931265+1067250595+1068038933
3836+1068556130+1068165759+1067369890+1066750057+1066156267+1065395120
3827+1064898412+1064868668+1064572443+1063704959+1063589494+1065220296
3819+1066885883+1067402569+1067973063+1069033881+1069191664+1067907001
3810+1066117332+1065109937+1065820660+1067611478+1068461090+1068031018
3802+1067985381+1068938012+1069453677+1069297618+1069647841+1070498603
3793+1070699214+1069938386+1068873227+1068048252+1067646839+1067802387
3785+1068422794+1068853057+1068546620+1067936617+1067887533+1068341413
3776+1068415517+1067796323+1066889330+1066234009+1066260434+1066947030
3768+1067697709+1068180376+1068512727+1068495047+1067867236+1067069324
3759+1066823651+1067025475+1066756887+1065502798+1063596643+1062233727
3751+1063061766+1065469862+1066443237+1065579327+1065455501+1067993232
3742+1070748553+1070655747+1068205013+1065210594+1063328757+1063685427
3734+1065972890+1068321499+1069077412+1068111314+1066555574+1065928912
3725+1066944030+1068720614+1070000043+1070618025+1070853486+1070560260
3717+1069486740+1067798621+1066107566+1065462841+1066715718+1069064646
3708+1070774148+1071216794+1070605833+1069497399+1068846674+1069321873
3700+1070289758+1070608642+1069985746+1068747869+1067230362+1065772151
3691+1065044322+1065906062+1067969552+1069157261+1068576810+1067127408
3683+1065666899+1064519976+1063735596+1063307056+1063644961+1065421162
3674+1067436973+1067331593+1065661984+1064695120+1065015280+1064925411
3666+1063651088+1061848781+1060044177+1058445098+1057250879+1056652046
3657+1056784553+1057406044+1057554572+1056552794+1054925694+1054049849
3649+1055190325+1057650824+1059465705+1060013476+1059656423+1058873446
3640+1058104895+1057615081+1057328494+1056978015+1056375033+1055417105
3632+1054157207+1053250086+1053970128+1056290270+1057980240+1057905242
3623+1056533582+1054659851+1053380422+1053736518+1055220324+1056123296
3615+1055979684+1055582611+1055540931+1055846028+1056286121+1056490434
3606+1055949557+1054681872+1053265405+1052070037+1050982666+1049846083
3598+1048831157+1048216814+1048058712+1048053925+1047753296+1047199909
3589+1047127592+1048118136+1049319121+1049250506+1047992970+1046507377
3581+1045254372+1044222850+1043394748+1042846786+1042511435+1042035726
3572+1041017352+1039452932+1037844981+1036830629+1036518702+1036119778
3564+1034998387+1033470604+1032040924+1030733091+1029266264+1027663164
3555+1026361267+1025649906+1025203494+1024374051+1022970477+1021376951
3547+1019935080+1018631907+1017345712+1016028561+1014621795+1013174180
3538+1012003641+1011424467+1011318513+1011159135+1010540452+1009601416
3530+1008865418+1008561469+1008233969+1007391505+1006266412+1005499456
3521+1005372247+1005616134+1005697323+1005223592+1004315195+1003438711
3513+1002757348+1002081348+1001442942+1001044656+1000663157+1000004581
3504+999454066+999520830+999771291+999385132+998496393+997933240+998084704
3495+998611347+998982251+998965783+998727450+998539222+998329356+997739012
3485+996740808+995851176+995553291+995708265+995746307+995342277+994641830
3475+993891470+993087558+992087504+990972431+990126457+989853465+989985653
3465+990121223+990239560+990704546+991597625+992459365+992809588+992621806
3455+992277647+992244009+992721250+993509333+994255927+994792081+995147985
3445+995344766+995296895+994946353+994456793+994208758+994527195+995415934
3435+996564516+997612059+998420693+999120247+999877117+1000673816+1001350328
3425+1001788633+1002025754+1002290001+1002923684+1004048905+1005303760
3417+1006143224+1006386855+1006299730+1006222243+1006327878+1006682697
3408+1007297359+1008050528+1008673998+1008939522+1008937543+1009089262
3400+1009730795+1010742977+1011755798+1012614920+1013406513+1014162043
3391+1014858469+1015598553+1016463739+1017268289+1017780827+1018144645
3383+1018701479+1019407735+1019873805+1020008163+1020162946+1020606868
3374+1021263848+1021977571+1022672018+1023288914+1023793218+1024207078
3366+1024574726+1024956799+1025344617+1025533101+1025336703+1024931460
3357+1024676340+1024697339+1024951885+1025471826+1026220974+1027011864
3349+1027792926+1028683260+1029600403+1030245702+1030518183+1030593372
3340+1030601159+1030495780+1030226554+1029928031+1029933009+1030459972
3332+1031261394+1031844589+1032051647+1032111007+1032174771+1032210323
3323+1032270130+1032517526+1033027064+1033742510+1034519933+1035122404
3315+1035290718+1034921538+1034202964+1033541389+1033222122+1033110551
3306+1032852431+1032448975+1032399573+1033090317+1034168114+1034795670
3298+1034542784+1033801360+1033291248+1033382075+1033961440+1034765288
3289+1035672154+1036644188+1037512757+1038052358+1038272181+1038405836
3281+1038552896+1038499855+1038011508+1037257956+1036824757+1037125897
3272+1037871853+1038362178+1038227118+1037692879+1037286360+1037392825
3264+1037969254+1038704806+1039458613+1040271843+1040989906+1041293472
3255+1041094648+1040585046+1039994639+1039475782+1039052859+1038640595
3247+1038285010+1038268032+1038748975+1039452932+1039931194+1040036255
3238+1039996618+1040104870+1040458986+1041013331+1041732288+1042581518
3230+1043434832+1044072791+1044338379+1044294465+1044143704+1044004049
3221+1043892158+1043880095+1044037686+1044266126+1044404505+1044412994
3213+1044344825+1044331741+1044597903+1045206693+1045836674+1046081773
3204+1045927692+1045735698+1045835716+1046255576+1046788219+1047197483
3196+1047311544+1046988830+1046170621+1045086569+1044264466+1044120917
3187+1044549330+1045082037+1045408644+1045591256+1045880460+1046498824
3179+1047398541+1048060053+1047882547+1046979000+1046187408+1046108772
3170+1046524993+1046877067+1046906237+1046679520+1046349849+1046077688
3162+1045982648+1046050816+1046135516+1046076475+1045816313+1045465515
3153+1045253351+1045365050+1045775654+1046184025+1046152175+1045491939
3145+1044532990+1043809757+1043485256+1043299198+1043017206+1042697748
3136+1042541242+1042595177+1042589113+1042156616+1041305918+1040454391
3128+1039866919+1039322021+1038409347+1036927201+1034969281+1032843431
3119+1030897576+1029264604+1027781181+1026147380+1024110378+1021600540
3111+1018874134+1016430357+1014588924+1013211774+1011965025+1010716936
3102+1009533695+1008481302+1007645221+1007187575+1007140087+1007179405
3094+1006810544+1005850892+1004632930+1003576196+1002588971+1001152397
3085+999042249+996629876+994365200+992338411+990520530+989090786+988259748
3075+987928418+987772869+987643873+987698956+988111284+988863942+989902676
3065+991248997+992875905+994688680+996657003+998741109+1000725900+1002365573
3055+1003670087+1004846689+1006034589+1007299976+1008800058+1010674171
3047+1012757512+1014619625+1015940542+1016723391+1017190994+1017620491
3038+1018183900+1018793838+1019186443+1019241399+1019062234+1018715075
3030+1018135390+1017345138+1016526354+1015807270+1015105993+1014211127
3021+1012997951+1011585569+1010227376+1009019753+1007830258+1006560913
3013+1005282314+1004040288+1002733222+1001301372+999881011+998664899+997718013
3003+997021651+996577728+996354076+996192017+995885962+995340426+994643745
2993+994065528+993931362+994350328+995117794+996008767+997045331+998343845
2983+999856692+1001366987+1002626118+1003492135+1004056628+1004589846
2975+1005260868+1005933039+1006210562+1005638154+1003944546+1001135930
2966+997267324+992209096+985804099+978155098+969518234+959963972+949385337
2956+937934048+926352358+915833339+907629099+902754886+901791596+904735081
2946+911069037+920013360+930642100+941920862+952900464+962911286+971550193
2936+978628573+984180000+988388169+991496777+993831025+995751094+997481339
2927+999049142+1000404144+1001533896+1002469932+1003205420+1003629045
2918+1003630322+1003298034+1002909769+1002724222+1002866366+1003319289
2910+1003888186+1004258133+1004223410+1003883974+1003623939+1003905994
2901+1004962664+1006576296+1008259245+1009734370+1011140050+1012746150
2893+1014639220+1016717965+1018774562+1020526317+1021767322+1022539192
2884+1022985796+1023135855+1023069729+1023132600+1023592798+1024171015
2876+1024335755+1024079039+1023988595+1024435262+1025032308+1025089625
2867+1024386115+1023261723+1022036612+1020538445+1018231196+1014711537
2859+1009954321+1004106733+997284941+989681513+981698054+973954205+967369661
2849+963162258+962410429+965453549+971681870+979783538+988257386+995994214
2839+1002587183+1008181566+1013067013+1017322415+1020771480+1023328041
2830+1025261386+1026913697+1028335207+1029453024+1030375656+1031292096
2822+1032267066+1033270184+1034232900+1035045811+1035634942+1036030100
2813+1036272008+1036310624+1036123672+1035923189+1036053717+1036577232
2805+1037159342+1037495141+1037625158+1037718474+1037826918+1037942829
2796+1038031422+1037984381+1037796408+1037748027+1038166546+1039005180
2788+1039853771+1040370904+1040564302+1040643321+1040773722+1041016523
2779+1041329279+1041561485+1041587973+1041451382+1041285429+1041175326
2771+1041176986+1041355449+1041707651+1042114042+1042420544+1042541944
2762+1042497392+1042363801+1042197274+1042011088+1041856752+1041876092
2754+1042129233+1042392396+1042363609+1042119085+1042058002+1042328376
2745+1042675983+1042903465+1043054609+1043129160+1043043823+1042907614
2737+1042977697+1043316878+1043726334+1043984198+1043974305+1043639655
2728+1043043503+1042499371+1042387034+1042750789+1043277241+1043684143
2720+1043877670+1043790544+1043437321+1043088949+1043022887+1043147415
2711+1043175180+1043078864+1043076949+1043227711+1043295496+1043056141
2703+1042599645+1042264102+1042265187+1042420161+1042326589+1041856497
2694+1041354874+1041242792+1041527848+1041858795+1041991684+1042029790
2686+1042212465+1042617197+1043115884+1043514681+1043699015+1043732525
2677+1043798970+1043948965+1043983113+1043734504+1043348792+1043114416
2669+1043147862+1043375664+1043669655+1043904222+1044041069+1044186149
2660+1044428504+1044687453+1044835662+1044847917+1044744388+1044566819
2652+1044456780+1044519714+1044589031+1044389186+1043934476+1043513213
2643+1043310623+1043274752+1043282985+1043210541+1042917826+1042376375
2635+1041771223+1041317854+1041004651+1040646066+1040201250+1039880132
2626+1039884281+1040243440+1040954546+1041971962+1042957655+1043405918
2618+1043181244+1042660600+1042281654+1042208188+1042406246+1042778618
2609+1043211817+1043616997+1043903456+1043938625+1043697611+1043429726
2601+1043457618+1043784289+1044108599+1044265104+1044427100+1044807386
2592+1045362177+1045858056+1046079666+1045988329+1045819376+1045939436
2584+1046464101+1047114316+1047552175+1047746722+1047909930+1048195049
2575+1048552038+1048768414+1048599270+1048003501+1047307842+1047010148
2567+1047357053+1048154007+1048936473+1049307313+1049212847+1048903729
2558+1048621163+1048457189+1048480487+1048722394+1049056597+1049344843
2550+1049613112+1049950314+1050423917+1051134002+1052085483+1053048262
2541+1053721072+1053923151+1053685200+1053367721+1053415719+1053734539
2533+1053749411+1053305169+1052926096+1052991647+1053229980+1053201832
2524+1052842864+1052407622+1052160226+1052210841+1052474131+1052701103
2516+1052640211+1052293817+1051982720+1052053059+1052528895+1053071496
2507+1053239618+1052889905+1052394729+1052286924+1052653615+1053136409
2499+1053515163+1053914534+1054368988+1054571641+1054260481+1053637840
2490+1053163408+1052982966+1052814078+1052487471+1052338433+1052827035
2482+1053904449+1055010968+1055678927+1055935898+1056093616+1056297865
2473+1056377012+1056102425+1055570483+1055233408+1055380595+1055649694
2465+1055393106+1054564365+1053826068+1053714433+1054079593+1054418072
2456+1054420050+1054143740+1053862897+1053749028+1053667903+1053353232
2448+1052775973+1052238032+1052101440+1052419047+1052810121+1052827737
2439+1052499598+1052311753+1052558128+1052958648+1053082027+1052922458
2431+1052778398+1052706783+1052487024+1052102972+1051854873+1051925339
2422+1052173183+1052378581+1052442919+1052411197+1052425622+1052544980
2414+1052644424+1052667019+1052753761+1052909181+1052861502+1052491811
2405+1052085866+1051950934+1052057271+1052200182+1052294966+1052351135
2397+1052293690+1052040421+1051716877+1051552648+1051562478+1051598349
2388+1051663134+1051871979+1052138269+1052180714+1051865086+1051390909
2380+1051098449+1051155831+1051475225+1051916914+1052433026+1052971605
2371+1053392231+1053585310+1053630372+1053795750+1054253970+1054717935
2363+1054619895+1053799707+1052790972+1052391729+1052979392+1054060189
2354+1054644980+1054251034+1053183769+1051911871+1050765843+1050126543
2346+1050279666+1050895030+1051224892+1051133427+1050999452+1050722248
2337+1049844998+1048534357+1047649001+1047707404+1048321236+1048840348
2329+1049061192+1049047980+1048804987+1048433637+1048219239+1048383915
2320+1048909665+1049573283+1050086395+1050303218+1050211562+1049733363
2312+1048944579+1048435807+1048795732+1049740257+1050412109+1050479256
2303+1050369791+1050509063+1050819649+1050937731+1050626953+1050012163
2295+1049533135+1049588921+1050176839+1050935944+1051446056+1051431567
2286+1050932433+1050407002+1050360344+1050778097+1051242062+1051557691
2278+1051809747+1051911680+1051634986+1051008580+1050317963+1049848509
2269+1049857253+1050539254+1051758174+1052904905+1053287106+1052792759
2261+1052034421+1051657517+1051601860+1051287444+1050526233+1049959442
2252+1050312984+1051375015+1052233883+1052557682+1052901139+1053515801
2244+1053781900+1053295595+1052636126+1052514853+1052840886+1053109729
2235+1053256341+1053716859+1054730956+1055890771+1056612920+1056825147
2227+1056755958+1056451052+1056151061+1056526050+1057687334+1058706090
2218+1058802917+1058088428+1056813658+1055240749+1054296926+1054823953
2210+1056300355+1057492786+1057825712+1057228667+1055529442+1052931138
2201+1050579529+1049984909+1051752749+1054924546+1057835542+1059567830
2193+1060155301+1059885118+1059061675+1057888264+1056363863+1055110093
2184+1055548909+1057696078+1058946912+1057094884+1053506802+1051600519
2176+1052959925+1055941578+1057989176+1058508479+1058354398+1057369216
2167+1054812081+1051989231+1051596817+1054266544+1058041131+1060973893
2159+1062438933+1062614907+1061955374+1060766516+1059367346+1058629177
2150+1059174714+1060131621+1059954179+1058382100+1056402671+1054752147
2142+1053735816+1053993808+1055995513+1058857426+1060853131+1061150760
2133+1060141833+1058386951+1056453669+1055352511+1055749457+1056882784
2125+1057300090+1056673875+1056025895+1056154189+1056621281+1056483860
2116+1055465869+1054141952+1053337913+1053486185+1054242162+1054709829
2108+1054350286+1053529333+1052981498+1053154919+1054172398+1055748946
2099+1057021226+1057217688+1056645280+1056334183+1056653642+1057003865
2091+1056929952+1056762979+1056910038+1057119394+1056899379+1056208698
2082+1055351107+1054663617+1054537047+1055158730+1056055830+1056462988
2074+1056186677+1055649502+1055189176+1054757317+1054357244+1054426050
2065+1055435807+1057179456+1058923424+1060186896+1060797345+1060602734
2057+1059922393+1059744058+1060643201+1062012308+1062753669+1062267364
2048+1060908661+1059867182+1060025667+1061029870+1062204175+1063516730
2040+1064758565+1065190296+1064931155+1065098448+1065960188+1066584679
2031+1066643465+1066965668+1068021253+1068928565+1068476664+1066920988
2023+1065785300+1065477011+1064776947+1063603345+1063968440+1066701229
2014+1069671649+1070853486+1070610684+1069954790+1068815845+1067093962
2006+1065785555+1065560689+1065300399+1063590962+1060988446+1059331667
1997+1059225138+1059911862+1061182482+1063299077+1065378333+1066257179
1989+1066657826+1067848598+1068907821+1067692029+1064260325+1061493260
1980+1062074094+1065783832+1069692393+1070853486+1069187834+1067259021
1972+1067250149+1068542726+1068877056+1067509226+1066018909+1065717259
1963+1065946018+1065503946+1064375853+1063560580+1063576346+1063706427
1955+1063106126+1062155666+1061840867+1062074732+1061797081+1060647605
1946+1059444833+1058962742+1059059441+1059119630+1058859979+1058452247
1938+1058082939+1057783395+1057630655+1057782309+1058162085+1058388291
1929+1058233062+1057879838+1057535168+1057116138+1056532114+1055945791
1921+1055488337+1055028393+1054430710+1053792112+1053251107+1052800291
1912+1052394857+1052044314+1051756514+1051484225+1051167447+1050805799
1904+1050437895+1050004440+1049298249+1048176602+1046847005+1045824993
1895+1045527555+1045910395+1046603182+1047298331+1047827655+1048056542
1887+1047953588+1047647980+1047370201+1047374095+1047800975+1048526634
1878+1049164019+1049319121+1048917261+1048246302+1047633300+1047170484
1870+1046822814+1046594948+1046484079+1046469910+1046587608+1046845026
1861+1047166846+1047454454+1047557025+1047301778+1046760390+1046285575
1853+1046122814+1046217598+1046407358+1046544078+1046532716+1046435506
1844+1046408954+1046463910+1046468250+1046320680+1045980095+1045542746
1836+1045198523+1044970274+1044813130+1044950041+1045622021+1046518610
1827+1047101869+1047230035+1046916130+1046219194+1045464302+1044986870
1819+1044758813+1044460099+1043835352+1042921784+1041982429+1041276366
1810+1040821082+1040395222+1039853133+1039304277+1039005116+1039179557
1802+1039821283+1040529452+1040765360+1040432817+1039946066+1039787007
1793+1040137805+1040722851+1041080223+1041166646+1041273494+1041579740
1785+1042009748+1042385375+1042679493+1042979293+1043255157+1043381855
1776+1043347452+1043252603+1043131586+1042847105+1042314015+1041749841
1768+1041371214+1041099627+1040795806+1040588748+1040691384+1040952503
1759+1041099371+1041297301+1041757819+1042220507+1042426161+1042660600
1751+1043411407+1044607158+1045632552+1046233172+1046610905+1046976064
1742+1047469645+1048132689+1048649120+1048536719+1047832889+1047123379
1734+1046905024+1046820707+1046305489+1045534002+1044875299+1044468779
1725+1044261466+1044031941+1043477469+1042617197+1042022577+1042483095
1717+1044012729+1045423388+1046140430+1046568651+1046980788+1047379520
1708+1047842910+1048576484+1049468542+1050024674+1050217115+1050686313
1700+1051719686+1052605872+1053037858+1053224938+1052824673+1051742345
1691+1050602571+1049945719+1049679812+1049420352+1049167976+1049117169
1683+1048919941+1048232962+1047308033+1046395678+1045515492+1044479183
1674+1043059460+1041374597+1039840878+1038689104+1037612903+1036164075
1666+1034465935+1032938471+1031841717+1031018721+1030043815+1028757684
1657+1027349003+1026153444+1025529463+1025328086+1024472857+1022964222
1649+1021623710+1020903157+1020618102+1020151520+1019495562+1018977790
1640+1018656672+1018466657+1018611738+1019489370+1020764076+1021529819
1632+1021771662+1021921403+1022147417+1022326709+1022442557+1022841864
1623+1023715412+1024531068+1024780379+1024816378+1025331086+1026346523
1615+1026996354+1026997376+1026887081+1027075118+1027499509+1027785649
1606+1027628186+1026944335+1025759562+1024107953+1021914445+1018860475
1598+1014424440+1008065782+999463321+988911111+977693559+968074193+962616466
1588+962861437+968375269+977223723+987204035+996546772+1004108456+1009773815
1578+1014693538+1020349387+1026123828+1029900138+1031815867+1033459817
1570+1035800767+1038297776+1040006128+1040877889+1041191858+1041188794
1561+1041425149+1042925741+1045356114+1046300574+1045969946+1045563937
1553+1045413495+1045471068+1045633893+1045717060+1045550853+1045066399
1544+1044202681+1043096481+1042599389+1043579083+1044839044+1045150524
1536+1044958530+1044994657+1045440558+1045853971+1046035689+1046238789
1527+1046535078+1046568715+1046160089+1045735060+1045689231+1045640275
1519+1045092186+1044216021+1043378600+1042648920+1041883113+1040959652
1510+1039834303+1038503876+1036832927+1034602527+1032128687+1029852523
1502+1028011153+1026885230+1026859827+1028135617+1030086898+1031629171
1493+1032476932+1033109211+1034014736+1034964686+1035114554+1034210751
1485+1032662033+1030788175+1028553243+1025719797+1022108673+1017728935
1476+1012652451+1006544318+998543881+988872687+979370125+970687624+961873510
1466+952015619+941558959+932421237+925830183+921573185+919579331+920709977
1456+924468224+927882822+929885549+930885795+930840222+929454391+927018912
1446+924790236+924252869+926008262+929220782+931640495+929901697+919594777
1436+899269439+877565548+865113119+865310155+878300589+900691268+924842319
1426+945708726+963071111+977156193+987417284+994544365+999998199+1003710809
1417+1004668801+1002909131+998331654+989516199+974942898+955653678+936228568
1407+922962334+921107433+930958495+947289039+965192174+982393522+997002758
1397+1007852342+1015775164+1021832746+1026122615+1028951018+1031200822
1388+1033545665+1035905125+1037777770+1039064540+1040032042+1040803976
1380+1041315875+1041620206+1042010514+1042787809+1043889031+1044908808
1371+1045682721+1046442591+1047302416+1048058904+1048602781+1049192997
1363+1050134011+1051305826+1052293626+1052954755+1053522950+1054328521
1354+1055533974+1057041396+1058646283+1060267319+1061974267+1063783020
1346+1065513648+1066955775+1068108378+1069154835+1070170783+1070853486
1337+1070889357+1069868111+1067691965+1063730681+1056436244+1043659378
1329+1023625287+996332246+964871950+935537121+915675365+910169767+919106749
1319+937779776+958776264+975362886+983575997+982228847+973008979+960618654
1309+951344724+950421391+959523496+976049865+995133623+1012632601+1026679704
1299+1037297530+1045213969+1051101705+1055428722+1058495075+1060504950
1290+1061657872+1062120943+1061974522+1061288564+1060109728+1058271678
1282+1055413914+1051158703+1044994082+1036046568+1023218703+1005514328
1273+982262867+953485893+920308436+884733095+848889422+814734697+784149991
1264+758449774+737470712+719456771+701984027+683026073+661499751+637402762
1254+611770331+586331489+562881970+542744605+526596512+514640472+506938973
1244+503644882+504924087+510720166+520740020+534671755+552234528+572988087
1234+596263356+621356889+647676683+674624478+701482979+727577588+752457170
1224+775794543+797285825+816780571+834262697+849515700+861992703+871110255
1214+876417604+877332384+872842287+861618289+842657463+816468580+786448814
1204+759315854+743277577+743970620+760653622+786116144+810873942+828077077
1194+835382557+833740649+825467540+813019515+798477490+783546052+769787450
1184+758683512+751470200+748990616+751637812+759267154+771113537+785902001
1174+802197313+818785658+834805745+849590890+862550686+873322209+881943755
1164+888760313+894236359+898934152+903549670+908773277+915024384+922305546
1154+930332854+938847552+947754280+956898066+965817496+973884952+980714659
1145+986386975+991293804+995777391+999867415+1003351969+1006120437+1008400879
1135+1010571089+1012728470+1014557521+1015679550+1016014264+1015706805
1126+1014845767+1013370770+1011074372+1007475822+1001638893+992058845+976686101
1116+953369599+920911099+880312187+835375217+792170917+757694563+738418683
1106+738799224+759296068+794804836+835721993+872111841+898027030+912540843
1096+917546031+915342247+907934515+897482515+886856456+879709461+879412342
1086+887044046+900337534+915031278+927397922+935605863+939290900+938534923
1077+933419377+924220891+911553426+896023857+877828454+856849519+833063883
1067+806777216+778703689+750019967+722197794+696699720+675012679+658854023
1057+649679920+647289056+648530636+647360990+636919840+613062461+577086664
1047+535304161+495760324+464690207+444624106+434334867+430164930+427974965
1037+424705511+418953921+410644429+400275437+388348503+375276178+361537905
1027+347751155+334612002+322816681+313064521+306097584+302645679+303348200
1017+308777620+319425604+335552793+357048095+383320401+413228180+445258172
1007+477898262+509834970+539988072+567631463+592496365+614673093+634456852
997+652272032+668572705+683691032+697771900+710837332+722888539+733985839
987+744281270+753956039+763097079+771703498+779825655+787564653+794912642
977+801796347+808317637+814707762+820976294+826865561+832248482+837361922
967+842512446+847680267+852556331+856965814+861153941+865598849+870542123
958+875739114+880699175+885174401+889355444+893607718+898162090+903089408
948+908378821+913924822+919521567+924905254+929765105+933794940+936879293
938+939226881+941216267+943057955+944696991+946074651+947279784+948309902
928+948877076+948508853+946486979+941384517+930557145+910131087+876498793
918+829709219+776062557+726223161+689910034+672294315+674034135+692260558
908+721171251+753806363+784919116+812318685+835808799+855780084+872900881
898+888063185+901834999+914135454+924675537+933556671+941317753+948483833
888+955202607+961428693+967319556+973140081+978869523+984262082+989210527
878+993818004+998311293+1002958661+1007766621+1012310589+1016199109+1019507944
868+1022465216+1024997713+1026858997+1027956899+1028413396+1028468224
860+1028294868+1027745821+1026384756+1023930895+1020557338+1016600331
851+1012058150+1006430258+998767023+987643171+971350668+948587106+919140451
841+883911567+844431366+802548558+760496669+720758030+685311046+654992056
832+629946393+610469966+596766384+588079542+582924167+580325672+580316736
822+583018632+587591387+592500960+596757512+600457612+604110160+608018785
812+612633155+619145255+629285329+644299679+664042269+686990484+710863246
802+733023315+750716010+761719483+765249737+762332996+755194746+746148873
792+736806902+727743540+718263701+706529272+690616480+669924324+645584598
782+619671196+594293502+571357541+552665685+539542553+532103865+529387352
772+530601486+535959450+546219712+561727452+581706970+604044098+625892560
762+645045891+661325884+677058106+695997550+721037851+752245836+786704190
752+820138936+849023333+871865211+889266723+902904882+914101753+923121967
742+929196399+929944079+921039967+899446689+869058892+841250633+827156297
732+829765515+844325412+864308058+885142806+903812513+917676814+924538946
722+923191540+913695489+897361051+876177420+851897819+825886378+799696283
713+774934080+752353194+731780013+712993245+696141291+681527013+669740563
703+662245196+661467071+669766541+688110025+715687929+750136964+787752626
693+824423444+856984388+883554067+902871691+913524494+913919333+904248968
683+889585415+879480702+881814950+896821450+917956699+937997557+953401321
673+964113931+971708040+978110993+984537053+990047949+993309105+995195919
663+996908165+998735556+1000449972+1002096092+1004039075+1006227477+1008026975
653+1009041199+1009754156+1011028990+1012977207+1014683900+1015389134
645+1015583745+1016335318+1017807188+1019112212+1019492817+1018957812
636+1017830102+1016360083+1014830512+1013442065+1011855050+1009159345
628+1004543826+997790585+988945897+977810428+964070528+947542181+927949842
618+905074326+879499723+852693433+826217006+801253618+778506397+757817560
608+737758767+716114043+691611812+665632859+642240849+626729789+623654628
598+634628102+657223796+686251422+716151893+742635086+763223331+777421898
588+786539003+792877618+799110407+808074198+821863820+840225367+860653084
578+881014677+900961324+920162079+936981800+949970830+959392521+966569260
568+972423741+977092556+980708148+983955773+987644639+991949444+996269631
558+999825097+1002226301+1003553218+1004354130+1005617027+1008059144+1011207644
548+1013697696+1014520309+1013687164+1012133020+1011148348+1011085988
540+1010202164+1005261442+993912022+976671484+956080431+933154108+905111602
530+867849801+820927466+770568767+728119167+702672411+695122726+701458788
520+717662890+739636518+761998092+779970608+792120429+799830194+805008355
510+809281374+814127311+819815648+824319086+824852240+820173276+810395872
500+795276460+774155381+748113621+721545793+701212285+693886381+703677125
490+729091201+763388900+799174490+831777433+859267063+881168502+897645531
480+909536211+918212585+924707260+929207059+931868807+933905171+937127902
470+942187471+948177714+953775544+958224217+962050823+966467838+971474813
460+975513519+977523075+978375815+979197471+979099623+976329941+970437036
450+962589658+954257635+946394556+939453853+932627465+924091512+913970587
441+905252470+899650811+895288369+889903789+884719691+883039168+885577601
431+890105421+895245604+902383663+913380626+927362689+940229106+948371687
421+952823998+959038149+969850394+980162548+986885407+993052198+1002666521
411+1016707051+1032943769+1048481636+1061106081+1069003755+1070853486
402+1070492731+1067004348+1065150149+1068613575+1073741823+1072122128
394+1060930554+1043836181+1027110478+1015551895+1009596310+1005389545+996767871
384+980976672+965571695+962201329+974145050+994778294+1016548056+1040665725
374+1070853486
##END=
