##TITLE=X9571
##JCAMP-DX=5.0
##DATA TYPE=LINK
##BLOCKS=1


$$ === CHEMSPECTRA SPECTRUM ORIG ===
##TITLE=X9571
##JCAMP-DX=5.00
##DATA TYPE=INFRARED SPECTRUM
##DATA CLASS=XYDATA
##ORIGIN=Default
##OWNER=
##XUNITS=1/CM
##YUNITS=TRANSMITTANCE
##XFACTOR=1
##YFACTOR=7.7742535e-010
##FIRSTX=3996.5625
##LASTX=399.65625
##MAXX=3996.5625
##MAXY=0.8347541125554131
##MINX=399.65625
##MINY=0.5917155768913929
##NPOINTS=1765
##XYDATA= (X++(Y..Y))
1765I43243111I43701440I44442372I45086854I44931522I44539282I44647616I44942026
1757I44991708I44563050I43919641I43286659I42644247I41882615I41199338I41265274
1749I42282062I43411554I43810464I43954679I44198487I44164599I43945019I43997384
1741I44281367I44415768I43916958I42782482I42520657I43311730I43929148I43792752
1733I42839141I42289882I42888362I43521573I43541891I44045762I44872334I44113538
1725I42680663I42506933I42681202I43511070I46297079I48225005I46408326I43523798
1717I41388405I40990798I43324611I45468207I44790297I44553543I45185911I43964339
1709I44069146I44901391I44561746I45978978I47177241I47894407I48368376I45854390
1701I44634582I45201321I44423128I44231762I46679505I51150473I51848012I44121665
1693I40353139I42314493I45249853I47208217I48580366I49790438I48019454I44195344
1685I43170199I43880616I44270326I44678897I45642782I48650979I50456311I48467586
1677I47710937I45932440I43908447I45347068I48185980I48500247I47192653I48240260
1669I46952908I44113844I43985040I43461619I43067309I43598397I43676983I43475879
1661I43260209I43744145I45022529I44540049I43161535I43645932I45641480I47014167
1653I46077115I44298157I43128644I43863749I45249546I45146733I46508993I50739681
1645I53319907I49230139I46191889I48227151I46553461I42577162I43958666I47534904
1637I48295080I45825486I42972929I41569574I41980905I42522420I42878012I43319474
1629I43195806I43436471I45152253I47596240I47226081I44174563I42805023I43906761
1621I45377967I44551933I43720071I44400817I44978520I46520800I48864657I47291403
1613I42822044I41476344I42902086I45440146I49387694I52481834I49995222I48314708
1605I47819501I42943181I40448669I41482094I41953687I42355664I43967329I44364400
1597I44204544I46967782I48834065I45062397I40391934I38941811I39893430I41139843
1589I41734106I42131330I42473582I43931908I44872870I40562983I37525499I39612131
1581I43040858I43724518I41603232I41878705I43917954I44559906I43347075I40682664
1573I38881626I39060876I39743465I40330752I40829256I40399371I39579470I39923101
1565I40488384I39041558I37694325I38471905I39299550I39040101I38415016I37892822
1557I38205096I39908994I40539597I38224723I36360510I36664963I37531863I38068318
1549I38836161I39903704I39629688I38542441I38383122I37971178I37182251I37491765
1541I38254471I38465005I38221043I38015646I38300626I38992643I39398530I39212530
1533I38208239I36906702I36634909I37602629I39181096I40159089I39695930I38470678
1525I38133717I39012807I39503184I38811780I37673011I37067324I37228329I37618037
1517I37964738I37817993I37001079I36312438I36267970I37040336I38571805I39848732
1509I39786860I38217440I36562610I36546126I37416322I37745770I37802199I37945951
1501I37941277I37829570I37860544I37885002I37541830I37185624I37435106I38016950
1493I38156563I37634906I37213225I37443233I37769154I38015186I38687652I39104580
1485I38733807I38468148I38184165I37385425I37138243I37918813I38524500I38566515
1477I38815920I39019937I38187922I36702455I36164390I36905092I37720699I37838617
1469I37675311I37512926I37201725I37188845I37607686I37928090I37875265I37536233
1461I37127432I36726375I36482567I36618808I37142460I37826350I38058351I37658981
1453I37372007I37613669I37969798I37907159I37517602I37420232I37666111I37468841
1445I36749070I36440476I36599718I36876034I37662201I38603546I38866138I38620720
1437I38148821I37623253I37242590I36953470I36917282I37267354I37663964I37698695
1429I37549650I37385576I37483945I38109643I38278852I37613746I37119459I37306992
1421I37811706I37955077I37484865I36905705I36927556I37554633I37727753I37098373
1413I36888531I37401448I37635596I37275328I36914215I36656223I36297027I36154959
1405I36370093I37084804I37737873I37414482I36537079I35981993I36166766I36638589
1397I37096305I37973938I38727674I38479112I37569278I36636212I35983220I35861853
1389I36105968I36271647I36082737I35787330I35893900I35911151I35527421I35722698
1381I36418472I36788708I37142000I37470298I37185778I36512851I36076603I35663663
1373I34845601I34548508I35279243I36275560I37182634I37660897I37370244I36656836
1365I36297257I36531942I36754206I36580704I36470067I36616968I36402982I36113481
1357I36134182I35888304I35442778I35083963I34674859I35046168I36356523I36624865
1349I35957076I35762949I35513697I35141085I35155959I35572273I36074150I36189307
1341I35882553I35463019I35557169I36252023I36696934I36677537I36765630I37027839
1333I36903712I36206864I35539075I35314051I35371859I35350314I35207327I35200273
1325I35186013I35350852I35971105I36297717I35925411I35558626I35544825I35291816
1317I34940134I35264752I35485100I34970572I34512627I34381062I34535321I34841768
1309I35101140I35378759I35444695I35243668I34795230I34322331I34462331I34711583
1301I34225193I33571358I33419936I33458654I33187015I32599881I32155353I31859869
1293I31216384I30381609I29938076I29971352I30210406I30173682I29656931I29378621
1285I29604949I29781211I29781902I29506429I28614075I27409754I26623509I26524147
1277I26977953I27318211I27265156I27363752I27463729I27279723I27244225I27452996
1269I27338068I27194927I27684767I27888937I27238552I26594683I25845471I24728706
1261I24344363I24737139I24924519I24938780I24744806I23812661I22555362I21638014
1253I20726492I19730482I19231058I19384627I19503157I19023972I18715764I19122648
1245I19558819I19741906I19978967I20222315I20320759I20700655I21424183I21831527
1237I22036234I22304270I22407543I22334094I22338924I22867710I23837502I24648740
1229I24940926I25146629I25855054I26607103I26942148I27007547I27165102I27593684
1221I27737745I27449775I27331091I27425700I27517628I27648196I27733756I28011301
1213I28532499I28715662I28516090I28222448I28095560I28269140I28341056I28252963
1205I28208033I28124312I28060600I27984467I27762663I27470169I27306021I27464649
1197I27688369I27522075I27394420I27846999I28429072I28772090I28897982I28739889
1189I28645280I29039587I29495389I29476911I29260397I29217999I29270594I29332926
1181I29457744I29490098I29468401I29644280I29789492I29439803I28789341I28484197
1173I28423782I28598665I29371491I30282705I30755446I30823607I30733291I30571672
1165I30454215I30380995I30338367I30426307I30422550I30359221I30522374I30789413
1157I30870376I30778296I30748931I30783893I30728001I30709677I30790946I30652635
1149I30257865I29848067I29552967I29621586I30012523I30067955I29571368I29080071
1141I29152830I29632550I29917300I30018810I29843619I29466636I29537250I29788265
1133I29899512I29989292I29878352I29643667I29671345I30068491I30535328I30626184
1125I30172838I29930410I30291982I30504893I30448311I30503743I30453141I30123233
1117I30094252I30571442I31095630I31543609I31578570I31164629I30919061I30818164
1109I30862325I31343425I31780747I31715194I31587463I31975179I32648413I33199358
1101I33616439I33741717I33575191I33388118I33258240I32958233I32694338I33018496
1093I33748157I34043257I33381141I32552500I32612915I33314669I33697172I33502662
1085I33093248I33083971I33599802I33860708I33853654I33380988I32174213I31717418
1077I32599651I33111649I32458580I32041806I32790328I33836708I34333834I34341117
1069I33791629I33052537I33017729I33471304I33150060I32344726I32567754I33254407
1061I33272808I32958847I33139325I34218293I35510171I35437335I33812176I32812102
1053I33397855I34181339I34066718I33522977I33305852I32682913I31346029I30526054
1045I30517927I31032299I31898051I32405908I32016658I31211861I31152442I31366196
1037I31392417I32160030I33061737I33270507I32928639I32422009I32213851I32103141
1029I32339742I33381831I34263988I34009063I33094321I32472301I32812332I33413341
1021I32778291I31810188I31904337I32378614I32665433I32939756I33167081I33249040
1013I33321263I33522749I33967815I34134262I33296498I32041039I31166396I30815557
1005I30968512I31397170I31867230I32212778I32175133I32054303I32476290I33078144
997I32988748I32435042I32198594I32125988I32262843I32940753I33575038I33696559
989I33289828I32590834I32111958I31713278I31208410I30982159I31054918I31465559
981I31956318I31918981I31505657I31028698I30480282I29857651I29156357I28099011
973I26631561I24829679I22507596I19820489I16824639I14022147I12358960I10892507
965I07794761I03791628I01648031I01706990I02308844I03331612I05739871I10277389
957I15143742I16548477I13127800I09663958I09438091I10090469I10869583I12030969
949I12504632I11938429I12306595I13997690I14995157I14458317I14061476I15711708
941I18482613I20348513I20963324I21714836I23213031I24734073I25929117I26808054
933I27224368I27563476I28635926I29239313I28807435I29442563I30934778I31828895
925I33009142I34081055I33209095I31990437I32128288I32345033I32711588I33875121
917I34372552I33539233I32706758I32448153I32570747I32969734I32539466I30230724
909I27402010I26005019I26516097I28195768I29684455I31234248I33072777I34036740
901I33868757I32746550I31686290I32023558I33068484I33975635I34156191I33117627
893I32975867I34311370I34024473I31791787I31349635I34014583I36569970I37322709
885I36539762I33740797I31435121I32447923I33981155I33252337I33221899I35277555
877I34434424I30125917I28574284I30835338I32026165I31163866I31801445I34657071
869I37347397I37325776I35384280I32998562I28792408I26318827I29453987I33670414
861I32884631I27275276I24077554I27042202I31740112I32003778I28046416I26492943
853I29272281I32994498I34462868I31903341I29259171I30269058I32127905I32573124
845I32894981I33775068I34981306I36703605I38304073I38213146I36347243I33884552
837I31667583I31121161I32021641I33121002I34836018I36173130I36257389I35129891
829I32808725I31434813I32372633I34082665I34759578I33704456I31747932I30824604
821I31235091I31257019I29879885I28771937I30952948I35462942I37590132I36495754
813I34611300I33971955I35728755I37001618I36602171I37958374I38974242I36243129
805I33849361I34463021I33904716I31732215I31360522I32698555I34523130I35172902
797I33871288I31959233I30655242I30577116I30475145I28991441I28930873I31996571
789I35866683I39409264I40639346I37543057I33612606I34129280I38384732I41549180
781I41479411I38035657I31499217I25080081I24814115I32361593I39630225I39767156
773I37690185I38634904I39956912I37961364I34580479I34162938I34935534I33736120
765I32003164I31939222I34042951I34735351I32761807I31945892I33261077
758I34512780I33799830I32087194I31149605I30812184I30599577I30341741
751I30162335I31499524I33883095I34752831I34737958I34335137I32623649
744I31770703I32459270I32794545I32522139I32086808I32152593I33906939
737I35604857I34708210I32369873I31413501I32671950I34119160I34546282
730I34783039I34701233I34155271I33563691I33293125I34167845I36151816
723I38313506I39186693I37088254I35057975I35913374I36623100I35762643
716I35521363I36051686I36180490I36283994I36735806I37454044I37686658
709I36260916I35677846I37009668I37483101I36499741I36380367I36938443
702I36741096I37362961I38198118I37505795I36552182I36097762I36142922
695I36741096I37271571I37120302I36655686I36849353I37635213I37769308
688I37056053I36457956I36840306I38257614I38517677I36640120I35414947
681I35129124I34871822I35238301I35444005I34975556I35712347I37543747
674I37300092I34512933I31922048I30556951I30388202I29469091I27687450
667I26332551I25096105I24813502I24758990I23626508I22388759I21429243
660I20853304I20914561I20609649I21240713I23345745I23098564I22178685
653I23059769I23783987I24091201I24830983I27418494I30917757I31483576
646I29850444I29898976I31806277I35358365I38909533I40706891I42867737
639I44407641I42843741I40674384I37401985I35942585I37037806I39248028
632I42915961I44319165I41199338I39920418I41281758I42917957I43219957
625I43945325I44212748I42411940I42437010I43860529I43608670I43132401
618I44806858I48899618I51315848I47259355I47075195I49140436I46634807
611I43804177I44398977I47272312I50755398I50014389I45719759I44563203
604I45610045I46788529I47987407I47913191I47111383I48271160I48902301
597I46809613I45946470I46599001I46989323I46900773I46709483I46269171
590I45466827I44688711I44097207I43959509I44498111I45043383I45261430
583I45533069I45974915I46729954I48626749I51497940I51777933I49580748
576I50375195I51922228I51097266I50824170I52490730I56310317I60638909
569I58351177I54746264I54284868I54626660I55329871I56445715I58522150
562I62227576I66418319I65274797I62298955I63439641I64797147I64910388
555I66697932I69174197I70801655I70250097I60974800I43891120I25468181
548I10719848I05865225I08062337I12362717I13216200I09944874I11067313
541I15676057I20376267I22774866I23922912I26281489I28824839I29535947
534I29299882I29914156I31150525I32204881I33470154I35073999I35825128
527I34122840I32225965I32896975I34107583I33445390I33154277I35387116
520I36175737I31081139I27183426I26241314I25086598I22202376I18149255
513I14647231I12453340I11818365I10374376I06390103I03964977I03316508
506I02113030I01080909I01127600I01947118I03468850I03723699I02358832
499I02882637I04753291I06288746I07816612I09713870I11156019I12412399
492I14443675I16760467I18918631I20524009I22050878I24885725I28618599
485I32112571I35154042I36611218I32317585I17165051H91077024H62339383
478H45698161H46229709H55672988H66497081H76313586H84703966H91485288
471H97404003I03075767I08542977I13525943I17957581I22136824I25886642
464I28395031I28967061I26926278I21039840I08368631H85958121H57365539
457H33318525H21986345H22936199H30851614H40571133H49291114H56689163
450H63399565H69505814H74738569H78964274H82236979H85055188H87911119
443H90713535H93234497H95295521H96885412H98136118H99208798I00489098
436I01944281I03305775I04565374I05745314I06785563I07444612I07815002
429I08350077I09204096I10086789I11004137I12315489I13606905I14240808
422I14494966I14276842I11860687I06122987H99815329H96904349H96906496
415H96286471H93414824H89551228H86769743H86207527H87871788H90782613
408H93558195H95428541H96720420H97826681H97473695H94214482H89608654
401H85925384H82999991H81085176H81459169H83738777H86539582H88985946
394H90535202H90539879H88453171H84754108H81028670H78270953H76387036
387H75292735H74936759H75080131H75589445H76530714H78225948H80690176
380H83425736H86009644H88021523H89566639H91077407H92151544H92220239
373H90795801H87877921H85386629H85382566H87783771H90982490H93339228
366H94408381H94440582H93494176H91321752H87720212H83428649H80354211
359H80386642H83483544H87915489H91798712H93627427H92638087H89537964
352H86840816H87247623H91092588H96042280I00050473I03310911I06445764
345I09342101I11918112I14109243I16037706I17932817I19930282I21854298
338I23141192I24431996I26085062I27190480I27853823I28473387I29172381
331I30403994I32196293I33831343I34644804I34892906I35417631I36397771
324I37451744I38639887I39756882I40188377I39981217I39119607I36772377
317I33459114I31417718I29851211I25200835I18085542I13352594I13671078
310I17522867I22164578I25732843I27573903I28270903I28003481I26355858
303I23676803I20240946I16307812I12954910I11819668I13795970I17928447
296I22980032I28227815I33054223I37552334I41959054I46032416I49614173
289I52867406I56007320I59283782I63161255I67443081I71465688I75320006
282I79109002I82891021I87371958I92867152I98784641A005248628A013394893
275A023344189A034490906A046447405A057881862A067321920A073741823A071554142
268A047067966I87474156I01022410H20729505G74231883G61122051G65970233
261G77241921G90240891H03126621H15259842H26150484H35070802H41998178
254H48079662H54303368H59971912H64492179H68442564H72333300H76174355
247H79641417H82820739H85822954H88080865H89055178H88559051H86783850
240H84188289H80946021H77742242H76774060H78698001H81614961H84620397
233H87440753H89754325H91971678H94346125H97112123I00068261I01921281
226I02085276I01954859I02547055I03296344I04170067I05418626I06949866
219I08908612I10500420I11016864I11379510I12143903I13103956I14410784
212I15757710I16844267I17747431I18274916I18891260I20171637I21613863
205I21996519I21474555I21734847I22765052I22925138I22037384I21796642
198I22539796I23198770I23817721I24631413I25281338I25821550I26534114
191I27657933I29449694I30743258I30567992I30243681I30393492I30472462
184I31218301I32501285I32516542I31598196I32279404I34423614I35052225
177I34369408I34077682I33896282I33973716I34647718I36291201I38616273
170I39869203I39144755I38073991I39087943I41539826I42777039I42966718
163I43731571I44265649I44133702I44763155I45149493I44239889I44925925
156I47712547I49724809I50633954I51472486I51867486I52047735I53591011
149I55897760I56805908I55921757I53689455I51567939I52526535I55909797
142I57683004I57971434I59037214I60678856I61591451I61535789I62258627
135I63495379I62073854I58635007I60933322I67163315I71492752I73086477
128I72093763I70289581I68886227I67585686I66742477I66640277I66406129
121I63982919I58006855I51324820I48340009I49540036I52409384I56221151
114I61369953I66600562I72401897I80394133I89142405I96953855A004815447
107A014882814A024706296A014739212I61362747H80276392H17624936G97041303
100H09312069H33887718H56124570H71426610H81430111H89744588H98047335
93I05452744I09457641I10973546I14419984I19498327I22125707I22234041
86I22763135I24421722I27054239I29234943I30274579I32525203I34652931
79I34579559I35752828I38934144I40863527I40870810I40197347I42272018
72I45934586I46229457I45116832I43968403I42408643I43491903I46851781
65I48585427I47782086I46524401I47543338I51385770I53080776I51436832
58I52853836I56211644I57074710I56551902I56159432I56875370I58562784
51I59246751I59266762I61870067I66760647I70271411I72042624I73398674
44I73624388I73084407I73582450I76051355I78731559I79505459I80452862
37I81437755I78778021I74908599I76879000I83194402I83831600I79483608
30I78223012I79627974I79625753I81642079I86202214I85453309I78119509
23I71587516I73817748I82243089I86002108I85884803I86280877I85999117
16I87241083I89578883I88368582I84279119I83093812I87166331I87024799
9I81880290I83723190I92507956I97035891I92459655I94421468A008349824
2A014129308A004001832
##END=


$$ === CHEMSPECTRA PEAK TABLE EDIT ===
##TITLE=X9571
##JCAMP-DX=5.00
##DATA TYPE=INFRAREDPEAKTABLE
##DATA CLASS=PEAKTABLE
##$CSTHRESHOLD=0.93
##MAXX=3996.5625
##MAXY=0.8347541125554131
##MINX=399.65625
##MINY=0.5917155768913929
##$CSSOLVENTNAME=- - -
##$CSSOLVENTVALUE=0
##$CSSOLVENTX=0
##NPOINTS=26
##PEAKTABLE= (XY..XY)
444.515625, 0.7553367646819307
603.5625, 0.6196401139492311
640.265625, 0.7395840311521871
693.28125, 0.7397730380258537
856.40625, 0.7012025742745517
880.875, 0.6816263820212717
933.890625, 0.5917155768913929
1007.296875, 0.7088717245317838
1031.765625, 0.7103110575990274
1115.3671875, 0.6894525317730856
1131.6796875, 0.6844096806106489
1152.0703125, 0.6883188512564481
1184.6953125, 0.6801980160934407
1211.203125, 0.6849779513316117
1235.671875, 0.6889601968506095
1247.90625, 0.6972761774378472
1327.4296875, 0.6390330219568457
1372.2890625, 0.6574671888097814
1417.1484375, 0.7015166307931913
1427.34375, 0.7005231410576432
1512.984375, 0.7042425895984538
1741.359375, 0.7159423249055213
1981.96875, 0.7189739370388153
2334.7265625, 0.7090359952856642
2361.234375, 0.7009640360769859
2946.4453125, 0.7147529154300944
##END=


$$ === CHEMSPECTRA PEAK TABLE AUTO ===
##TITLE=X9571
##JCAMP-DX=5.00
##DATA TYPE=INFRAREDPEAKTABLE
##DATA CLASS=PEAKTABLE
##$CSTHRESHOLD=0.93
##MAXX=3996.5625
##MAXY=0.8347541125554131
##MINX=399.65625
##MINY=0.5917155768913929
##NPOINTS=245
##PEAKTABLE= (XY..XY)
3986.3671875, 0.7343087818975987
3968.015625, 0.7317122247644183
3951.703125, 0.7338467867768317
3939.46875, 0.732739451650455
3929.2734375, 0.7325600413153087
3912.9609375, 0.7327287822649516
3896.6484375, 0.7315501004819294
3888.4921875, 0.7343198687605151
3884.4140625, 0.7338618066345937
3878.296875, 0.7343262459806611
3866.0625, 0.7343828705334537
3859.9453125, 0.7340697080539668
3849.75, 0.7310543682106737
3833.4375, 0.7332444220671447
3813.046875, 0.7338183547769315
3804.890625, 0.7363715797759536
3792.65625, 0.7331644327728832
3784.5, 0.7333143981228982
3776.34375, 0.7332376864539123
3764.109375, 0.7332121161567254
3757.9921875, 0.7347810297038816
3747.796875, 0.7355935604729862
3741.6796875, 0.7327833800698568
3729.4453125, 0.732000055616301
3719.25, 0.7332643295980822
3707.015625, 0.7329605249875331
3698.859375, 0.7336719064991999
3684.5859375, 0.7319275762509204
3666.234375, 0.7311286356543591
3654.0, 0.7340485480907905
3643.8046875, 0.7299571660463089
3625.453125, 0.7288560891939997
3617.296875, 0.7320262221987313
3605.0625, 0.7299103767016192
3592.828125, 0.7304528983175645
3584.671875, 0.7289873388061388
3574.4765625, 0.7291416554058378
3564.28125, 0.7279503972129285
3543.890625, 0.7285892394974629
3533.6953125, 0.7292371418970262
3519.421875, 0.7281637219515432
3507.1875, 0.729328933285526
3496.9921875, 0.7284998923342635
3482.71875, 0.7278784542710396
3468.4453125, 0.7280946997966942
3456.2109375, 0.7290924816975995
3448.0546875, 0.7285918617531685
3437.859375, 0.7286133194702538
3417.46875, 0.7285550265626601
3401.15625, 0.7277979285532865
3386.8828125, 0.7285943658402207
3372.609375, 0.7280452874188735
3360.375, 0.7287367606221775
3350.1796875, 0.7287742519596813
3342.0234375, 0.7280125648084667
3319.59375, 0.7283832458798988
3309.3984375, 0.7287473095067516
3299.203125, 0.7285404234048857
3289.0078125, 0.7283742456266218
3278.8125, 0.7283608941236609
3264.5390625, 0.7277905966548107
3252.3046875, 0.7276561285017226
3231.9140625, 0.7275627286201736
3223.7578125, 0.7275047925508156
3217.640625, 0.7273027327055224
3195.2109375, 0.7265417009238778
3180.9375, 0.727901222727265
3172.78125, 0.7280355703794238
3166.6640625, 0.7277583506061434
3156.46875, 0.7266399293942757
3142.1953125, 0.7270023853055048
3129.9609375, 0.7272526649581317
3121.8046875, 0.728196862039363
3109.5703125, 0.7271368534585929
3099.375, 0.7270373134716296
3083.0625, 0.7268461609039969
3072.8671875, 0.7264115241587218
3056.5546875, 0.7263658651904908
3046.359375, 0.7256643204417776
3030.046875, 0.7229574342126266
3019.8515625, 0.7225224997134424
3003.5390625, 0.7203033592649265
2997.421875, 0.7208794384461047
2989.265625, 0.7208631661561038
2983.1484375, 0.7208248406411994
2968.875, 0.7186087399258021
2948.484375, 0.7146335269965204
2940.328125, 0.7142329243782174
2913.8203125, 0.7170459058448829
2883.234375, 0.7209306979865568
2862.84375, 0.721525015566446
2842.453125, 0.7209112079330324
2834.296875, 0.720979931556547
2822.0625, 0.721952381829848
2811.8671875, 0.7223976280988746
2801.671875, 0.7225922969613654
2789.4375, 0.7217801836696738
2769.046875, 0.7232686305834035
2762.9296875, 0.7232848430116524
2752.734375, 0.7235878134448009
2746.6171875, 0.723557296390112
2736.421875, 0.7226580407135135
2726.2265625, 0.7222903993751999
2713.9921875, 0.7225909248056226
2701.7578125, 0.7227285531927585
2689.5234375, 0.7229514744698935
2683.40625, 0.7233541038360839
2675.25, 0.7230788493940883
2660.9765625, 0.7236416369340575
2650.78125, 0.7242397094783871
2630.390625, 0.7251002221626683
2620.1953125, 0.724989953705875
2607.9609375, 0.7254031327340649
2595.7265625, 0.7243407397897463
2587.5703125, 0.7245929272441821
2573.296875, 0.7253516345240302
2567.1796875, 0.7248284249312041
2559.0234375, 0.7253058581645715
2546.7890625, 0.7251917748815857
2528.4375, 0.7234082250792495
2516.203125, 0.7239015131252048
2497.8515625, 0.7246406106280244
2485.6171875, 0.7249276057476557
2477.4609375, 0.7244128615394658
2448.9140625, 0.72363961018617
2436.6796875, 0.724602642728781
2424.4453125, 0.7246583724649959
2404.0546875, 0.7237691308043307
2361.234375, 0.7009640360769859
2340.84375, 0.7070202261990068
2330.6484375, 0.7089640523437752
2320.453125, 0.7106145629008166
2291.90625, 0.7220784452374773
2277.6328125, 0.724552991681378
2261.3203125, 0.7249088317028786
2249.0859375, 0.7198997759978317
2230.734375, 0.7243165400934516
2218.5, 0.7253190899440285
2210.34375, 0.7240548159622473
2198.109375, 0.7241212749457174
2189.953125, 0.7255103614577397
2181.796875, 0.7218971877396995
2175.6796875, 0.7239103944324031
2159.3671875, 0.7201437382920645
2149.171875, 0.718401315845594
2138.9765625, 0.7202791004843051
2128.78125, 0.7224296362553849
2102.2734375, 0.7238771944828314
2085.9609375, 0.7241210354987095
2073.7265625, 0.7236466435533114
2065.5703125, 0.722050848192403
2053.3359375, 0.7260934740060593
2047.21875, 0.7281382706004349
2039.0625, 0.7259981663227014
2030.90625, 0.7240632797920328
2010.515625, 0.7221744090678306
1998.28125, 0.7258141069839621
1981.96875, 0.7189739370388153
1973.8125, 0.7289841202651898
1963.6171875, 0.7262419490316784
1955.4609375, 0.7245131758420778
1947.3046875, 0.7245183612691622
1928.953125, 0.7231317788441923
1914.6796875, 0.7243821648995211
1906.5234375, 0.7246279129397828
1894.2890625, 0.7241044670096504
1877.9765625, 0.7255657343557188
1865.7421875, 0.7269377734846663
1857.5859375, 0.727298023062752
1841.2734375, 0.7274196769137962
1833.1171875, 0.7279658345481035
1829.0390625, 0.7282462744171836
1818.84375, 0.7277461302570667
1808.6484375, 0.7281798745180401
1798.453125, 0.7280261542035846
1784.1796875, 0.7267930534234878
1778.0625, 0.7268736988647446
1743.3984375, 0.7158947021608565
1739.3203125, 0.7157052785872022
1731.1640625, 0.7169250869486647
1714.8515625, 0.7228893068743555
1692.421875, 0.7276254917235297
1680.1875, 0.7307179599357964
1667.953125, 0.7326549322986791
1659.796875, 0.7332150369437654
1649.6015625, 0.7362802649491933
1643.484375, 0.733737292635687
1631.25, 0.7343273786893961
1621.0546875, 0.7363083984177591
1612.8984375, 0.7354027655210146
1594.546875, 0.7338580516701532
1574.15625, 0.7382281453671619
1566.0, 0.7391948131507096
1553.765625, 0.7418852475046038
1537.453125, 0.7481156018955093
1512.984375, 0.7042425895984538
1504.828125, 0.707414212150156
1486.4765625, 0.7224612860188088
1470.1640625, 0.7247360971192128
1462.0078125, 0.725457790400722
1427.34375, 0.7005231410576432
1417.1484375, 0.7015166307931913
1372.2890625, 0.6574671888097814
1327.4296875, 0.6390330219568457
1247.90625, 0.6972761774378472
1235.671875, 0.6889601968506095
1211.203125, 0.6849779513316117
1184.6953125, 0.6801980160934407
1152.0703125, 0.6883188512564481
1131.6796875, 0.6844096806106489
1115.3671875, 0.6894525317730856
1033.8046875, 0.7100634600638579
1007.296875, 0.7088717245317838
933.890625, 0.5917155768913929
880.875, 0.681626380466421
856.40625, 0.701202572719701
813.5859375, 0.7163776784369693
803.390625, 0.7166280770356748
778.921875, 0.7231950192867134
766.6875, 0.7242480535846686
754.453125, 0.7260346438975488
740.1796875, 0.7292825007790719
725.90625, 0.7339934737241457
719.7890625, 0.7340760261897862
693.28125, 0.7397730380258537
676.96875, 0.7475222973008512
668.8125, 0.7452671558392275
638.2265625, 0.7372635634158282
603.5625, 0.6196401139492311
558.703125, 0.7265658407584207
548.5078125, 0.7309332515605464
536.2734375, 0.7326523691273001
526.078125, 0.7358520637309653
517.921875, 0.7396711121204912
507.7265625, 0.7433425810784012
485.296875, 0.7565004856915175
468.984375, 0.7579186587955847
458.7890625, 0.7604953674821543
454.7109375, 0.7615858938950386
444.515625, 0.7553367646819307
436.359375, 0.766451838031956
432.28125, 0.766540708633416
422.0859375, 0.7642820508769342
415.96875, 0.7633386281113516
407.8125, 0.7715632946492543
##END=

##END=

