##TITLE=X8033
##JCAMP-DX=4.24
##DATA TYPE=INFRARED SPECTRUM
##DATE=30/10/2018
##SAMPLING PROCEDURE=Diamant-ATR
##ORIGIN=ComPlat
##XUNITS=1/CM
##YUNITS=TRANSMITTANCE
##RESOLUTION=4
##FIRSTX=3997.453
##LASTX=373.96442
##DELTAX=-1.4165319
##MAXY=1.0048612
##MINY=0.21248718
##XFACTOR=1
##YFACTOR=9.3584995e-010
##NPOINTS=2559
##FIRSTY=0.98821998
##XYDATA=(X++(Y..Y))
3997+1055959849+1056271932+1056633375+1056599301+1056212127+1055888707
3989+1055920043+1056293651+1056852916+1057346134+1057542173+1057508991
3980+1057446956+1057226715+1056604523+1055823488+1055443384+1055623055
3972+1056008891+1056275817+1056440521+1056633312+1056719867+1056330464
3963+1055388610+1054473443+1054388098+1055341734+1056707829+1057500010
3955+1057126339+1055907305+1054750815+1054273583+1054419179+1054772024
3946+1054931568+1054799092+1054820556+1055555607+1056698530+1057349446
3938+1057262827+1056753049+1055835717+1054512231+1053559422+1053795332
3929+1054661776+1054932651+1054339566+1053661645+1053668015+1054116331
3921+1054026528+1052935511+1051596421+1051313636+1052451719+1054218809
3912+1055889408+1057292571+1058221304+1058068702+1056377404+1053601076
3904+1051105941+1049981933+1050158356+1051287714+1053169637+1055113659
3895+1056171493+1055894630+1054722791+1053936533+1054315618+1054973158
3887+1054653368+1053215494+1051618904+1050430441+1049628770+1049863469
3878+1051472734+1053108240+1053289439+1051923726+1050155936+1049232871
3870+1049896206+1051877296+1053589930+1053789663+1052835135+1052118491
3861+1052305613+1052870738+1053334659+1053571269+1053198107+1051443373
3853+1048953588+1048626984+1050812074+1053680880+1055916094+1056743687
3844+1055846799+1053619037+1051070084+1049180517+1048626029+1049710039
3836+1051766984+1053448092+1053868321+1053151486+1052236064+1051966462
3827+1052528402+1053646487+1054633242+1054471915+1052638905+1050361910
3819+1049427700+1049778379+1050975886+1053038881+1055135632+1056063283
3810+1055532996+1054165628+1053121933+1053186897+1053415418+1052162947
3802+1049533999+1048013073+1049280256+1052103078+1054828708+1056544718
3793+1057014053+1056667004+1056185250+1055993924+1056045577+1056063283
3785+1055983924+1055933864+1055748588+1055090667+1054250845+1054107542
3776+1054869343+1055899662+1056625923+1056779799+1056301676+1055448543
3768+1054614899+1053989969+1053770938+1054114739+1054627765+1054617447
3759+1053927171+1053181165+1052826473+1052336376+1050805641+1047973202
3751+1045294958+1045009880+1046466734+1047315727+1046576663+1045080321
3742+1044342468+1044221520+1043581687+1041823641+1039277618+1037196280
3734+1036818914+1038260291+1040819880+1043540351+1045456540+1046005870
3725+1045446223+1044750341+1044841355+1046046250+1048013327+1049964291
3717+1051282555+1051703548+1051030850+1049282613+1047515587+1047422917
3708+1049036386+1050959963+1052126516+1052106454+1051058365+1049877163
3700+1049594377+1050270005+1051207273+1051878251+1052320071+1052809978
3691+1053238996+1053048307+1052172946+1051496555+1051480059+1051723038
3683+1051692721+1051151480+1050303570+1049423687+1048421837+1047614944
3674+1048131091+1049442540+1049665074+1048763727+1049250449+1052359750
3666+1055982651+1058028258+1058016985+1056637834+1054831192+1053140149
3657+1052082825+1052415161+1053764633+1054177474+1052129701+1048025683
3649+1044712446+1044744800+1047019375+1049734178+1052127790+1053739985
3640+1054412109+1054477774+1054235177+1053477007+1051953660+1049902512
3632+1047558896+1044716331+1042122221+1042297879+1045255024+1048067018
3623+1049147780+1048743219+1047876775+1047559151+1048108417+1048886395
3615+1049188733+1049043901+1048965753+1049169117+1049644247+1050726793
3606+1052389303+1053577319+1053405546+1052089639+1050525212+1049448208
3598+1048901108+1048423876+1047787099+1047474379+1047910913+1048493553
3589+1048305284+1047610358+1048055490+1050197398+1052414842+1053297082
3581+1053081999+1053074229+1053913031+1054786545+1054896602+1054684832
3572+1054703811+1054329949+1052593303+1049860476+1048221850+1049035622
3564+1050916144+1052187277+1052681514+1053141295+1054191358+1055589299
3555+1056305816+1055587898+1054067226+1053261288+1053622412+1054139833
3547+1053866792+1052907488+1052123714+1052340006+1053744507+1055652034
3538+1056971189+1057236077+1056917371+1056523573+1055975517+1055074808
3530+1053957742+1052944046+1052263896+1052050852+1052455159+1053530380
3521+1054879215+1055731137+1055728653+1055416316+1055541913+1056024495
3513+1056101242+1055416188+1054535350+1054284601+1054703557+1054934880
3504+1054269952+1053093718+1052485603+1052804054+1053388223+1053643940
3496+1053656741+1053750685+1053935259+1054002389+1053920483+1053904178
3488+1054164672+1054680246+1055154421+1055208685+1054745337+1054103975
3479+1053673365+1053528978+1053673874+1054212249+1054976342+1055406635
3471+1055140600+1054358036+1053376185+1052318670+1051331596+1050745836
3462+1050795132+1051350958+1052105753+1052918124+1053789217+1054556623
3454+1054910359+1054803105+1054547642+1054328356+1053887810+1052957294
3445+1051805453+1051052696+1051076325+1051709408+1052331281+1052356884
3437+1051806981+1051256251+1051121418+1051243003+1051280580+1051222240
3428+1051344971+1051788575+1052245617+1052145305+1051274530+1050110970
3420+1049358596+1049348341+1050025116+1051108680+1052082251+1052423695
3411+1052042636+1051330132+1050837168+1050936780+1051563302+1052236700
3403+1052487641+1052186449+1051422037+1050340956+1049218095+1048394068
3394+1048011480+1047943395+1047983711+1048007340+1047982246+1047881488
3386+1047641630+1047293244+1047131598+1047514249+1048330060+1048949194
3377+1048949003+1048640996+1048599279+1048954480+1049349424+1049335667
3369+1048759205+1047959955+1047410689+1047092046+1046750411+1046731877
3360+1047643796+1049109439+1049878373+1049383817+1048329486+1047541254
3352+1047103701+1046828814+1046744296+1046818878+1046823591+1046681689
3343+1046497305+1046235856+1045789832+1045175284+1044378453+1043417556
3335+1042730082+1042922810+1043983127+1045192034+1045812060+1045603793
3326+1044844412+1044066370+1043634167+1043460038+1043175406+1042566334
3318+1041794853+1041185145+1040850261+1040580659+1040002032+1038778030
3309+1036885789+1034825023+1033311166+1032665728+1032613438+1032509113
3301+1031739606+1030222437+1028454647+1026782519+1024967407+1022811870
3292+1020687923+1018998535+1017562699+1015914137+1013860823+1011456128
3284+1008748714+1005931688+1003492983+1001738122+1000252416+998329158+995898478
3274+993516266+991470531+989424669+986929279+983787369+979971423+975708371
3264+971695813+968693766+966725797+965128315+963542743+962360522+961962202
3254+962044554+962094997+962179514+962840938+964367788+966457279+968532057
3244+970273989+971989935+974336926+977368206+980095619+981573746+982174028
3234+983072508+984752979+986599427+987604588+987089588+985149770+982587569
3224+980060972+977377314+974015289+970077504+966226656+962856352+959860483
3214+957167526+955012753+953583350+952720345+952098918+951524876+951015035
3204+950704098+950725626+951247632+952648948+955399099+959539866+964438484
3194+969219212+973340553+976763848+979695453+982154284+983924112+985085761
3184+986203018+987551917+988581599+988633316+987835402+986826165+985905966
3174+985019014+984395485+984639291+986122768+988666244+991804269+995065280
3165+998056181+1000546284+1002478523+1003878629+1004829271+1005342425
3156+1005169887+1004147147+1002777995+1001902380+1001755318+1001919449
3148+1002085935+1002302992+1002642207+1003079059+1003603804+1004323251
3139+1005591390+1007843100+1010950682+1013931583+1015683642+1016011520
3131+1015735549+1015781916+1016292140+1016581803+1015842676+1013798470
3122+1010766616+1007306381+1003849458+1000526922+997277184+994016873+990547594
3112+986430711+981359555+975754164+970681607+966953618+964404792+962287151
3102+960337652+959113204+959140591+960164732+961482868+962632161+963476059
3092+963946221+964014880+963837438+963722668+963840113+963958896+963675219
3082+963015450+962648020+963388039+965521667+968571545+971699125+974398005
3072+976649715+978321396+978860217+977915434+975886704+973604232+971693010
3063+970241315+968882800+967353912+966049342+965710636+966594085+968412956
3053+971029102+974616781+979059950+983635786+987543892+990574853+993019036
3043+995125086+997020766+998941668+1001008167+1002947794+1004547823+1006133459
3033+1008101110+1010276009+1012117171+1013300284+1013902349+1014263219
3024+1014702873+1015264049+1015866560+1016563142+1017282398+1017608238
3016+1017338955+1016935922+1016944584+1017330229+1017755299+1018067254
3007+1018244314+1018269025+1018233231+1018265522+1018330104+1018268962
2999+1017928218+1017183232+1016078904+1014927063+1014021131+1013289711
2990+1012367092+1010876673+1008612416+1005576487+1001788756+997040701+991002598
2980+983470191+974283362+963241551+950299346+935464199+918374413+898542437
2970+876271119+852872800+829777710+807742302+787050123+768187260+752148556
2961+740365134+734574531+736365314+746194651+762662756+782909611+803784772
2951+822736356+838003642+848419122+853200423+851965912+844960479+833197056
2941+818260896+801892403+785651228+770766657+757892346+746775062+736505879
2931+726462223+716837268+708181108+700814933+694757022+689938080+686527842
2921+685157352+686637899+691446905+699666786+711203854+725701123+742278584
2911+759569569+776105758+790849509+803559881+814626086+824485167+833255651
2901+840920789+847723814+854239850+861025424+868278294+875866749+883546153
2891+891042257+898015399+904044968+908692264+911609984+912607758+911634823
2881+908762069+904201646+898342130+891899657+886065235+882276931+881618564
2871+884304706+889481970+895341294+899612435+900365128+896684142+888810100
2861+877675428+864219306+849105704+833024009+817061288+802738721+791818941
2851+786043242+786751479+794427572+808439329+827318561+849478420+873601154
2842+898246913+921537150+941747511+958091674+970712242+980230516+987463260
2832+993192910+997932048+1001941040+1005380703+1008335491+1010809480+1012828784
2822+1014476136+1015798221+1016809688+1017655432+1018637665+1019968922
2813+1021582709+1023262033+1024853592+1026315096+1027671128+1028941050
2805+1030033786+1030774696+1031086779+1031072831+1030934496+1030925961
2796+1031297722+1032112003+1033125190+1033936415+1034302125+1034330785
2788+1034364860+1034675287+1035307286+1036142968+1036962791+1037514604
2779+1037702172+1037688351+1037708478+1037826814+1037935215+1037961965
2771+1038030178+1038369839+1039118392+1040277748+1041739506+1043185723
2762+1044144901+1044409534+1044294828+1044281517+1044526088+1044853074
2754+1045058030+1045073061+1044937209+1044737603+1044578123+1044550608
2745+1044718560+1045080449+1045476794+1045603665+1045289417+1044765563
2737+1044479211+1044619585+1044985677+1045292092+1045390366+1045227000
2728+1044875366+1044591689+1044578377+1044740151+1044910586+1045168469
2720+1045663216+1046305661+1046882250+1047292671+1047512275+1047528007
2711+1047436993+1047435146+1047639911+1047997659+1048345918+1048529538
2703+1048509603+1048365663+1048156822+1047842000+1047411262+1047023260
2694+1046867028+1046924922+1047050456+1047238152+1047535267+1047753152
2686+1047653922+1047394066+1047360501+1047580742+1047703091+1047558769
2677+1047350947+1047250953+1047153507+1046932884+1046664556+1046477497
2669+1046399031+1046413043+1046481892+1046492146+1046358460+1046138919
2660+1045939887+1045814544+1045796329+1045913583+1046196432+1046724107
2652+1047485525+1048189750+1048499476+1048461580+1048446231+1048724303
2643+1049282804+1049889455+1050208799+1050025179+1049429228+1048702839
2635+1048138861+1048076190+1048799585+1050141542+1051452990+1052270011
2626+1052763547+1053237977+1053513693+1053255747+1052690049+1052452547
2618+1052776731+1053316698+1053760366+1054091556+1054220529+1053975575
2609+1053590312+1053605916+1054140979+1054801512+1055348549+1055877116
2601+1056302631+1056260022+1055692796+1055124614+1055068757+1055414405
2592+1055703623+1055819794+1055985517+1056235501+1056348297+1056217286
2584+1055909024+1055451982+1054818390+1054108242+1053656805+1053823292
2575+1054496499+1055067993+1055229066+1055356128+1055664644+1055701394
2567+1055340078+1055436442+1056588282+1057915272+1058012782+1056713116
2558+1055062070+1053916980+1053360390+1053196132+1053260715+1053325933
2550+1053178299+1052779088+1052219313+1051714885+1051622598+1052120784
2541+1052892393+1053384974+1053318163+1052843797+1052385863+1052352171
2533+1052826028+1053580950+1054404466+1055176967+1055690184+1055772281
2524+1055543314+1055204036+1054713620+1054059201+1053658143+1054008058
2516+1054913353+1055498667+1055255625+1054794952+1055164739+1056577264
2507+1058242959+1059380660+1059873241+1059875280+1059330854+1058220349
2499+1056977813+1056259958+1056322120+1056843999+1057307092+1057369636
2490+1057020613+1056638152+1056796295+1057747129+1059159591+1060483268
2482+1061326720+1061392385+1060531673+1059201308+1058369639+1058505490
2473+1058995269+1058983933+1058491160+1058259391+1058674397+1059262642
2465+1059353146+1058982659+1058770506+1058914319+1058855469+1058174746
2456+1057237479+1056585162+1056276200+1056201873+1056454915+1057010359
2448+1057559433+1057932978+1058225316+1058379192+1058158250+1057609176
2439+1057071310+1056678595+1056319191+1056112834+1056406383+1057208945
2431+1058084688+1058692294+1059015650+1059065838+1058791333+1058286778
2422+1057747511+1057311359+1057139204+1057348746+1057707768+1057790375
2414+1057562108+1057422563+1057662166+1058210540+1058827382+1059279456
2405+1059460400+1059434224+1059246146+1058805982+1058127170+1057426703
2397+1056833427+1056306707+1055933354+1055920743+1056220725+1056468481
2388+1056185632+1054755528+1051544450+1046475141+1040180620+1033287218
2380+1025938940+1018212214+1010434471+1002757614+994877776+986519941+977938362
2370+969691285+961926663+954211464+946553396+940287345+936893093+936120592
2360+936533306+937839086+941284736+947603778+956089375+965708917+975324381
2350+982886787+985983222+983340772+976174202+968347546+963491854+961967998
2340+962158751+962973669+964354986+966448426+968706250+970223227+971039738
2330+972191579+974114837+976044592+977338399+978434319+980337070+983746352
2320+988702165+994569387+1000185987+1004491012+1007332240+1009484784+1011800120
2310+1014581734+1017815996+1021551373+1025692395+1029661579+1032753684
2302+1034889414+1036695482+1038773699+1041144892+1043362337+1044916382
2293+1045653535+1046032811+1046753850+1047996768+1049399676+1050788572
2285+1052318160+1053774250+1054498601+1054271927+1053670944+1053296254
2276+1053107093+1052704188+1051978818+1051297586+1051053524+1051121036
2268+1051018558+1050667752+1050640110+1051392293+1052486940+1052939715
2259+1052386118+1051512987+1051108935+1051171925+1051314209+1051384778
2251+1051355289+1051460315+1052516174+1054902016+1057357981+1058195446
2242+1057592807+1057379062+1058683887+1060815222+1062378248+1062825291
2234+1062746124+1062971078+1063761412+1064775873+1065482072+1065641998
2225+1065476148+1065200114+1064675242+1063774023+1062625685+1061322835
2217+1060005081+1059186595+1059355630+1060381172+1061667973+1062737589
2208+1063590085+1064513596+1065346347+1065245844+1063688996+1061177302
2200+1058554341+1056359761+1054941249+1054346445+1054106969+1053670881
2191+1052891692+1051939457+1050952957+1049957922+1049312930+1049994162
2183+1052624893+1056297918+1059510652+1061904009+1063719249+1064251128
2174+1062600018+1059772420+1058357028+1059586889+1061733001+1062297425
2166+1061217809+1060721980+1062713769+1067206170+1072016705+1073741823
2157+1071378018+1067820464+1065860265+1065853387+1067117450+1068722384
2149+1069483993+1068971668+1067973385+1067235532+1066609328+1065400102
2140+1062947640+1059619690+1057491858+1058731145+1062978785+1067470167
2132+1069846519+1069778880+1068135859+1065831031+1063521363+1061701410
2123+1060809363+1061093931+1062150491+1062936622+1062828539+1062338442
2115+1062171318+1062091068+1061500467+1060637972+1060323596+1060770384
2106+1061274111+1061017885+1059996482+1059073099+1058978328+1059363145
2098+1059260285+1058402312+1057483069+1057071438+1056990806+1056924950
2089+1056927880+1057108123+1057400335+1057720697+1057792795+1057098379
2081+1055795464+1055195119+1056249895+1058029468+1058819102+1058351169
2072+1057782350+1057819290+1058105770+1058339832+1058865405+1059878209
2064+1060749366+1060567976+1059068004+1056745024+1054422682+1052986145
2055+1052988820+1053732533+1053280076+1050694884+1047962885+1048222550
2047+1052025885+1056798270+1060011513+1061456839+1062368185+1063004961
2038+1061891908+1058394096+1054837243+1053718139+1054076525+1053575982
2030+1052455541+1052324466+1053162759+1054157603+1055652034+1058078829
2021+1060077497+1059542816+1056438037+1053521781+1053947806+1058279835
2013+1063656705+1065927395+1063661991+1059796749+1057817571+1057575611
2004+1056841834+1055059267+1053507133+1053461849+1055184037+1057457083
1996+1058342953+1057387469+1056330973+1056940172+1058855979+1060147938
1987+1059186786+1055822151+1051705777+1049174849+1049127208+1050567503
1979+1052713423+1056125317+1060463842+1063359271+1063503466+1062218831
1970+1060840953+1059173029+1057094685+1055399756+1054540318+1054328930
1962+1054958573+1056912785+1059780890+1061884648+1061364106+1057820054
1953+1053098559+1050035306+1050073902+1052237720+1054344789+1054964369
1945+1054229191+1053163013+1052620371+1052806411+1053571651+1054770431
1936+1056135826+1057196080+1057533575+1057039019+1056071371+1055343199
1928+1055165121+1054919976+1053982581+1052853924+1052423059+1052488787
1919+1052404206+1052558210+1053641328+1054922142+1054995131+1053718075
1911+1052261094+1051477447+1050957734+1050065814+1049019253+1048297004
1902+1047778883+1047069436+1046203310+1045539019+1045332153+1045701112
1894+1046573797+1047526733+1048075999+1048203762+1048522532+1049801626
1885+1052147789+1054565348+1055644582+1055153274+1054308230+1054154418
1877+1054566558+1054963604+1055083470+1054829281+1053991180+1052451910
1868+1050725073+1049839267+1050110970+1050800610+1050985121+1050228925
1860+1048788949+1047459794+1047039055+1047623478+1048454765+1048588515
1851+1047706913+1046349289+1045423358+1045441191+1046300374+1047696595
1843+1049313375+1050750485+1051728961+1052195939+1052190015+1051700555
1834+1050649663+1049032883+1047220255+1046183184+1046741239+1048381394
1826+1049986201+1051121864+1051969838+1052555089+1052678712+1052502990
1817+1052510060+1052751574+1052766668+1052289436+1051488466+1050691699
1809+1050185361+1050061292+1050109760+1049976138+1049486613+1048848054
1800+1048476993+1048444384+1048297195+1047600677+1046315342+1044874028
1792+1044240500+1045006632+1046399540+1047329484+1047351775+1046577619
1783+1045448452+1044473798+1043884534+1043491246+1042947330+1042020444
1775+1040604225+1038946109+1037917382+1038163418+1039223417+1040360227
1766+1041081648+1041044516+1040179728+1038847071+1037670709+1036848848
1758+1036050298+1035146596+1034311869+1033333012+1031530383+1028709090
1749+1026018935+1024747930+1024651057+1024748057+1024528708+1024099944
1741+1023686657+1023253945+1022636275+1021618375+1019959177+1018207373
1732+1017804340+1018753900+1020044650+1021192669+1021913453+1022044400
1724+1021915873+1021829445+1021276485+1019536783+1016986301+1015568935
1715+1016499961+1018547480+1020405074+1021686015+1022221842+1021694676
1707+1020165279+1018621297+1017744471+1016726444+1014632941+1011901324
1698+1009617132+1007735718+1005946273+1004242428+1001989062+997944404+991385887
1689+983105563+973515256+959398664+937371344+914458282+899051195+889075179
1679+881158846+873167486+862256686+846326702+824967685+794395408+747443747
1669+688108637+634738514+595920243+570543127+561832893+574144309+602348577
1659+636381153+669356149+699662519+734117744+780851966+821550759+842347008
1649+854921656+869478157+887182428+901808989+911017918+917046850+921523456
1639+924895480+927656650+930950398+934877929+937368669+936925830+932747868
1629+923760836+909202424+887663864+853884458+802618346+741451692+685786995
1619+640635543+606952246+596098894+617029147+659654384+711213790+762933631
1609+806755228+838547749+860153375+875727585+888527951+899989100+910106891
1599+918534148+924763132+927753204+926419591+920293468+909774491+896869800
1589+885689080+880602447+882988416+890053909+896834770+899366017+896321171
1579+887414389+869716104+837581884+793723538+750235297+707290016+653893206
1570+586232935+519615020+467767671+428676359+399588896+381339849+375223948
1560+388169114+425402195+466621148+502810503+540066003+578983313+617887184
1550+656011867+690570971+719296100+744032872+767050514+788248904+809184443
1540+831246920+847330335+853065208+849739933+837398201+817465785+794784047
1530+770768249+742425518+708763557+674667864+646444170+627783779+623241062
1520+635788068+663616499+704082313+749643231+789014717+818172621+839203059
1510+853931971+864909455+877720202+892689035+902366216+906625256+909502724
1500+914425481+923772682+937353829+950997520+960308927+964766171+966014057
1490+966268564+967853945+971176800+974580605+976700540+977274645+976843079
1480+975813460+973470545+968359073+958917993+942143219+913121803+872906101
1470+832409206+798945704+773724438+759080809+757389893+764168142+772062629
1460+779436001+789734546+807829812+831118584+850234871+864473494+876949485
1451+888219499+897493774+904529142+909376745+911490246+910020527+904679324
1441+895977243+883629524+864790799+836885557+803182325+767528256+728934811
1431+688309007+653367824+632373690+627591688+638858327+664333143+698481890
1421+737522441+781556127+825261425+858916317+881840525+898739113+912362741
1411+923541041+932325601+938457456+941995011+943200161+941834575+936892520
1401+926764220+910629152+891118367+873796047+863163574+860360687+862223185
1391+863275669+859437686+849539882+835460039+819479484+801267855+781032783
1381+763756256+756719997+762261634+775361855+788092798+794093261+790785246
1371+779013989+760954070+740356599+722643921+711745986+709227159+716112281
1361+731328424+750527954+769939000+788363164+805738475+821875835+836345527
1351+849187738+861306044+873660705+886151599+897550523+906507110+912723292
1341+917434852+922725995+929683723+937091361+942887696+946127881+946876943
1332+945214560+940818204+933321336+922904137+910597626+898056861+886701630
1322+876706570+866685907+854146798+836132291+809698297+772507825+724093833
1312+666829934+604990900+543335868+486950132+440306542+405010540+379790421
1302+363678887+358596904+368551743+396501154+441474623+498063691+558936446
1292+618374989+673807279+724578899+769915180+808373473+838922057+861858303
1282+878609129+891014360+900653455+908373302+914256829+918092901+919927057
1272+920204110+919457786+917926351+915447839+911647243+906277634+899534924
1262+891944686+883678311+874078641+862231146+848073347+832920067+819251218
1252+810037830+807415251+810821987+816052496+816907667+809017256+793047274
1242+774461145+759577848+750975952+746413619+742677477+740593400+745261651
1232+760671540+784745295+810187439+829343469+837556472+833247945+817319489
1222+793296813+766414948+740898350+718116872+697726841+679962573+666166280
1213+657532921+653916899+653791047+655414770+658491079+664859099+677230001
1203+696882561+722455397+750750552+778323139+802373712+820887169+832535313
1193+836269735+830655937+813787092+784653327+745489790+702447954+662293204
1183+627931222+598692494+575271692+561734046+560685384+568062577+575186602
1173+576253798+572932535+571962340+579547037+597760194+624049548+651970585
1163+672336732+676287128+660723363+632288090+604858042+591280971+596515748
1153+617555103+648041907+682290202+716494869+748199816+775536748+796958245
1143+811482328+819072566+820804881+818679406+815013005+811555891+808922293
1133+806849936+804874897+802420779+798136709+789456028+773115240+746087715
1123+705940226+650797917+580291896+497665912+410805633+330536926+267774063
1113+231538405+227052612+252910335+300039899+355822933+410970177+462725367
1103+512045514+558900333+600588684+633183641+652880083+656098168+640365623
1094+607052749+563694818+522628977+495511935+487442491+495588045+513266299
1084+535196682+559247637+584432981+608329678+626206868+631493298+616948006
1074+577676195+515981643+443692259+377690167+331254207+308505116+305796682
1064+317382600+339788591+371731581+411276018+454151176+494932385+529653899
1054+557659899+581385460+604179294+627799956+651495964+673226805+691794909
1044+707862720+723036700+738347040+753798710+768937596+783367163+796877040
1034+809391246+820721320+830289080+837348778+841673036+843967164+845717376
1024+848735154+854389140+862695258+872252319+881435199+889564704+896809039
1014+903388511+909229301+914206259+918482368+922565495+926964271+931747802
1004+936501397+940727509+944219717+947011457+949015985+949842559+949012291
994+946211570+941191494+933509223+922680074+909020015+894501282+882341322
984+875169084+873418872+875375887+878479264+880823453+882276103+884610611
975+890221479+900201635+913294722+926588817+937495477+945406332+951481503
965+956964418+962005575+965992785+968532184+969922672+970801281+971414301
955+971267049+969348249+964479374+955864166+944420341+933865443+929267825
945+933393370+944543327+958152944+970067377+978245668+982199376+981581325
935+975603855+964172068+949466467+935252110+923953054+915347400+908834166
925+905830464+908472150+916240657+925155719+930718756+931162678+927671107
915+922063169+914746863+904742250+891542545+877062981+865555785+861221909
905+865809463+878207561+895474216+913920926+930088985+941828397+948842237
895+952136368+952919760+951963576+949628432+945849235+939763364+929975808
885+916325366+901640847+890829595+887397192+890865898+897717901+904427174
875+909316430+912223832+913490188+913630243+913454840+913877235+915412810
866+917949279+920936231+923676383+925610277+926575442+926766003+926405898
856+925606647+924403982+922527090+919222195+913821824+906566215+898489191
846+890383507+882043442+872527462+860906514+846718525+830498049+814957531
836+805266465+806280034+818435917+837146306+856709891+873928841+887908562
826+898184560+904231644+905827152+902823832+895152834+883884922+871932466
816+863017277+859630795+861662200+866639668+870730119+868590377+852926491
806+817659468+764730846+708109456+669454042+666625997+701904612+759255384
796+815500364+856141326+880128909+892829855+899390156+903599835+908116885
786+913967420+920646631+926925930+931584372+933773538+933081032+929742128
776+924909683+920185576+916881064+915940930+917717255+921177872+924179027
766+925166355+924160939+921799936+917773303+910596861+898978652+882774990
756+861812828+833818610+793692521+735158381+655535654+562423813+476344059
747+423573167+421667741+468319962+543443505+622900891+691475566+745498324
737+786787400+816312480+832954905+834915040+818599665+777732793+711625293
727+637861954+588074288+582942308+615401603+661942143+704437897+737844141
717+763433155+782227742+794466041+801107865+804062972+805185451+805624787
707+806085141+806849044+807380285+806771151+804790061+801944056+798743041
697+795478208+792435145+789847660+787818229+786541301+786442517+787911408
687+791002112+795542918+801382434+808239787+815338208+821365803+824936604
677+825496952+823810558+820739089+815425973+805517469+789512712+770993013
667+759370600+756022078+753643688+749517251+746026127+745981288+749861307
657+756644206+765446026+775853735+787526018+800067419+813471889+827991577
647+843134094+857509969+869966153+880375264+889234596+896825790+902976816
637+907479153+910354392+911698960+911522219+909582974+905033124+896357092
628+882419725+864388149+846308359+832242719+822104356+811015032+793714048
618+770739143+750911880+746222548+762497225+794901683+832041076+864071353
608+887584952+904349917+917383964+928370364+937312558+943691723+947693199
598+950187442+951949755+953495202+955386234+958095049+961637827+965609305
588+969461554+972636775+974654295+975187702+974020066+971211193+967589503
578+964732033+963993352+965447276+967774523+969004002+966741465+957801755
568+938934051+909123575+871831772+835432907+810191834+801665793+806315318
558+815821109+826181942+840620998+862985941+890836346+916705024+934560496
548+943663636+946865288+946899999+944941520+941363903+936113141+927934467
538+914672345+896228055+877562441+867439173+872616182+892362622+918835595
528+943274933+961208235+972418444+978428269+980649152+979812070+976723277
518+973522453+972957010+975383295+977919191+977341010+972834215+966141438
509+960226575+958238544+962296768+971470604+981151287+986490580+987715473
499+989086982+992671477+996623338+998696014+999063317+999435906+1001001415
489+1003634312+1006069896+1006670178+1005124604+1003528968+1004285483
480+1006909399+1008291226+1006249694+1001993712+998478384+997282406+997537232
470+997431060+996329152+994965350+994179474+993842425+993000756+991041513
460+988785727+988435621+991384995+995493789+997563026+997708941+997929501
450+998400109+997555065+995333926+993829942+994387105+995681294+995378191
441+992812106+989153793+985835078+983897999+983883096+985350267+987074684
431+988313717+989302447+989892092+988768021+985090092+979989065+975046500
421+971240235+971426848+978505461+987961446+992946683+990879612+982459743
411+969846371+954628509+938067607+923574287+916206137+918457656+927328835
401+935957418+938742471+938619230+945563520+958678390+966996991+966491926
391+961341030+954310057+943466514+928868614+917515038+916842532+924486524
381+931882507+933372480+927612831+917684455+912168995+915254921
##END=
