##TITLE=X7722
##JCAMP-DX=5.0
##DATA TYPE=LINK
##BLOCKS=1


$$ === CHEMSPECTRA SPECTRUM ORIG ===
##TITLE=X7722
##JCAMP-DX=5.00
##DATA TYPE=INFRARED SPECTRUM
##DATA CLASS=XYDATA
##ORIGIN=ComPlat
##OWNER=
##XUNITS=1/CM
##YUNITS=TRANSMITTANCE
##XFACTOR=1
##YFACTOR=8.4211582e-010
##FIRSTX=3997.453
##LASTX=373.96442
##MAXX=3997.453
##MAXY=0.9042149757439398
##MINX=373.96442
##MINY=0.44984856144859536
##NPOINTS=2559
##XYDATA= (X++(Y..Y))
2559H74593996H74995458H75390126H75243470H74757356H74477351H74656565H75153863
2551H75649533H75828393H75652435H75487306H75636722H75882681H75868383H75667369
2543H75533879H75400176H75100635H74794090H74749924H74966226H75257414H75490774
2535H75646772H75828818H76173727H76625513H76875790H76580356H75670342H74556978
2527H73935109H74203930H75072750H75766956H75698864H75015701H74498090H74771582
2519H75544991H76121633H76287470H76035069H75256494H74349379H74301322H75272207
2511H75973562H75507407H74542681H74265013H74925457H75651373H75655691H75078837
2503H74688275H75031910H75833418H76484520H76903748H77375706H77730737H77283056
2495H75791163H74020681H73074499H73271125H74234153H75677349H77096764H77682607
2487H77164217H76144636H75705873H76339422H76990736H76597697H75640615H75062557
2479H74754949H74249936H74118640H74833939H75454040H75205600H74466664H73502999
2471H72222879H71380389H72204971H74105051H75225067H75281479H75234977H75500117
2463H75628794H75291105H74530011H73497832H72697810H73294128H75781678H77927788
2455H78377592H78167023H78005433H77681050H76740105H75116916H73267657H72003108
2447H72207587H73907009H75692850H76438584H76388189H76129136H75812255H75514485
2439H75482068H75493535H74865082H73768281H73538884H74613744H75424383H75568349
2431H76271615H77540340H78019022H77317030H76109810H75341429H75840001H77023790
2423H76927176H75210487H73783357H74119702H75390547H76763675H78360888H79683335
2415H80002834H79597620H79087229H78575350H78024331H77675670H77596539H77344209
2407H76647526H76005908H76119863H76799277H77107876H76687021H76049296H75953602
2399H76748953H77854531H78267176H77881356H77286099H76690064H76044979H75665883
2391H75855643H76136355H75765895H74692875H73316212H72309301H72512367H73330368
2383H72979441H71667471H71234512H72383902H73081223H71869758H69481796H67193561
2375H66383559H67875806H70590347H72781259H74180077H75112740H75644154H75870224
2367H75931094H75793428H75487943H75228323H75047977H74816315H74486340H73973542
2359H73228586H72717345H73329731H75060009H76726657H77461774H77090394H76008952
2351H75158322H75330246H76273243H77227706H77784600H77768463H77278597H76877205
2343H77272864H78754635H80571336H81273045H80426945H78755909H77103346H75870294
2335H74908895H73964270H73365259H73898091H75080465H75227120H74441466H74389726
2327H76155890H78726533H80559374H81088947H80484135H79363549H78215507H77128119
2319H76388472H76401496H76560467H75821315H74321282H73325696H73886979H75255432
2311H76354710H77362329H78481921H79445724H80005099H80285740H80438058H80205547
2303H79125237H77003335H74190765H71795511H71709938H74354549H76932060H77722102
2295H77239031H76415085H76157660H77008926H78229733H78517948H77805056H76975518
2287H76691197H77007723H77935715H79490672H80883332H80974780H79750717H78262858
2279H77374715H76959027H76516796H76081996H75948789H76005837H75801780H75170496
2271H74569648H74910381H76610791H78679396H79857523H79772800H78855071H77976909
2263H77649482H77606590H77619259H77969689H78583915H78722289H78104949H77616711
2255H78204394H79156168H79243156H78749044H78672389H79367941H80292252H80693431
2247H80280361H79345288H78543004H78340150H78550011H78730570H78763055H78738568
2239H78694540H78845587H79567114H80758902H81679745H81718957H81044710H80241007
2231H79682698H79505253H79642070H79696783H79303885H78750884H78762633H79623877
2223H80783462H81380701H81081232H80368128H79931276H79788725H79398659H78641812
2215H78139985H78417087H79205784H79879253H80150551H80136820H80024846H79845208
2207H79586650H79333188H79163954H79088290H79212579H79717946H80524692H81242964
2199H81576194H81537478H81208069H80608707H79894329H79373674H79181719H79201113
2191H79404321H79919031H80584289H80878873H80584713H80040064H79504050H78895911
2183H78363932H78360463H78894071H79431005H79696146H79874086H80018830H79962206
2175H79775065H79736632H79875289H79964259H79902681H79794317H79700180H79592383
2167H79544536H79693668H79940760H79959729H79634143H79246129H79088007H79127502
2159H79186249H79247474H79461865H79898929H80302017H80223525H79601088H79004063
2151H78990898H79473119H80015150H80390919H80592641H80621872H80452285H80087203
2143H79675195H79534344H79865521H80454337H80814676H80615148H79931417H79152771
2135H78624117H78361168H78177710H77986535H77859131H77920710H78265902H78818337
2127H79266372H79344937H79211093H79332905H79903530H80571407H80941796H81119949
2119H81392450H81612716H81339507H80464174H79406162H78794059H78940927H79485789
2111H79817037H80016919H80789408H82181502H83146794H82860420H81787896H80894586
2103H80456814H80233788H80178084H80344062H80519879H80445913H80132290H79725519
2095H79324907H78999250H78767517H78618738H78681449H79212932H80275406H81477457
2087H82182139H82103361H81650584H81498548H81841830H82216467H81986079H80984972
2079H79775702H79180587H79517923H80472952H81558358H82319451H82373030H81763333
2071H81110040H81048603H81644284H82404245H82718224H82345993H81566710H80816658
2063H80287297H79967515H79850799H79924764H80112896H80340948H80570345H80710913
2055H80651883H80536088H80813968H81683779H82615735H82926386H82725726H82682338
2047H82949673H83052091H82780226H82451738H82297226H82263748H82439564H83009694
2039H83706732H83911851H83433522H82718365H82201320H81847988H81434918H80993888
2031H80844758H81264481H82135070H82915203H83122375H82943657H83075307H83755641
2023H84325346H84104726H83329759H82734432H82569162H82512252H82246194H81774448
2015H81375817H81386788H81841618H82334315H82467664H82363193H82457613H82838549
2007H83125631H83053224H82827295H82767061H82871886H82961493H83039846H83253105
1999H83494605H83337828H82623237H81934127H82062309H83056692H84208347H84893494
1991H85041565H84910552H84708688H84384164H83794003H83188554H83190041H84000255
1983H85016226H85536810H85485138H85226512H85006246H84811956H84572225H84297246
1975H84121642H84254425H84732541H85267493H85563211H85669805H85754669H85761323
1967H85594708H85325674H84940775H84331291H83714871H83559369H83966210H84553752
1959H84922797H84949481H84772319H84628778H84521901H84160571H83497790H83044872
1951H83293096H84086323H84846425H85193529H85190414H85166916H85417122H85915552
1943H86316801H86345821H86116000H85942094H85930982H85904298H85703142H85431844
1935H85305290H85334097H85327090H85225663H85267847H85678015H86277236H86586826
1927H86336478H85684669H84818680H83556396H81559349H78795758H75581584H72311849
1919H69401815H67401226H66880999H68031875H70372628H72969533H75058948H76453023
1911H77386111H78130005H78783018H79331629H79864884H80625695H81701757H82789215
1903H83484342H83715721H83752951H83896067H84171966H84251098H83811698H82999856
1895H82240815H81671180H81174234H80805687H80717920H80835273H80993961H81240557
1887H81743305H82488614H83193013H83577842H83779918H84310340H85417829H86692287
1879H87481692H87432147H86448522H84416439H81268303H77376910H73774297H71715672
1871H71809384H73644063H76238349H78644077H80259339H81007480H81183437H80758973
1863H78992879H75254299H70228024H65830629H63752610H64236955H66310090H68913011
1855H71472756H73636206H75160020H76220512H77317596H78710964H80260047H81729574
1847H82928227H83750828H84340634H84947994H85546787H85879737H85823680H85485565
1839H85152547H85257938H86021155H87011928H87387909H86593054H84619081H81649310
1831H77662293H72543369H66670075H61133693H57051973H54823689H54246481H54965390
1823H56565505H58650956H61079476H63866070H66867904H69846662H72692855H75268809
1815H77158059H77840162H77017066H74655291H70917490H66199249H61048616H55955384
1807H51375022H47888064H46015730H45847063H47027313H49007019H51206779H53161288
1799H54664647H55705815H56302771H56533442H56620359H56828947H57317538H58068935
1791H58880423H59485164H59760426H59727016H59332493H58401528H56841828H54804437
1783H52658328H50887351H49944212H50027447H50970234H52398283H53965061H55390563
1775H56445885H57069527H57416346H57678302H57958519H58350779H58966845H59804451
1767H60733505H61690304H62801969H64230585H65900135H67474627H68676253H69552080
1759H70348209H71241094H72318290H73674357H75324867H77065621H78608121H79884133
1751H81049948H82157720H83062071H83767673H84592327H85781637H87121637H88023794
1743H87794892H85723102H80966852H72612379H60429365H46041777H32940539H24559452
1735H22136949H24468784H29366805H35051966H40483665H45072026H48514251H50860171
1727H52447192H53625531H54597902H55496732H56445813H57480473H58499558H59367458
1719H60060674H60683959H61342563H62014970H62545251H62775002H62743788H62737842
1711H63027968H63600150H64234124H64741472H65056229H65250731H65502424H65932976
1703H66518324H67195048H67891024H68455775H68772018H68905650H68977845H68987330
1695H68877126H68683473H68546019H68584877H68786032H69065541H69441876H69984473
1687H70584472H70993578H71140375H71227151H71448762H71723458H71789353H71559390
1679H71228141H70929523H70496139H69783034H69058957H68782423H69054004H69542950
1671H69949933H70314094H70779965H71280094H71633780H71810658H71875634H71811154
1663H71611272H71407214H71309538H71250013H71112983H70922586H70856266H71105905
1655H71662446H72220401H72466361H72474429H72630782H73187817H74050550H74953061
1647H75686692H76182716H76446087H76429666H76052269H75387648H74750136H74496462
1639H74723311H75201002H75660291H76086951H76567545H76949542H76989604H76806001
1631H76792482H77049625H77264016H77188636H76925477H76678032H76497965H76362850
1623H76290725H76293132H76353224H76460030H76561033H76569597H76531164H76598900
1615H76754757H76807983H76728781H76722623H76961292H77446698H78052360H78558576
1607H78806587H78869510H78908085H78942626H78937034H78918985H78851462H78574572
1599H77961691H76994558H75793853H74773706H74535603H75272419H76423933H77206755
1591H77383987H77292682H77264441H77319083H77421996H77722810H78298531H78845162
1583H78964568H78687819H78403781H78396844H78743947H79416212H80143331H80478968
1575H80297348H79925329H79600098H79156168H78460758H77868403H77928778H78698790
1567H79603283H80047425H79968930H79718087H79611210H79695792H79840112H79970771
1559H80133918H80345974H80643814H81230790H82094089H82639517H82374518
1552H81699068H81296119H81207078H81259314H81745216H82802876H83681747
1545H83427857H82009790H80261250H79047026H78803402H79478569H80562984
1538H81425788H81830364H81960528H82010356H82091541H82444236H83276038
1531H84372414H85184964H85327302H84894980H84409644H84409712H84931502
1524H85512391H85781778H85739452H85454776H85008157H84728294H84880187
1517H85162173H85119493H84918621H85052819H85437931H85469357H84923858
1510H84279481H84108194H84446874H84787820H84593388H83839727H82984355
1503H82330493H81656812H80700084H79780303H79562655H80229966H81190162
1496H81679603H81488569H81036287H80851765H81112375H81663819H82238550
1489H82488685H82112562H81288401H80735757H80932167H81446738H81404341
1482H80532903H79504616H79216755H79821001H80567655H80705817H80361474
1475H80221047H80533540H80926083H81143448H81393795H81855278H82381312
1468H82875850H83482360H84216628H84807992H85057207H85059826H85047723
1461H85216957H85619056H86053784H86193220H85955047H85682474H85839322
1454H86543225H87492165H88337984H88930551H89205176H89133194H88826010
1447H88434882H88068739H87977079H88402535H89041888H89198382H88691670
1440H88086788H87915784H88146030H88447056H88621103H88784602H89196683
1433H89813173H90156950H89859605H89088815H88218508H87454018H87021625
1426H87259300H88210086H89412278H90195525H89988282H88587341H86463528
1419H84491324H83047420H81694396H79947767H77951569H76160845H74683391
1412H73169769H71274078H69102700H66956874H64718397H62232830H60311729
1405H60129613H61471595H62906015H63778090H64729723H66229967H67853157
1398H69061011H69782893H70142949H70185275H69915746H69359064H68582612
1391H67768856H67163268H66867126H66874062H67314949H68294751H69472382
1384H70243948H70402002H70209198H69838313H69226848H68497959H68050137
1377H68215195H69113671H70739550H72809925H74676738H75836037H76400363
1370H76784626H77134277H77358082H77568934H78158741H79287818H80454054
1363H80966428H80908318H81160718H82326175H84052066H85430354H85722819
1356H84918337H83911851H83752455H84517796H85418325H85961983H86304627
1349H86589798H86783027H87036630H87490682H87903044H87988616H87825965
1342H87640239H87579581H87757662H88090539H88232310H88082753H88050265
1335H88389509H88636958H88143057H86971371H85926452H85692667H86193574
1328H86889904H87367313H87428679H87156106H87206289H88351220H90349117
1321H91998565H92655613H92881541H93192830H93016447H91541117H89070554
1314H86847365H85861264H86238094H87315290H88101861H88297003H88736545
1307H90045897H91422278H91720966H90975163H89961386H89117268H88520454
1300H88237123H88383850H89132203H90581699H92528492H94455538H95643008
1293H95474836H94121671H92642306H91908675H91731584H91253893H89922882
1286H88048496H86520293H85873225H85708097H85077804H83434938H81466132
1279H80874839H82577868H85370902H87493371H88841723H90035351H90163671
1272H87623252H83244895H80522498H81904824H86155849H90133805H92144654
1265H92610667H92758668H93692534H95258533H95554251H93735002H91998211
1258H92357347H94311006H96383576H97697245H98020354H97528648H96430927
1251H94622012H92274677H90129346H88456470H86917579H86149408H87868503
1244H92420624H97688327I01323003I02789273I02801869I02100871I01169411
1237I00347376H99894457H99985551I00411644I00454820H99686011H98693044
1230H98314231H98427974H98231773H97441023H96500787H95802758H95206652
1223H94295860H93018075H92005926H91877815H92257547H92194129H91583655
1216H91248018H91550318H91955956H91971103H91627468H91171505H90945294
1209H91239241H91713677H91559873H90838416H90855828H92394153H94344981
1202H95116903H94774188H94527026H94674885H94566238H94289136H94871156
1195H96690901H98747474H99675678H98834320H96511120H93863255H92558857
1188H93504827H95439446H95536556H92332716H87685609H84982888H85567457
1181H88043470H90847193H93714334H96515155H98174583H97431963H94254807
1174H90215131H87411054H86953181H88453780H90648019H92138355H92116343
1167H91311295H91710846H94297417H97500337H98959671H98350754H97351062
1160H97452985H98885423I00791306I01514745H99929989H97105528H95172465
1153H94456883H93518912H91921345H91104619H92512355H95775649H98825473
1146H99822118H98912036H97731857H97542380H98372908H99528668I00107363
1139H99381376H97417100H95081655H93407717H93432207H96106686I01040521
1132I05585352I07044757I05591156I03423671I01786114I00335981H98997821
1125H98627573H99469992I00633538I01472206I02149921I02816524I03151311
1118I02637520I00970308H98675278H97236470H97844679I00038494I02046229
1111I02443657I01284923H99801241H99271878I00067231I01687305I03383256
1104I04508794I04771315I04245635I03084778I01699126I01006052I01537677
1097I02502899I02741780I02290631I02080203I02443940I03096455I04107402
1090I05537859I06437397I05585847I03096315I00539401H99308119H99275206
1083H99631299I00152591I00805745I01115689I00771771I00185146H99902809
1076I00028585I00430542I00952825I01350748I01364338I00934493I00473506
1069I00824289I02414991I04441199I05449880I05020955I04115613I03642166
1062I03592268I03563461I03401376I03292587I03498768I03894143I03879209
1055I03338594I03063686I03570044I04494001I05155224I05265003I05059884
1048I04937789I05159259I05761522I06501523I06936181I06811255I06384595
1041I06203612I06560200I07214203I07662876I07790137I07898996I08212621
1034I08594477I08584568I07812079I06398327I04946566I04248325I04651202
1027I05708721I06824208I07669600I08080546I08079272I07905296I07892131
1020I08194572I08576216I08689676I08488024I08127827I07704919I07355975
1013I07319807I07577940I07765435I07641075I07403893I07383225I07589477
1006I07813141I07976854I08179354I08514567I08840861I08876675I08670068
999I08455465I08182681I07583532I06704873I06021638I05836620I05941441
992I05975560I05818995I05604958I05659671I06264341I07217530I08134622
985I08837605I09071602I08719686I08239800I08251479I08653578I08848010
978I08725773I08434444I07891635I07109025I06349206I05796063I05458444
971I05347814I05381999I05360485I05297632I05481660I06050940I06632112
964I06695813I06244381I05819632I05951778I06435203I06926272I07676465
957I08672901I09418635I09729428I09895548I09988482I09724261I09091775
950I08700646I09298876I10624791I11901655I13005959I14016126I14732132
943I14963370I15047456I15594511I16488883I17118680I17448584I17830086
936I18191204I18618499I19577423I20645558I20982398I20530966I19520091
929I17779903I14656257I09139268I01485796H95891091H95061482H97018327
922H99717153I02387741I05001420I07354559I08912136I09940847I11652085
915I14468974I16914905I18007743I18356333I18840324I19277600I18545597
908I16208737I12867514I09598628I08246029I10885472I14540390I15465622
901I15114413I15894263I18636478I21328157I22424743I22316877I21677950
894I20902205I20480429I21313859I23409007I25127395I25792440I25949783
887I26227381I26855904I27605107I28337393I29287892I30359071I30924883
880I30859483I30970041I32181576I33957295I35131529I35656855I36150119
873I37079951I38331901I39438682I40247410I41040000I42036577I43048868
866I43741375I44125638I44637658I45675712I47099727I48386217I49257940
859I49922348I50717486I51701533I52673906I53479378I54080368I54376227
852I54305872I54318188I55519106I58120965I60364679I61287504I61700998
845I62905951I65039107I67053566I68447712I69153173I68920237I67841980
838I67539893I70331088I73975884I76237718I77877045I79462792I81049176
831I82655944I84071891I84894067I85073989I84968739I84923723I85581476
824I88194379I91799752I94179717I95385448I96829138I99452304A002278888
817A004116823A005218154A006352822A007646249A008629095A009430179A011011183
810A013667826A016848592A020732836A025345120A029293986A031205885A030843564
803A028559506A025658389A026655675A034948217A044536804A051619013A057148672
796A062100627A066878747A071317125A073741823A071372404A059861372A030257226
789I72252684H91713748H13484847G50795684G00709684F60476137F32607861
782F20769756F24007145F37091184F55179768F76595631G01663227G26961989
775G46047079G58613011G69524186G83512647H00874253H15078097H19582441
768H12844362G95841538G75277438G66617479G71865506G78617670G79850226
761G73660831G60531422G43492925G27716500G18267278G18720763G30284668
754G49641693G68905148G76778815G63678001G37632443G18154385G13223664
747G19295352G27032911G28419905G23905654G19510310G20019499G25644568
740G34615178G46524558G60140294G72119180G81370290G89090079G96184465
733H02857569H08937964H14253726H19211485H24480816H29819228H34379840
726H38113185H41575300H44982773H48279051H51717950H55492698H59134027
719H62132323H64737650H67796320H71824531H76343527H80671135H84644066
712H88350866H91928635H95489275H99110148I03120734I07966449I13449959
705I19042966I24851708I31183017I37858951I44880786I53100707I63280375
698I74507366I84526296I91065767I90828726I77792959I44928704H89642099
691H17629065G42000325F78712862F39474618F26379254F32512521F47831214
684F65528457F83681662G02281558G20482468G37104993G51710794G64377587
677G75327125G84850027G93309677H01105349H08497148H15504756H22078768
670H28279771H34239841H40026783H45558353H50678834H55340097H59619080
663H63518966H66835275H69247586H70554530H70908996H70868935H71207899
656H72674099H75764621H80536583H86589798H93247330H99837905I06015126
649I11898612I17823504I23932564I30067247I35945919I41174128I44840866
642I44884608I37690283I18726156H85013678H38666965G88362680G46111842
635G21028604G14908431G22935053G38259126G56065935G74434452G92940140
628H11235046H28705652H44821253H59434982H72761087H85115742H96654945
621I07326318I17011803I25652297I33299257I40105851I46276560I52083816
614I57933328I64243825I71192688I78601262I85921929I92199445I96167775
607I96519975I92086622I81645423I63350022I34560125H93471985H42116976
600G87231197G36706221F94861800F61681514F36134244F18709149F10219486
593F09476229F13197044F17729771F20386272F19781742F15812563F09581974
586F03157661E98962270E98889720F03673928F12796219F24846309F38300171
579F52263364F66517178F81002370F94903843G05494316G08899665G04200464
572F96370609F92810960F96559166G03740184G07369973G03664165F95873029
565F91814100F96539985G08161363G21251064G32324608G41082171G48398308
558G54882500G60759970G66043032G70626084G74351003G77076443G78722636
551G79223543G78568336G77132501G75932220G76242801G78702676G82784891
544G87308630G91487742G95321237G99099737H02916316H06661833H10212493
537H13554777H16796343H20058576H23396685H26792620H30111760H33133838
530H35735910H37928379H39689518H40958384H41815597H42539601H43525915
523H45178974H47698870H50921962H54519903H58367059H62583755H67253583
516H72232929H77266210H82213777H87147967H92256840H97656689I03282537
509I08998275I14802629I20810545I27022803I33264009I39354950I45165745
502I50493186I55051889I58639921I61255936I63004547I63715033I62390463
495I56793422I43180872I16450733H72158611H11042596G42578665F82021668
488F41022922F20213782F11298734F05915091F01869826F01753818F07861534
481F19717121F35240368F52436420F69838724F86403139G01566330G15336577
474G28127305G40321998G51993417G63077012G73562872G83350350G92199714
467H00022420H07056641H13659673H19934853H25181110H26809678H19385957
460G96409970G55970171G05154574F56505258F19060074E94269156E79977298
453E74723397E77281125E85177866E95563573F06581059F17367662F27512011
446F36837227F45345575F53132892F60327358F67080654F73554938F79800745
439F85651601F90885825F95492800F99682317G03691629G07649272G11536843
432G15245413G18710430G21932955G24848439G27348092G29514515G31663172
425G34054533G36700983G39470661G42178123G44582507G46549968G48214066
418G49791463G51332335G52801154G54230690G55677568G57180290G58790243
411G60496174G62152346G63588607G64779542G65912656G67265608G68886887
404G70455009G71619830G72386656G73025513G73754402G74642827G75667433
397G76739957G77739012G78624889G79529595G80624272G81847412G82925106
390G83765614G84663878G85977477G87647310G89140548G89977234G90280525
383G90633715G91444071G92635504G93804713G94523268G94733271G94884102
376G95442200G96443731G97724418G99194582H00659225H01829637H02732006
369H03752931H05093356H06416793H07265937H07689199H08156911H08976751
362H10146949H11575567H13070786H14375821H15467172H16577775H17941486
355H19741271H22062701H24706462H27296642H29639802H31916358H34586802
348H38045237H42318344H47236467H52736398H58687832H63753247H62874164
341H46436515H07291417G52865705G06480347F90205421G06662958G40926244
334G76054102G99048351G95628067G54947193F86815713F23788929E95718156
327F05622137F34859998F64999026F88889627G06894195G20787812G31493018
320G39287554G44738435G48940480G52790750G56595084G60334796G63937267
313G67448998G70994704G74491855G77768102G81005774G84591400G88533188
306G92360738G95548015G97977738H00106577H02602267H05719048H09095378
299H12239196H15156166H18332402H22042954H25955297H29602572H32958871
292H36355656H40083902H44252822H48899222H54035841H59494224H64880554
285H69955099H74973304H80487462H86962099H94534599I02751123I10582960
278I17142250I22367695I26699906I30103486I31443415I28358980I17122502
271H92811115H51445236G94215164G29634062F69427424F21110418E84986230
264E58284686E40640953E34188470E39423862E53146015E70522732E87988808
257F04117858F18634759F31306719F41941429F50955781F59176906F67039885
250F74406417F80998690F86706005F91715999F96440398G01055796G05275394
243G08781888G11598351G14040107G16575999G19483131G22459768G24978532
236G27053507G29168615G31514747G33740696G35351994G36110115G36246012
229G36397338G37110089G38340735G39601603G40584024G41487739G42670254
222G44129305G45608809G47056394G48492586G49633412G50286425G50926624
215G52184664G53947784G55474993G56100405G55568213G54307416G54083257
208G56588077G60083458G62297515G63156851G63454409G63747577G64088240
201G64294280G64329315G64416799G64766097G65268561G65683047G66047986
194G66647207G67629202G68895946G70326190G71814543G73019426G73482962
187G73306508G73306791G74123234G75476963G76543402G76705700G75879418
180G74515778G73241108G72095256G70196451G66481936G60829971G54531433
173G49740856G48196727G50156261G54414576G59075981G62479207G64136795
166G64954583G66255937G68651120G71733006G74525829G76341397G77376620
159G78244590G79031801G79340117G79087647G78706286G78686468G79302746
152G80570197G82127915G83403151G84201404G84888533G85795007G86758672
145G87391654G87482818G87123541G86647194G86359404G86242828G86086549
138G85966152G86317432G87292633G88290978G88562774G88298341G88437494
131G89101478G89252236G88537081G88190402G89118323G90309473G90218805
124G88823384G87233886G86073877G85367003G85327083G86121301G87254058
117G88176246G89109617G90375936G91648766G92749460G94183526G96189703
110G98207560G99514364G99647076G98553743G96714107G94484764G91648553
103G88550883G86918988G87781154G89569048G90063939G89038908G87791842
96G86966269G86268381G85926799G86468688G86827682G84916632G80989707
89G77744532G76516718G75917498G74220485G71504034G68895946G66957292
82G65522872G64200355G62470501G60133711G58145795G58042669G60082113
75G62861841G65108882G67268156G70699907G75591841G80418799G83999540
68G86943973G90116811G93158920G95128151G95640029G94912485G93660040
61G93468935G95886625G99793944H02239521H02484348H02221260H02656272
54H03264056H03690645H05017763H08067091H11248423H11192932H05498994
47G93043691G71861330G40924616G05738364F77578760F64813512F67919747
40F81511276F98972681G15597258G28917277G38339036G44619596G49167187
33G54743630G63936347G73996256G80359486G81954505G80842840G79884554
26G79752975G78852092G76571077G75015553G76377211G79668323G81410563
19G79392565G76382520G77942644G84146408G91075521G97401805H03724620
12H08106374H05822174G95833753G86010460G86412913G95759151H04992212
5H10514651H14008829H15052687H09189868G97927485
##END=


$$ === CHEMSPECTRA PEAK TABLE EDIT ===
##TITLE=X7722
##JCAMP-DX=5.00
##DATA TYPE=INFRAREDPEAKTABLE
##DATA CLASS=PEAKTABLE
##$CSTHRESHOLD=0.93
##MAXX=3997.453
##MAXY=0.9042149757439398
##MINX=373.96442
##MINY=0.44984856144859536
##$CSSOLVENTNAME=- - -
##$CSSOLVENTVALUE=0
##$CSSOLVENTX=0
##NPOINTS=28
##PEAKTABLE= (XY..XY)
432.0422275762312, 0.5598499758049599
481.62084379984344, 0.6383597237999236
616.1913735496478, 0.6300683002789211
743.6792438389366, 0.44984856144859536
837.1703487177479, 0.501663683428828
849.9191357466766, 0.5812329040738602
1014.2368352306485, 0.48398366473784055
1056.7327919937447, 0.5067464098832007
1148.8073649804533, 0.6534247977097204
1172.8884071462076, 0.582587598109062
1181.3875984988272, 0.5834270696853872
1199.8025130961687, 0.5043345076473704
1212.5513001250974, 0.5132495743548428
1270.6291077013288, 0.6020356995964784
1345.705297982799, 0.5274838791131983
1425.0310839405784, 0.6059110147041041
1432.1137434010943, 0.6006169306527644
1444.862530430023, 0.6048642377921379
1456.194785566849, 0.6455807069544177
1480.2758277326034, 0.5227600321051399
1682.839888303381, 0.7544440607281596
2359.9421327287077, 0.7266668064046573
2830.2307209069586, 0.6923345309594332
2895.391187943706, 0.7157514670426338
2927.97142146208, 0.7123011930528367
2957.718591196247, 0.7193744758294294
3004.464143635661, 0.7277876120341281
3088.0395252697494, 0.7300142033153042
##END=


$$ === CHEMSPECTRA PEAK TABLE AUTO ===
##TITLE=X7722
##JCAMP-DX=5.00
##DATA TYPE=INFRAREDPEAKTABLE
##DATA CLASS=PEAKTABLE
##$CSTHRESHOLD=0.93
##MAXX=3997.453
##MAXY=0.9042149757439398
##MINX=373.96442
##MINY=0.44984856144859536
##NPOINTS=214
##PEAKTABLE= (XY..XY)
3990.370340539484, 0.7364112115087929
3981.871149186865, 0.7372617105917809
3969.1223621579356, 0.7366407495441977
3952.1239794526973, 0.7359545809423244
3943.624788100078, 0.7364286761487838
3932.2925329632526, 0.736262974703114
3925.2098735027366, 0.7362323983198057
3918.1272140422207, 0.7365888339460105
3903.9618951211883, 0.7352298476464741
3892.6296399843627, 0.7374457693202109
3881.297384847537, 0.7361091353008847
3871.381661602815, 0.7338032108146539
3864.299002142299, 0.7370492203490361
3855.799810789679, 0.7349126318803542
3840.217959976544, 0.7343276123359685
3827.4691729476153, 0.7372572995891158
3821.8030453792026, 0.7356209136015449
3809.054258350274, 0.7371388652623068
3801.9715988897574, 0.7358267881824078
3780.7236205082095, 0.7376984335402645
3772.2244291555903, 0.7376543858301836
3760.8921740187648, 0.737412093108569
3752.392982666145, 0.7345854623052418
3745.310323205629, 0.7336803654851798
3736.81113185301, 0.7295953012218034
3712.7300896872557, 0.7349290826128979
3702.8143664425334, 0.736984667960854
3692.8986431978105, 0.7384321665278831
3677.3167923846754, 0.7354747020844131
3670.2341329241594, 0.7363374211100653
3657.4853458952307, 0.7380205967368271
3650.4026864347147, 0.7354413846141107
3629.1547080531664, 0.7340807292410192
3620.655516700547, 0.7378262263001811
3612.156325347928, 0.7382755262484365
3595.1579426426897, 0.737650332726742
3589.491815074277, 0.7364889362726313
3576.7430280453477, 0.7390463931752538
3568.2438366927286, 0.739054916229468
3561.1611772322126, 0.739943919374094
3551.2454539874902, 0.739664135656173
3544.1627945269743, 0.7399625739237385
3531.414007498045, 0.7406452873244025
3525.7478799296323, 0.7400100212553848
3510.166029116497, 0.7394955735430627
3494.584178303362, 0.7402941561857478
3479.002327490227, 0.7403728342246946
3463.4204766770913, 0.7396812415548246
3452.0882215402657, 0.7408401352407182
3442.1724982955434, 0.7406783681601595
3433.6733069429242, 0.7402939178669707
3419.507988021892, 0.7402121408418063
3406.759200992963, 0.740669785315722
3391.177350179828, 0.7392590619465524
3382.678158827209, 0.7403975705347913
3367.0963080140737, 0.7400463796059134
3348.6813934167317, 0.7412118889536888
3335.932606387803, 0.7398987390182351
3324.6003512509774, 0.7423238725778294
3316.1011598983578, 0.7403718809495863
3304.768904761532, 0.7419449667751994
3292.0201177326035, 0.7409362770775402
3282.104394487881, 0.7415133697857121
3273.605203135262, 0.7433207608643871
3265.106011782643, 0.7429682596032934
3249.524160969507, 0.7417733056758715
3242.441501508991, 0.7435408217283537
3226.859650695856, 0.742220518861125
3219.77699123534, 0.7430520038110132
3211.277799882721, 0.743392107443005
3199.945544745895, 0.7426906805445891
3185.780225824863, 0.7437470533663243
3170.198375011728, 0.7445328215325764
3151.7834604143864, 0.7440593225441176
3137.618141493354, 0.743626056481075
3129.118950140735, 0.7454130633042111
3113.5370993275997, 0.7455295902386878
3109.28750365129, 0.7454625350822887
3088.0395252697417, 0.7300142033153042
3051.2096960750587, 0.7416664933894944
3024.2955901250975, 0.734085557933131
3005.880675527756, 0.7273797374472902
2977.5500376856917, 0.7454009629419935
2957.718591196247, 0.7193744758294294
2927.97142146208, 0.7123011930528367
2895.391187943706, 0.7157514670426338
2830.2307209069586, 0.6923345309594332
2797.6504873885847, 0.7265251852608604
2770.7363814386235, 0.7314163429979206
2743.822275488663, 0.7316154225462318
2719.7412333229086, 0.7333618385447281
2695.660191157154, 0.7364273051842288
2682.911404128225, 0.7383608199492652
2671.5791489913995, 0.7379382824417695
2663.07995763878, 0.7381407599274145
2655.997298178264, 0.7383019905801959
2631.9162560125096, 0.7364602664395394
2623.4170646598905, 0.7387582640895566
2610.6682776309617, 0.739711878570472
2596.5029587099298, 0.7392668700444355
2586.587235465207, 0.7407345153903422
2568.1723208678654, 0.742078421079774
2555.4235338389362, 0.7400542474940196
2535.5920873494915, 0.744775352572968
2524.259832212666, 0.7450436927790111
2518.593704644253, 0.7452039701566842
2510.094513291634, 0.744521496759029
2495.929194370602, 0.7406936264567021
2487.430003017983, 0.7417792063814223
2477.51427977326, 0.7416815142093757
2469.015088420641, 0.7404023385945641
2461.932428960125, 0.7412480687756635
2443.517514362783, 0.7453126889932778
2435.018323010164, 0.7458472228521387
2419.4364721970287, 0.7477795460232898
2410.9372808444095, 0.7477279285341029
2393.938898139171, 0.7469749430946074
2362.7751965129005, 0.7243287543577777
2340.110686239249, 0.7300025206425333
2324.528835426114, 0.7309987529208674
2301.8643251524627, 0.7418268305573907
2290.532070015637, 0.7442219233193381
2272.1171554182956, 0.7474448066690714
2265.0344959577797, 0.7478411771116923
2256.53530460516, 0.7458558065386919
2249.452645144644, 0.7470881916721969
2232.4542624394057, 0.7459977847395964
2214.0393478420638, 0.7479985331895859
2184.2921781078967, 0.7417986373618529
2171.543391078968, 0.7415019254317183
2155.961540265833, 0.751165804894798
2137.546625668491, 0.7462404353604345
2123.381306747459, 0.7578153585700097
2114.8821153948393, 0.7564846252562344
2100.7167964738073, 0.7510644175185333
2095.0506689053946, 0.7505340555014447
2086.5514775527754, 0.7502791268319511
2080.8853499843626, 0.7501891231773411
2072.3861586317435, 0.7532953600121512
2068.136562955434, 0.7530950290797315
2056.8043078186083, 0.7516379337608177
2048.305116465989, 0.7452580904140882
2032.7232656528536, 0.7469173053194234
2025.6406061923376, 0.7505873420641869
2017.1414148397184, 0.7556735254040008
2001.559564026583, 0.7504132969349726
1991.6438407818607, 0.7558346373184516
1981.7281175371381, 0.7523527721957829
1966.146266724003, 0.7567484955115048
1951.9809478029708, 0.7555770256679554
1942.0652245582482, 0.75729107494491
1929.3164375293195, 0.7587514503049426
1922.2337780688035, 0.7596560098551114
1908.0684591477716, 0.7572938775063589
1898.1527359030492, 0.7578223919213384
1888.2370126583264, 0.7583029848934649
1872.6551618451913, 0.7606769776014263
1865.5725023846753, 0.7604842164481125
1857.0733110320562, 0.762062428232722
1847.1575877873338, 0.7631283978063418
1830.159205082095, 0.7614818196910015
1818.8269499452695, 0.7645503263686124
1807.494694808444, 0.7640683632740467
1800.412035347928, 0.7641217685751195
1780.5805888584828, 0.7628193480373284
1774.91446129007, 0.7626242618022355
1763.5822061532444, 0.764843103933636
1748.0003553401093, 0.7624077167718175
1743.7507596637997, 0.7623654577157383
1735.2515683111806, 0.7628050421737782
1718.2531856059418, 0.7652311896408197
1681.4233564112587, 0.7537454338648453
1654.5092504612976, 0.7648483494730788
1648.8431228928848, 0.7706323242973137
1637.5108677560593, 0.7751511312612868
1619.0959531587177, 0.7838914968313211
1579.4330601798279, 0.803636071930095
1559.6016136903827, 0.8147806503764072
1542.6032309851444, 0.8294198486315978
1480.2758277326034, 0.5227600321051399
1456.194785566849, 0.6455807069544177
1444.862530430023, 0.6048642377921379
1432.1137434010943, 0.6006169306527644
1425.0310839405784, 0.6059110147041041
1345.705297982799, 0.5274838791131983
1304.625873111806, 0.7333725073100517
1270.6291077013288, 0.6020356995964784
1212.5513001250974, 0.5132495743548428
1199.8025130961687, 0.5043345076473704
1181.3875984988272, 0.5834270696853872
1172.8884071462076, 0.582587598109062
1148.8073649804533, 0.6534247977097204
1056.7327919937447, 0.5067464098832007
1014.2368352306485, 0.48398366473784055
849.9191357466766, 0.5812329040738602
837.1703487177479, 0.501663683428828
743.6792438389366, 0.44984856144859536
668.6030535574664, 0.6350254403168257
637.4393519311961, 0.6512136440957565
616.1913735496478, 0.6300683002789211
590.6937994917903, 0.6557441935227237
568.0292892181387, 0.6618745305837246
560.9466297576228, 0.6638385038358546
553.8639702971068, 0.6637476066963596
542.5317151602812, 0.661336360468753
517.0341411024233, 0.6626769288531902
505.70188596559774, 0.6618413907998602
481.62084379984344, 0.6383597237999236
458.9563335261919, 0.6681927428420517
451.8736740656759, 0.6755632141863331
432.0422275762312, 0.5598499758049599
405.12812162627006, 0.6526528579273484
398.0454621657541, 0.6538040024634664
385.29667513682534, 0.6619118430514772
##END=

##END=

