##TITLE=CHS-417 f1
##JCAMP-DX=4.24
##DATA TYPE=INFRARED SPECTRUM
##DATE=12/11/2020
##SAMPLING PROCEDURE=Diamant-ATR
##ORIGIN=Angelika Moesle
##XUNITS=1/CM
##YUNITS=TRANSMITTANCE
##RESOLUTION=4
##FIRSTX=3997.453
##LASTX=373.96442
##DELTAX=-1.4165319
##MAXY=0.92601985
##MINY=0.45401585
##XFACTOR=1
##YFACTOR=8.6242319e-010
##NPOINTS=2559
##FIRSTY=0.91993278
##XYDATA=(X++(Y..Y))
3997+1066683728+1067027773+1067357856+1067261927+1066710889+1066174573
3989+1066025220+1066080510+1065923278+1065498164+1065127304+1065020317
3980+1065035521+1064928396+1064640886+1064334025+1064233603+1064458152
3972+1064989147+1065742616+1066564785+1067251906+1067691948+1067850839
3963+1067605903+1066871232+1065930949+1065314254+1065262765+1065563268
3955+1065903166+1066198071+1066507006+1066767147+1066814974+1066647513
3946+1066432710+1066229241+1065972141+1065739645+1065733286+1065948850
3938+1066160405+1066266562+1066483577+1067057975+1067816836+1068183411
3929+1067804741+1066942418+1066192335+1066063093+1066587592+1067274299
3921+1067637695+1067562845+1067239051+1067067720+1067360759+1067944142
3912+1068364349+1068423924+1068276644+1068124250+1068072208+1068144846
3904+1068132267+1067726781+1067207812+1067225712+1067665202+1067727196
3895+1067163096+1066603142+1066853746+1067936401+1068893132+1069138898
3887+1069091625+1069347826+1069912410+1070364271+1070490126+1070200128
3878+1069477690+1068665059+1068206564+1068092804+1067763342+1066936543
3870+1066305818+1066682138+1067859893+1069197851+1070271798+1070754829
3861+1070616672+1070164120+1069579079+1068831345+1068056312+1067862381
3853+1068698303+1069516393+1069375955+1068688074+1068070273+1067838330
3844+1067930803+1067967778+1067641841+1067134898+1067035029+1067774193
3836+1069096739+1070345680+1071078070+1071194111+1070844606+1070246779
3827+1069585782+1069079461+1068906609+1069146984+1069879305+1070938255
3819+1071744181+1071965204+1071672580+1071025613+1070200128+1069303663
3810+1068377065+1067610948+1067458761+1068099369+1068915248+1069338773
3802+1069509896+1069729192+1069884904+1069820836+1069619924+1069368007
3793+1069102337+1068956785+1069120721+1069591312+1070067984+1070163429
3785+1069744881+1069128807+1068863759+1069248926+1069992582+1070367450
3776+1070031838+1069335801+1068672938+1068124872+1067738807+1067738047
3768+1068199099+1068909374+1069765200+1070782889+1071747982+1072245250
3759+1072044062+1071446581+1071012205+1070918074+1071035151+1071209108
3751+1071177593+1070704722+1070144699+1070093417+1070747917+1071531590
3742+1071642931+1071242006+1070770034+1070236758+1069542034+1069066951
3734+1069397726+1070126039+1070282165+1069717305+1069078839+1069056031
3725+1069720415+1070412996+1070577899+1070293914+1069821872+1069341745
3717+1069140764+1069536920+1070615981+1072148976+1073472628+1073741823
3708+1072989943+1072051872+1071497517+1071278913+1071027618+1070539956
3700+1069973161+1069491305+1069136755+1069046148+1069327369+1069763679
3691+1070059898+1070414102+1071264330+1072176137+1072312635+1071676658
3683+1070918557+1070627108+1070835691+1071097906+1071131149+1071235440
3674+1071785303+1072515206+1073000310+1072925253+1072164734+1071168885
3666+1070390672+1069814132+1069335248+1069041656+1069019194+1069149610
3657+1069279888+1069346306+1069242982+1068783381+1067837846+1066506453
3649+1065488350+1065657331+1066707088+1067733485+1068351839+1068665474
3640+1068891404+1069080981+1069166612+1069187553+1069263094+1069375126
3632+1069347343+1068987540+1068252800+1067529878+1067301529+1067496842
3623+1067818356+1068159152+1068655660+1069381208+1069976340+1070008961
3615+1069486674+1068621656+1067590767+1066594503+1065933576+1065837647
3606+1066084380+1066095715+1065585592+1064855897+1064504043+1064808693
3598+1065495607+1066190400+1066721049+1067002685+1067040628+1066971860
3589+1066842826+1066527947+1066085970+1065868333+1065962672+1066124051
3581+1066208784+1066286605+1066348945+1066187773+1065739023+1065305615
3572+1065219500+1065446951+1065697486+1065715179+1065466856+1065180313
3564+1064945536+1064471145+1063577514+1062653335+1062252618+1062348823
3555+1062482004+1062434247+1062320487+1062243979+1062194148+1062141553
3547+1062018670+1061735169+1061324223+1060983289+1060877891+1060886600
3538+1060656592+1060126011+1059846933+1060380071+1061506405+1062412476
3530+1062437288+1061520573+1060175496+1059109981+1058791923+1059210748
3521+1059876029+1060157803+1059855157+1059381664+1059231067+1059332110
3513+1059181582+1058524179+1057645062+1057024428+1056847222+1056888828
3504+1056771750+1056286577+1055587707+1055023123+1054757314+1054691795
3496+1054689929+1054730637+1054816337+1054829537+1054585707+1054078348
3488+1053613840+1053491786+1053552191+1053342364+1052793607+1052321012
3479+1052099505+1051806604+1051324403+1051065436+1051255221+1051393447
3471+1050896248+1049916709+1049130273+1048920446+1049071527+1049162341
3462+1048993360+1048606811+1048122122+1047693276+1047479785+1047451864
3454+1047358492+1047073125+1046754514+1046512480+1046219717+1045793636
3445+1045334311+1044889569+1044411514+1043925926+1043498117+1043160846
3437+1043034645+1043316834+1044012663+1044781131+1045141969+1044855220
3428+1044144047+1043504614+1043264308+1043366180+1043554237+1043623419
3420+1043484294+1043124216+1042606076+1042111987+1041870783+1041936716
3411+1042095814+1042092013+1041886609+1041606011+1041321334+1040988279
3403+1040559433+1040071011+1039631314+1039332954+1039173372+1039123196
3394+1039282916+1039751709+1040267569+1040349053+1040020973+1039970175
3386+1040641470+1041542911+1041817773+1041206538+1040116418+1039037426
3377+1038207518+1037693732+1037536914+1037725869+1038063970+1038225556
3369+1038098941+1037957605+1038064108+1038225902+1038046968+1037510237
3360+1036945238+1036496833+1036018433+1035467395+1035067645+1035027145
3352+1035279684+1035587582+1035818489+1035977172+1035934668+1035418117
3343+1034470647+1033609223+1033298699+1033536585+1034008282+1034327514
3335+1034212856+1033765764+1033409832+1033328141+1033215901+1032684699
3326+1031670742+1030459675+1029500318+1029089234+1029134779+1029355250
3318+1029625274+1029880992+1029892327+1029530866+1029148463+1029279225
3309+1030009611+1030944019+1031704607+1032189297+1032439901+1032524979
3301+1032543777+1032616139+1032821542+1033092742+1033237810+1033229655
3292+1033343622+1033759475+1034242022+1034521791+1034725813+1035102962
3284+1035585094+1035927066+1036090794+1036236208+1036417630+1036502362
3275+1036373743+1036044350+1035615919+1035347069+1035649231+1036638307
3267+1037785445+1038372560+1038206135+1037618813+1037002947+1036593107
3258+1036456056+1036504090+1036641141+1036892989+1037278570+1037640515
3250+1037760357+1037626277+1037501805+1037686820+1038196805+1038690687
3241+1038789795+1038512168+1038308423+1038530966+1038980270+1039208481
3233+1039147662+1039133701+1039378845+1039706855+1039854342+1039824831
3224+1039777281+1039708514+1039536699+1039408563+1039551212+1039909840
3216+1040297633+1040730004+1041298251+1041953442+1042589696+1043078947
3207+1043239358+1043020132+1042603726+1042205842+1041956483+1041961321
3199+1042276061+1042836291+1043475863+1043964768+1044109974+1043910376
3190+1043543663+1043221942+1043110324+1043265344+1043548224+1043696333
3182+1043567299+1043310475+1043259332+1043543386+1043903050+1044090139
3173+1044252554+1044621410+1045039820+1045145218+1044871738+1044519676
3165+1044386288+1044428654+1044334039+1043943066+1043542695+1043590728
3156+1044118613+1044541931+1044284277+1043521615+1043001402+1043178746
3148+1043878515+1044641661+1045018326+1044822944+1044439782+1044482148
3139+1044926959+1045083984+1044537024+1043631229+1042946872+1042682446
3131+1042663785+1042722324+1042876929+1043187178+1043624663+1044122415
3122+1044572617+1044789148+1044692666+1044444689+1044207838+1043933874
3114+1043570824+1043262165+1043178677+1043346138+1043712920+1044177982
3105+1044532116+1044597705+1044509240+1044689694+1045369766+1046171546
3097+1046385934+1045765852+1044874226+1044449112+1044585195+1044757770
3088+1044476619+1043665509+1042518026+1041269223+1040150560+1039377048
3080+1039051318+1039093961+1039302889+1039471456+1039463508+1039237716
3071+1038815712+1038179803+1037246087+1036021405+1034728577+1033616549
3063+1032649658+1031534451+1030108236+1028595352+1027399905+1026707946
3054+1026406751+1026390717+1026818526+1027972644+1029873321+1032147967
3046+1034338020+1036181609+1037547212+1038409604+1039009989+1039679071
3037+1040385337+1040749770+1040522388+1039795389+1038843772+1037917520
3029+1037087127+1036269589+1035497736+1035013046+1034995699+1035342370
3020+1035747234+1035953950+1036004887+1036189833+1036629184+1037084501
3012+1037310500+1037344158+1037325429+1037279814+1037154305+1036936253
3003+1036709079+1036556408+1036383695+1035993690+1035331934+1034407340
2995+1033056181+1031172645+1029108724+1027418427+1026171767+1024812384
2986+1022716048+1019665470+1015759066+1011114880+1005789517+999795831+993044460
2976+985326405+976421542+966166833+954448104+941258235+926804566+911522164
2966+895962757+880635085+865901371+852055413+839511751+828793155+820256526
2956+813970009+809940514+808266943+808870023+811108524+813793356+815643234
2946+815748148+813568946+808604076+800348391+788644107+773778663+756151326
2936+736125492+714234021+691169358+667502582+643642705+620041379+597261945
2927+575972069+557087117+541849120+531459364+526442072+526454893+530850686
2917+539216157+551134554+565690786+581576822+597617048+613063110+627579533
2907+641126923+653784069+665603150+676658395+687147466+697298713+707215666
2897+716967855+726818253+737167163+748166495+759482987+770576451+781164353
2887+791228103+800590494+808773196+815356830+820187690+823090159+823658475
2877+821568913+817038556+810960484+804662217+799397811+795738624+793243092
2867+790686050+786633057+779856597+769433322+754858360+736374298+715139263
2857+692906651+671609553+653284382+640042056+633686149+635279895+645064428
2847+662471848+685929626+712910577+740720400+767463809+792266664+814868270
2837+835304290+853752551+870299652+884863763+897425671+908152491+917271881
2827+925049442+931884786+938149533+943915768+949024669+953402977+957174818
2817+960519887+963572055+966445980+969247959+972014690+974685009+977150477
2808+979323527+981215910+982977600+984750763+986457301+987920561+989246701
2798+990819022+992800145+994867108+996566942+997794457+998831843+999998609
2788+1001336498+1002639831+1003744326+1004692694+1005619706+1006589707
2779+1007567103+1008454721+1009167622+1009746167+1010346275+1011062147
2771+1011834969+1012590373+1013334720+1014028891+1014527472+1014776141
2762+1014939870+1015200633+1015549584+1015886994+1016213553+1016622287
2754+1017162543+1017757675+1018249276+1018529875+1018644948+1018742674
2745+1018914834+1019106899+1019216374+1019265306+1019393165+1019625108
2737+1019743430+1019502709+1018931974+1018343408+1018027838+1018003510
2728+1018124803+1018335460+1018646607+1018966323+1019230750+1019600089
2720+1020245052+1021063211+1021819999+1022384790+1022698286+1022762147
2711+1022735055+1022822759+1023076818+1023424387+1023778384+1024041705
2703+1024185529+1024396393+1024958903+1025895937+1026845273+1027397140
2694+1027505095+1027472404+1027558174+1027720727+1027772562+1027651407
2686+1027462383+1027333902+1027302110+1027331345+1027407438+1027566398
2677+1027808916+1028043070+1028188346+1028282616+1028420911+1028650090
2669+1028961651+1029283441+1029477925+1029501078+1029535012+1029770895
2660+1030106439+1030265053+1030178523+1030076997+1030211145+1030570325
2652+1030894258+1030984727+1030938835+1030929643+1030898612+1030747254
2643+1030678971+1030952382+1031405072+1031655468+1031735363+1032065930
2635+1032742408+1033309687+1033438998+1033397668+1033595124+1034045741
2626+1034513083+1034825819+1034895139+1034760922+1034681027+1034875235
2618+1035232204+1035488958+1035562218+1035524966+1035429936+1035310301
2609+1035241534+1035257983+1035257292+1035144015+1035047672+1035157976
2601+1035344927+1035265931+1034871848+1034498500+1034484954+1034907580
2592+1035528560+1035933908+1035967151+1035956508+1036238143+1036707006
2584+1037113528+1037430757+1037696704+1037877019+1038026096+1038231293
2575+1038400827+1038433241+1038524539+1038975017+1039735951+1040431090
2567+1040856204+1041208196+1041687011+1042085724+1042047988+1041641120
2558+1041370405+1041604352+1042202318+1042748587+1042989584+1042967329
2550+1042817838+1042567096+1042148479+1041553139+1040904790+1040408144
2541+1040207717+1040245452+1040324656+1040368474+1040468618+1040660683
2533+1040883573+1041173156+1041625224+1042189463+1042702281+1043013082
2524+1042985575+1042633168+1042302531+1042414978+1042988271+1043659980
2516+1044115849+1044249513+1044013838+1043480355+1043061945+1043263962
2507+1044052472+1044845751+1045272593+1045462999+1045545382+1045503845
2499+1045542894+1045919145+1046491193+1046964479+1047294770+1047450343
2490+1047246253+1046770133+1046498865+1046679734+1046945266+1046806418
2482+1046361537+1046199122+1046601636+1047192621+1047480753+1047410742
2473+1047257864+1047299401+1047664317+1048245419+1048709375+1048730731
2465+1048245143+1047517936+1046971183+1046813122+1046849544+1046781053
2456+1046599424+1046521672+1046635225+1046781191+1046777183+1046625065
2448+1046460645+1046414063+1046579589+1046955978+1047349507+1047554220
2439+1047633355+1047768470+1047938696+1048012163+1047948717+1047694589
2431+1047202642+1046744216+1046789969+1047387036+1048007878+1048155849
2422+1047851682+1047467967+1047322484+1047455458+1047608819+1047464373
2414+1047063103+1046851203+1047133391+1047701362+1048195105+1048560367
2405+1048915539+1049257855+1049549512+1049815874+1049956588+1049717111
2397+1049027916+1048187295+1047597278+1047446197+1047662589+1048023221
2388+1048309349+1048457596+1048525603+1048476740+1048153084+1047563827
2380+1047064071+1047082455+1047669362+1048421865+1048911461+1049151767
2371+1049489246+1050001027+1050273333+1049983542+1049388064+1048906070
2363+1048581861+1048337961+1048288338+1048367749+1048191857+1047701085
2354+1047383580+1047554566+1047947266+1048193999+1048196211+1047970419
2346+1047516070+1046954803+1046573576+1046492645+1046549317+1046640477
2337+1046866615+1047224344+1047415441+1047145209+1046503150+1045884658
2329+1045535292+1045314959+1044959097+1044416076+1043924959+1043889711
2320+1044559416+1045648844+1046460507+1046564107+1046187511+1045890532
2312+1046065803+1046667915+1047179628+1047050248+1046364025+1045794534
2303+1045815821+1046290144+1046822867+1047190893+1047447371+1047747806
2295+1048046512+1048087358+1047781809+1047333612+1046933724+1046634603
2286+1046491401+1046568876+1046914027+1047594513+1048464853+1048971106
2278+1048671293+1047912640+1047518351+1047849540+1048602319+1049422137
2269+1050159158+1050535755+1050274922+1049719254+1049640119+1050270292
2261+1051104693+1051664784+1051873851+1051805222+1051592354+1051419986
2252+1051251143+1050800526+1050006418+1049234979+1048895150+1049107880
2244+1049698589+1050193438+1050065510+1049395390+1048957836+1049273337
2235+1050055074+1050907582+1051899354+1053065359+1053956295+1054091341
2227+1053541409+1052823118+1052383007+1052404708+1053028107+1054206967
2218+1055221408+1055091821+1053747988+1052134269+1051165512+1051094049
2210+1051486818+1051388954+1050273402+1049109815+1049623601+1052223701
2201+1055316853+1056936792+1056773686+1056246077+1056500413+1056916197
2193+1056149941+1054145457+1052279752+1051753042+1052553508+1053972260
2184+1055560338+1057142611+1058115653+1057674228+1056067489+1054702784
2176+1054487843+1054730982+1054172618+1052602233+1050923340+1049925971
2167+1049468166+1049032893+1048799774+1049535068+1051452193+1054228669
2159+1058205914+1063771307+1069275534+1071808387+1070161494+1065930189
2150+1061942370+1059932495+1059466950+1058919575+1057352369+1055140407
2142+1053203239+1052331448+1052718619+1053501116+1053471260+1052624695
2133+1052058590+1052294265+1052830651+1053226461+1053566359+1053874327
2125+1053773214+1052955193+1051647437+1050344864+1049282321+1048512817
2116+1048302852+1048850711+1049635420+1049713725+1048860801+1047944017
2108+1047947128+1048933232+1050123565+1050801425+1050893967+1050708675
2099+1050414185+1049973520+1049475354+1049265320+1049589736+1050242301
2091+1050754221+1050822643+1050455653+1049820159+1049064754+1048316813
2082+1047816504+1047835856+1048286265+1048691751+1048804129+1048826798
2074+1048814634+1048454486+1047711176+1047129728+1047259661+1048148799
2065+1049475147+1050835290+1051746960+1051667272+1050428353+1048606949
2057+1047041471+1046116601+1045934765+1046796327+1048854581+1051518887
2048+1053715781+1054789659+1054897959+1054489018+1053711980+1052540584
2040+1051325647+1050751525+1051170972+1052431247+1054276564+1056382022
2031+1058081096+1058701109+1058332598+1057888478+1058330525+1059805672
2023+1061348136+1061351730+1058856958+1054976748+1052550744+1053462137
2014+1056702914+1059778096+1061116746+1060575107+1058763241+1056750118
2006+1055577340+1055175793+1054370973+1052510935+1050488896+1049709232
1997+1050545292+1052192393+1053588752+1054158796+1054185542+1054578657
1989+1055533384+1055699739+1053652681+1050031091+1047171127+1046610206
1980+1047914022+1049828729+1051544528+1052741841+1053357983+1053492754
1972+1052988851+1051537064+1049685112+1048871514+1049757957+1051407269
1963+1052627390+1052974268+1052361581+1050954717+1049469963+1048604185
1955+1048225100+1047637501+1046561067+1045505158+1045171826+1045683746
1946+1046437354+1046684917+1046230361+1045535914+1045113357+1045040650
1938+1045305767+1046102986+1047410327+1048635700+1049092399+1048650214
1929+1047707720+1046708899+1045798197+1044886459+1044044939+1043693085
1921+1044101335+1044879824+1045247851+1044856533+1044187726+1043858887
1912+1043879483+1043780029+1043301076+1042759507+1042613955+1042902156
1904+1043239773+1043228507+1042829380+1042309443+1041884605+1041651833
1895+1041733801+1042095745+1042423341+1042547952+1042669660+1042826961
1887+1042595294+1041693439+1040455625+1039559644+1039516863+1040438900
1878+1042018961+1043608007+1044543105+1044557965+1043864209+1042894070
1870+1042112263+1041843068+1041949571+1042045431+1042056351+1042103348
1861+1042105352+1041851638+1041346630+1040825725+1040541256+1040657642
1853+1041148621+1041678787+1041754742+1041110125+1039986970+1039003768
1844+1038620606+1038650670+1038662143+1038585635+1038459573+1038197565
1836+1037810325+1037466281+1037204826+1036868454+1036338357+1035737489
1827+1035298898+1035026731+1034645227+1033982502+1033279900+1032827970
1819+1032523942+1032063995+1031440734+1030910776+1030542887+1030151293
1810+1029673791+1029369556+1029486011+1029950243+1030518905+1031025641
1802+1031383370+1031499687+1031357798+1031066142+1030718849+1030377914
1793+1030181357+1030184536+1030052669+1029418350+1028362925+1027232513
1785+1026260577+1025314075+1024079855+1022571049+1021204271+1020240076
1776+1019492550+1018755114+1018098748+1017576876+1016954237+1016132345
1768+1015330980+1014715460+1014265258+1013920177+1013624027+1013217919
1759+1012421945+1010958547+1008727579+1005854276+1002291985+997563758+991270606
1749+983889961+976395694+969016292+961462243+953824082+946542269+939837963
1740+933865288+929003396+925187599+921679285+918029290+914887621+912653682
1730+910875405+909302462+908054351+907290583+907033275+907136599+907462813
1720+908086834+909171286+910566470+911763645+912595143+913388007+914531689
1710+916162894+918229234+920756558+923626751+926350149+928899589+932138638
1700+936479625+940680036+944090071+947267402+949994048+951822432+953082224
1690+954181742+955030104+955429646+955725312+956643132+957868022+958271296
1680+957907070+957412567+957109783+956896639+956522668+955911295+955116426
1670+954193422+953255697+952409616+951634998+950882219+950171668+949574947
1660+949050656+948432371+947628034+946672408+945648914+944768000+944255389
1650+943934636+943726398+943902152+944679950+945716368+946740623+947901721
1640+949320404+951017335+953195223+955997409+958528534+959814589+960278752
1630+960594322+961025656+961577592+962218615+962982659+963862882+964708825
1621+965391316+965953619+966522005+967167658+967796033+968271531+968543698
1611+968534713+968031225+966748280+964488700+961113291+956425841+950417365
1601+943796340+938027963+934548539+933889477+935495179+938311257+941504277
1591+944624521+947411226+949735427+951617097+953132054+954293912+955013448
1581+955174965+954734024+953738382+952549777+952029702+952564222+953749924
1571+955166257+956196800+956071499+954802722+953024860+951299592+949909799
1561+948920170+948552489+949129237+950015957+950640945+951028047+951129712
1551+950843792+950170009+949167595+947879259+946392017+944958337+943901323
1541+943466533+943841402+944688589+945558583+946729772+948858038+952082642
1531+955530897+958614649+961612287+964800193+967865630+970356117+972313258
1521+973911082+974955586+975303570+975203356+974954204+974615136+974107777
1511+973479609+972977296+973052422+974216907+975901674+976802493+976865385
1502+976334459+975112473+972802786+968818145+963266645+957342832+951789880
1492+946477786+941578090+938236684+937168336+937564491+938303240+938703404
1482+938369934+936925196+933903991+928918664+921677350+911143079+895007892
1472+873250846+850661957+830670610+813234854+798315087+787338839+781235816
1462+778703931+777917010+778043003+779628801+783752289+789786199+796750300
1452+804332824+811901388+818422544+822716672+823531445+820320387+814258141
1442+808425765+806498203+810808020+821876811+837205658+851173462+861472749
1432+870262746+879374464+888349754+895748437+901256950+905431374+908532060
1422+910549537+911654792+912022819+911754591+911246196+910921918+910838844
1412+910821497+910678847+910351321+909914319+909446355+908966504+908498885
1402+908095335+907850329+907931053+908391415+908948051+909171631+908838507
1392+908028779+906910116+905386866+902920016+898840207+892981637+885456960
1383+876061602+864793351+852871914+842712028+836632642+835716204+839269717
1373+844905467+850138218+853772525+855594274+856066800+856391216+858076951
1363+861977412+867302498+872301234+875987444+878228917+879019984+878321597
1353+876247032+873081588+869024379+863847955+856919930+848001383+838168678
1343+829659487+824872099+825465158+831421453+840773616+851070069+860727503
1333+869013943+875713895+880929783+884889681+887854075+890087116+891757646
1323+892880386+893443865+893565020+893418569+893055795+892452024+891691574
1313+890889863+889947300+888614042+886842745+884925827+883260688+882059297
1303+881314259+880962404+880942431+881076925+881007328+880339213+878876920
1293+876755566+874366330+872102534+870130809+868427727+866990453+865874624
1283+865030132+864257587+863378816+862344816+861186966+860024693+859091530
1273+858533442+858152768+857495918+856177795+854021470+850988239+847189789
1264+843046880+839404211+837341672+837603610+840091678+843952399+848103394
1254+851710884+854431725+856407596+858068727+859883910+862110178+864633631
1244+867061018+869019265+870365793+871168679+871575824+871736719+871803344
1234+871913579+872131769+872466759+872955526+873635529+874434475+875164308
1224+875618104+875720391+875666967+875830212+876377794+877064432+877463214
1214+877214338+875929389+872987457+867593464+859252770+848563963+837711426
1204+829819760+827262994+830257107+836943927+844721073+851560149+856472009
1194+859267699+860142600+859387679+857313045+854332271+851029085+848019421
1184+845645390+843791365+842108464+840516446+839469592+839636914+841252845
1174+843779823+846263053+848031309+848982649+849264146+848942909+848053632
1164+846749401+845264509+843769871+842315665+840959530+839951862+839686745
1154+840423697+842128783+844534606+847200156+849612891+851438026+852674112
1145+853515286+854125900+854547282+854720824+854590823+854210079+853708388
1135+853145186+852438713+851454683+850135869+848502867+846560723+844321877
1125+841932295+839611550+837442162+835393653+833532855+832000344+830791419
1115+829753066+828785415+827891853+827032917+826076738+824965332+823840657
1105+822900513+822187889+821641620+821254933+821025616+820853040+820644596
1095+820433870+820256042+819972057+819289359+817907583+815621256+812353940
1085+808157053+803140625+797300647+790395983+782138847+772655646+762793084
1075+754006888+747984106+746133951+748969173+755710454+764611309+773896984
1065+782476049+789878672+795842017+800208161+803111943+804995687+806384374
1055+807725443+809366323+811441579+813705859+815668184+817028950+817912836
1045+818613089+819228401+819641628+819750688+819581707+819207253+818666720
1035+817992454+817256055+816585659+816163379+816138083+816459666+816750493
1026+816213416+813608064+807473180+796437909+779280955+755150708+724602283
1016+690661930+658377249+633036004+618752560+617961977+630833856+654413342
1006+682930675+710196164+732485449+749377493+762358916+773190650+783079543
996+792270534+800146582+806078204+810113435+812720169+814241761+814813464
986+814500244+813420146+812009688+811170034+811838564+814259869+817730101
976+821059274+823135497+822858147+818739081+809520722+796194977+783247212
966+776586309+779275910+789414993+802289084+814047761+823311735+830415030
956+836154518+841122844+845542758+849390692+852658147+855454251+857885577
946+859976383+861762539+863337832+864753888+866012850+867179754+868324334
936+869356675+870156588+870830855+871583564+872360947+872904797+873129967
926+873215806+873354861+873601111+873933060+874327212+874813283+875513467
916+876515467+877648782+878545800+879003673+879178736+879391535+879850445
907+880550076+881332504+882064549+882806201+883704462+884647785+885150099
897+884783316+883719529+882632105+881989907+881652981+881281637+880897231
887+880778218+880950517+881116388+881075266+880894812+880577238+879935800
877+879058203+878620372+879397825+881514686+884297866+886808396+888496826
867+889449894+890107712+890826487+891668767+892450435+892965672+893236871
857+893414423+893390026+892855229+891876382+891032651+890858002+891450093
847+892646577+894271562+896131392+897881264+898968895+898916162+897824453
837+896431135+895456642+894956748+894391127+893256430+891590945+889851441
827+888392396+887199022+886022028+884541904+882470173+879668264+876083788
817+871506089+865540463+857802434+847927432+835386742+819440786+799414537
807+775255746+747967864+719462972+692035897+668051961+649952790+640117804
798+640128379+649793899+667064682+689116564+713390083+737638928+759798902
788+778669444+794555755+808629648+821654475+833501892+843564606+851294824
778+856458048+859157809+859766625+858768150+856463577+852766931+847395539
768+840224997+831286130+820410441+807100869+790934788+772170887+751994525
758+732230007+714905454+702077738+695660113+696829850+705325564+719259918
748+735636932+751420542+764595551+774438485+780906216+783985200+783701146
738+780519598+775528189+770116435+765235814+760855501+756348574+751470372
728+746784857+743169626+741087182+740223408+739542507+737662426+733442456
718+726601169+718289433+711394514+709485199+713821693+721017047+724680035
708+719795336+705645350+685720352+666310798+654838180+657420449+675867811
698+705967831+739330261+768170835+789025610+802507274+810663643+815468240
688+818983050+823065209+828253729+833618071+837944614+840772095+842350083
679+842944386+842481743+840946536+838874598+837105858+835999912+835021065
669+832963019+829646493+827161329+827044389+829140241+832097378+834187770
659+835130125+836328337+838995753+842869122+846532732+848554978+848776969
649+848652220+849787677+852261231+854911231+856798775+857822892+858466541
639+859382081+860789567+862239972+863390565+864568596+865991978+867157983
629+867612747+867552342+867216660+866447294+865225653+864040089+863399273
619+863362782+863753408+864519733+865612409+866758648+867669419+868189287
609+868082922+867283285+866564095+867043809+868672594+870131500+870499734
599+870051606+869161569+867533059+865015135+862379027+860716998+860365973
589+860802007+861371913+861766894+862113219+862897859+864349646+865780700
579+866249078+865909250+865805442+866338580+866786432+866295591+864590021
569+861952116+859145023+857053180+855956012+855318928+854512241+853626144
560+853327023+853925818+855017319+856127896+857185048+858204465+859116618
550+860081642+861423540+863040922+864289656+864595066+863903867+862565149
540+861203554+860677258+861459617+862802759+863174034+861805459+859244961
530+856367510+853455918+850204567+846302586+842230448+839231636+838052776
520+838282300+839493643+842391965+847470388+853215198+857230939+858672221
510+858796003+859339369+860955507+863172997+865082105+865837303+865304580
500+864457877+864258970+864429402+864089021+863239277+862876226+863546760
490+864525055+864938074+864955905+865114450+865091021+864067803+862032287
480+859886951+858629233+858794482+860115992+861620098+862168578+860777610
470+856980819+851579501+846818998+845034708+846535496+849263594+850706673
460+849702115+846454703+841825377+837319694+834631268+834490968+836457993
450+839898922+844803940+850735355+855919382+859245375+862038853+865957283
441+870638928+874996640+878815202+881950375+883809376+884244166+883558012
431+881976637+880365199+880025094+880848713+881300160+880629418+879420079
421+878149298+877378965+878206731+880134500+881581864+881721956+879900345
411+875869053+871215607+868735833+870076556+874679757+879998209+882300847
401+878728327+869530632+859083374+853536228+855183605+862346475+872307454
391+881675374+887212292+887605614+883934747+879321800+878503157+884534164
381+895092348+903932037+905283680+898047896+888444024+885149200
##END=
