##TITLE=MSB-NOS-13_ROOT
##JCAMP-DX=5.0
##DATA TYPE=LINK
##BLOCKS=3

##TITLE=MSB-NOS-13
##JCAMP-DX=4.24
##DATA TYPE=INFRARED SPECTRUM
##DATE=21/12/2018
##SAMPLING PROCEDURE=Diamant-ATR
##ORIGIN=Angelika Moesle
##XUNITS=1/CM
##YUNITS=TRANSMITTANCE
##RESOLUTION=4
##FIRSTX=3997.453
##LASTX=373.96442
##DELTAX=-1.4165319
##MAXY=1.0115057
##MINY=0.74236178
##XFACTOR=1
##YFACTOR=9.4203812e-010
##NPOINTS=2559
##FIRSTY=0.99826533
##XYDATA=(X++(Y..Y))
3997+1059686769+1059936124+1059941565+1059563894+1059055440+1058845124
3989+1059032093+1059265504+1059182364+1058805516+1058398234+1058126734
3980+1058097123+1058464417+1059143009+1059653487+1059646844+1059380595
3972+1059389137+1059873548+1060609464+1061244589+1061528174+1061394733
3963+1060981947+1060578904+1060439199+1060582700+1060861540+1061137596
3955+1061268252+1061115514+1060768783+1060509621+1060350112+1059947639
3946+1059229628+1058646071+1058567740+1058762175+1058685995+1058248659
3938+1057929135+1058114206+1058589948+1058808680+1058515604+1057956722
3929+1057543999+1057516728+1057889021+1058439424+1058803365+1058776158
3921+1058454673+1058131226+1058148626+1058589948+1059084988+1059245130
3912+1059058035+1058673151+1058162736+1057606322+1057131275+1056712098
3904+1056162897+1055678740+1056023572+1057467503+1059046266+1059723846
3895+1059669495+1059748269+1060309492+1060619145+1059854439+1058439361
3887+1057403535+1057208151+1057400688+1057524005+1057859283+1058503266
3878+1058777613+1058403233+1058023980+1058222338+1058732753+1058878216
3870+1058483525+1057943119+1057715845+1058074218+1059012352+1059929353
3861+1060058049+1059378001+1058443853+1057813917+1058001582+1059442286
3853+1061293561+1061528174+1060331574+1059081825+1058364257+1058075420
3844+1057877505+1057511097+1056970185+1056536076+1056612951+1057310652
3836+1058182477+1058719213+1058822093+1058702193+1058583178+1058467770
3827+1058182034+1057623405+1057005111+1056868001+1057660356+1058855881
3819+1059348896+1059281954+1059494485+1059985539+1060112399+1059751116
3810+1059198878+1058698207+1058346984+1057964378+1057313815+1056787455
3802+1057188157+1058360271+1059010201+1058828547+1058561096+1058574067
3793+1058613169+1058490105+1058289090+1058153878+1058223730+1058545595
3785+1058900487+1058994510+1058908017+1059008429+1059356425+1059488601
3776+1059112512+1058530662+1058062956+1057596768+1056902547+1056191496
3768+1055988709+1056441864+1057184930+1057717617+1057816701+1057619292
3759+1057342794+1057120266+1057085087+1057242887+1057244153+1056667049
3751+1055775230+1055355926+1055311889+1055279493+1055822177+1057532673
3742+1059331623+1059974150+1059677088+1059130734+1058916242+1059387872
3734+1060311137+1060957587+1060982326+1060683999+1060450525+1060317464
3725+1060032424+1059558453+1059341620+1059752761+1060475960+1060731643
3717+1060047925+1058664040+1057303185+1056750631+1057330772+1058409686
3708+1059085938+1059125989+1058691247+1058054541+1057654978+1057864218
3700+1058422214+1058676821+1058382732+1057724640+1056862496+1055837489
3691+1054907454+1054672335+1055428499+1056558664+1057442194+1058065550
3683+1058535851+1058765908+1058439171+1057256680+1055607306+1055039250
3674+1056576253+1058607854+1059549215+1059506950+1059142376+1058708647
3666+1058138629+1057555261+1057390121+1058018349+1059138200+1059890251
3657+1059772249+1059087962+1058356221+1057699648+1057198470+1057198660
3649+1057837834+1058478590+1058532434+1058073016+1057457189+1057132098
3640+1057386388+1058071814+1058762365+1059079990+1058757809+1057792468
3632+1056753225+1056613647+1057899651+1059544660+1060080067+1059678100
3623+1059051454+1058591720+1058542368+1058907764+1059170659+1058859044
3615+1058211645+1057841377+1058083203+1058611081+1058876381+1058847782
3606+1058893591+1058978692+1058667014+1057842959+1056969742+1056626428
3598+1056918302+1057532483+1058146475+1058548252+1058572169+1058163811
3589+1057541658+1057204924+1057472881+1057921290+1057907370+1057275852
3581+1056322786+1055513600+1055106761+1055023495+1055178258+1055688167
3572+1056568850+1057542607+1058323636+1058828420+1058970593+1058589379
3564+1057860295+1057209416+1056798465+1056450595+1056017878+1055643371
3555+1055608065+1056013386+1056550691+1056674388+1056291593+1055963970
3547+1056148155+1056554361+1056577139+1056174792+1055825468+1055844766
3538+1056063497+1056096715+1055862482+1055627996+1055546628+1055586173
3530+1055847613+1056376504+1056723171+1056365684+1055549791+1055089361
3521+1055312901+1055664187+1055466842+1054746870+1054130727+1054081628
3513+1054475623+1054908909+1055156809+1055298918+1055485191+1055643561
3504+1055566432+1055325366+1055303220+1055588324+1055737077+1055398065
3496+1054813305+1054488910+1054571859+1054789958+1054839690+1054625451
3488+1054228798+1053801712+1053491743+1053421131+1053682761+1054222724
3479+1054725927+1054822606+1054473661+1054020127+1053787350+1053770962
3471+1053801333+1053828730+1053896684+1053966220+1053900923+1053595889
3462+1053122867+1052767784+1052818529+1053259092+1053783300+1054073719
3454+1053963815+1053508700+1053107682+1053284590+1054079856+1054916628
3445+1055302588+1055272976+1054991226+1054454300+1053698073+1052916157
3437+1052340698+1052160943+1052414094+1052878764+1053249284+1053410185
3428+1053425940+1053365515+1053271746+1053207525+1053168043+1053005497
3420+1052560632+1051923230+1051412814+1051208003+1051130748+1050940299
3411+1050686578+1050581420+1050664180+1050788889+1050831345+1050776804
3403+1050690438+1050652348+1050665888+1050662598+1050645451+1050714987
3394+1050888669+1051047925+1051116069+1051156246+1051266466+1051465520
3386+1051661916+1051670838+1051369536+1050878925+1050472339+1050289293
3377+1050223490+1050087076+1049785458+1049343060+1048790126+1048020612
3369+1046818697+1045145722+1043369487+1042034194+1041336241+1040964897
3360+1040482322+1039640045+1038276216+1036206273+1033491081+1030759059
3352+1029085577+1029389916+1031736801+1035161335+1038348283+1040595009
3343+1042035333+1043045091+1043776958+1044284716+1044699654+1045082260
3335+1045323390+1045392799+1045464676+1045603052+1045563507+1045174321
3326+1044690606+1044487883+1044597850+1044839042+1045198617+1045758764
3318+1046417932+1046998073+1047476283+1047845539+1047963098+1047788720
3309+1047541833+1047459516+1047608585+1047968413+1048439093+1048830178
3301+1048999747+1048883895+1048384806+1047544364+1046763081+1046473928
3292+1046657100+1046962388+1047213514+1047546009+1048078379+1048639286
3284+1048897942+1048670922+1048044909+1047323291+1046932776+1047149420
3275+1047778850+1048323305+1048567346+1048761464+1049182792+1049723135
3267+1049978311+1049699472+1049122557+1048742799+1048742483+1048800819
3258+1048565637+1048151206+1048007831+1048383161+1049079596+1049697447
3250+1049965024+1049866953+1049623672+1049503392+1049544835+1049545151
3241+1049339580+1048960581+1048573610+1048372658+1048446876+1048737800
3233+1049226956+1049974135+1050814641+1051311832+1051247801+1050904740
3224+1050682845+1050648552+1050555542+1050178188+1049574763+1049063588
3216+1048953684+1049267957+1049730791+1050056073+1050217480+1050374964
3207+1050633177+1051020654+1051553025+1052119879+1052488945+1052593280
3199+1052591382+1052538487+1052275085+1051713040+1050994144+1050345795
3190+1049943955+1049898652+1050261517+1050986424+1051848695+1052522416
3182+1052876676+1053077754+1053290791+1053467826+1053516862+1053461372
3173+1053340523+1053138495+1052843964+1052464458+1052013203+1051586116
3165+1051390922+1051603516+1052178342+1052854341+1053367350+1053591839
3156+1053473710+1052998538+1052314314+1051713230+1051396237+1051369663
3148+1051559795+1051898364+1052350126+1052921346+1053533566+1053942872
3139+1053983556+1053788742+1053546093+1053203033+1052672370+1052148668
3131+1051914182+1051941515+1051938225+1051713230+1051307150+1050808314
3122+1050269869+1049843352+1049744964+1049977742+1050301568+1050563514
3114+1050829257+1051114044+1051297533+1051378964+1051506330+1051651983
3105+1051515821+1050851339+1049784699+1048807526+1048433082+1048738243
3097+1049259541+1049456317+1049178553+1048575571+1047795807+1047028444
3088+1046588007+1046655076+1047083617+1047625036+1048106662+1048287936
3080+1047912860+1047074759+1046197113+1045535731+1045013863+1044587663
3071+1044425180+1044662197+1045240693+1046010840+1046853054+1047733357
3063+1048659470+1049509845+1050012478+1050039053+1049779194+1049473148
3054+1049103513+1048497240+1047620164+1046637106+1045698276+1044779883
3046+1043769619+1042595797+1041206976+1039601006+1037933852+1036402732
3037+1035015873+1033734995+1032743522+1032257277+1032224692+1032549783
3029+1033366372+1034725265+1036183748+1037021849+1036826402+1035780832
3020+1034487995+1033555049+1033271147+1033631545+1034496536+1035547421
3012+1036233669+1036090232+1035193478+1034181315+1033806049+1034456485
3003+1035981088+1037841348+1039434474+1040391590+1040714467+1040635630
2995+1040290291+1039588162+1038460844+1037099673+1035818542+1034778160
2986+1033951828+1033249951+1032513022+1031414810+1029556574+1026750018
2978+1023162558+1019147253+1015049441+1011240466+1008082940+1005531180
2969+1002765244+998454395+991578689+982180771+971535888+961588959+953875089
2959+948557899+944367583+939696907+934192495+929497079+928195005+931701603
2949+939098164+948004901+956341178+963098945+967837513+970114293+969629692
2939+966648758+961936892+956161233+949501158+942000641+934210401+927265539
2929+922279198+919701180+919236321+920320613+922618083+926031608+930425976
2919+935562018+941198415+947050316+952749986+958002258+962684008+966742021
2910+970114040+972749509+974643746+975915324+976841246+977659353+978301881
2900+978438105+977799058+976396760+974441212+972178099+969926375+968200757
2890+967587399+968386271+970436980+973317881+976654847+980211240+983720938
2880+986791149+989141135+990859413+992183317+993095699+993399152+993091333
2870+992392241+991469165+990362222+989113549+987805463+986493898+985128614
2860+983456588+981017579+977410631+972713191+967684837+963564438+961540872
2850+962143222+964991854+969166794+973859932+978653483+983347634+987813941
2840+992048104+996144651+1000102062+1003717677+1006693993+1008828980+1010133206
2830+1010845333+1011352015+1012017890+1012987470+1014125480+1015200915
2822+1016126837+1016982844+1017849860+1018701692+1019468801+1020122528
2813+1020641801+1020967019+1021126655+1021344690+1021827202+1022474981
2805+1023001025+1023275499+1023379644+1023423871+1023493407+1023679617
2796+1024056149+1024643313+1025373662+1026083257+1026640494+1027092509
2788+1027573946+1028136118+1028747831+1029342399+1029809409+1030079960
2779+1030207011+1030266929+1030271105+1030237191+1030210427+1030197456
2771+1030213970+1030329505+1030559056+1030830303+1031105726+1031382794
2762+1031606777+1031754454+1031925352+1032194764+1032478982+1032645957
2754+1032653043+1032544532+1032408307+1032345035+1032418557+1032637352
2745+1032945550+1033213823+1033313033+1033251407+1033164028+1033163269
2737+1033278297+1033511455+1033825094+1034086407+1034170622+1034129242
2728+1034113361+1034122219+1034050216+1034003647+1034252813+1034761330
2720+1035104391+1034988793+1034554620+1034090014+1033753786+1033634961
2711+1033796748+1034197766+1034720899+1035294017+1035922371+1036598306
2703+1037202744+1037546247+1037550107+1037330490+1037075630+1036911692
2694+1036901316+1037039375+1037228495+1037360417+1037453301+1037646660
2686+1038028253+1038483496+1038753098+1038666162+1038285264+1037820152
2677+1037472029+1037367188+1037532517+1037853559+1038106078+1038102029
2669+1037845397+1037537199+1037356495+1037254310+1037069999+1036836652
2660+1036780846+1036970282+1037167311+1037136498+1036925422+1036754904
2652+1036779960+1037039312+1037468739+1037863177+1037947835+1037606609
2643+1037014256+1036497008+1036324465+1036608556+1037265130+1037993011
2635+1038426108+1038410480+1038099308+1037769661+1037631791+1037750046
2626+1038027115+1038307410+1038521332+1038651356+1038664517+1038649964
2618+1038868759+1039433398+1040092503+1040534078+1040744837+1040869420
2609+1040854171+1040535660+1040106296+1040116040+1040792671+1041678226
2601+1042190096+1042219581+1041981552+1041670443+1041440070+1041391920
2592+1041496445+1041704294+1042061401+1042615917+1043321969+1044021252
2584+1044434418+1044315213+1043724886+1043038574+1042638189+1042665522
2575+1043049963+1043678824+1044446060+1045168436+1045628804+1045744781
2567+1045559584+1045122754+1044545524+1044038715+1043738299+1043648516
2558+1043796446+1044203095+1044677699+1044873905+1044623158+1044114768
2550+1043696540+1043531779+1043517353+1043491096+1043374295+1043156513
2541+1042974416+1043141707+1043832385+1044741920+1045288147+1045187292
2533+1044719901+1044390950+1044438847+1044751917+1045098647+1045239871
2524+1044993110+1044464092+1044081170+1044156844+1044536286+1044843345
2516+1044927370+1044932305+1045033983+1045253411+1045486948+1045624122
2507+1045614314+1045505929+1045468979+1045654176+1045944847+1045989960
2499+1045613935+1045027340+1044513128+1044158299+1044079652+1044553559
2490+1045595333+1046701074+1047323481+1047398712+1047220285+1047011867
2482+1046754349+1046321569+1045734721+1045238922+1045068973+1045254233
2473+1045674676+1046069683+1046089171+1045731494+1045549144+1045938014
2465+1046526950+1046806232+1046942837+1047340628+1047812764+1047858256
2456+1047451797+1047037935+1046974916+1047302285+1047796503+1048093881
2448+1047997518+1047716464+1047593210+1047682044+1047737850+1047506654
2439+1046963463+1046390725+1046227863+1046722650+1047700962+1048693700
2431+1049298707+1049450370+1049304718+1048927174+1048294580+1047599537
2422+1047262867+1047496846+1047974993+1048115963+1047767018+1047440787
2414+1047675527+1048349500+1048882567+1048882314+1048330265+1047409278
2405+1046482976+1046057408+1046406480+1047152457+1047464388+1046930878
2397+1046067342+1045625956+1045698656+1045937951+1046248110+1046666275
2388+1046898926+1046591361+1045893028+1045352558+1045322441+1045666071
2380+1045976357+1045939849+1045539274+1045065493+1044972040+1045530163
2371+1046547197+1047575051+1048406318+1049129707+1049768059+1050233487
2363+1050611221+1050989335+1050974150+1050007543+1048387843+1047249200
2354+1047183334+1047551956+1047462616+1046775419+1045903467+1045258662
2346+1045033414+1045151796+1045373881+1045517255+1045524088+1045500235
2337+1045699921+1046203440+1046736823+1047014904+1047017245+1046760740
2329+1046091322+1044894152+1043344747+1041920937+1041226654+1041636340
2320+1042949234+1044494210+1045605456+1045987176+1045791349+1045471446
2312+1045446011+1045785339+1046232166+1046514549+1046535365+1046298538
2303+1045889611+1045584513+1045660440+1045976926+1046068924+1045781542
2295+1045456198+1045388180+1045496502+1045635384+1045820961+1046014130
2286+1046054245+1045984709+1046165097+1046849384+1047793592+1048456999
2278+1048563170+1048259591+1047676729+1046706199+1045559837+1045098141
2269+1045892332+1047249453+1047950254+1047775749+1047484698+1047584225
2261+1048001631+1048617457+1049239484+1049450496+1049292380+1049520728
2252+1050365852+1050826220+1050084419+1048830241+1048273384+1048521600
2244+1048696420+1048185436+1047242303+1046619264+1046814648+1047522472
2235+1047944369+1047830353+1047843577+1048598602+1049803554+1050759151
2227+1051191362+1051090570+1050297455+1048914519+1047669263+1047273306
2218+1047747910+1048607903+1049331229+1049599628+1049398234+1048914962
2210+1048332543+1047854966+1047674261+1047724626+1047909000+1048552983
2201+1049863726+1050898729+1050147121+1047595234+1045255309+1044822275
2193+1045655251+1046093790+1045976104+1046355672+1047369733+1048109003
2184+1048237066+1048367153+1049051187+1050105488+1050778259+1050509227
2176+1049659674+1049259415+1049935223+1051209838+1051680645+1050059236
2167+1046683864+1043766898+1043407323+1045600205+1048701672+1051305379
2159+1053142671+1054551612+1055792187+1057053071+1058306680+1058801656
2150+1057485346+1054344017+1050864752+1048967288+1049441575+1051166117
2142+1052083877+1051367575+1050197106+1050113777+1051330940+1052902870
2133+1053902631+1054154264+1054052016+1053862390+1053459158+1052794422
2125+1052200741+1051982958+1051962458+1051668054+1050989651+1050449941
2116+1050506380+1050769971+1050488853+1049696435+1049206709+1049560779
2108+1050529158+1051458940+1051724492+1051074436+1049853919+1048775764
2099+1048309639+1048333176+1048454342+1048542480+1048699774+1048895348
2091+1048998987+1049037646+1049147234+1049362042+1049543190+1049543886
2082+1049519779+1049780523+1050041837+1049532750+1048330202+1047645852
2074+1048263766+1049671632+1050946373+1051570678+1051449955+1050947449
2065+1050712014+1050983767+1051318159+1051254571+1050983134+1051098859
2057+1051730503+1052180051+1051716077+1050533144+1049575332+1049600071
2048+1050583255+1051881217+1052966522+1053860682+1054690241+1055180093
2040+1054813052+1053276618+1050916699+1049076938+1049293708+1051441477
2031+1053630941+1054544526+1054656138+1054837665+1055056523+1054786984
2023+1053798106+1052355504+1051145047+1050930682+1051885520+1053246880
2014+1053909148+1053468585+1052659589+1052608086+1053452577+1054063659
2006+1053649733+1052967661+1053139001+1054055433+1054690811+1054561926
1997+1054315101+1054777746+1055822810+1056584099+1056751580+1056917796
1989+1057306665+1057254150+1056370936+1055119858+1053800447+1051897415
1980+1049162292+1046978585+1047553159+1050994017+1054494541+1055828441
1972+1055925754+1056670972+1058088518+1059175467+1059970227+1060968153
1963+1061528174+1060790612+1059296064+1058624685+1059151867+1059682403
1955+1059218366+1057991205+1056686663+1055542895+1054493275+1053659161
1946+1053374437+1053832589+1054831528+1055930120+1056849019+1057506858
1938+1057794999+1057700723+1057470793+1057335328+1057262502+1057060474
1929+1056529179+1055731699+1055268168+1055767068+1056910646+1057567283
1921+1057220869+1056527281+1056376630+1057034279+1058073902+1058787167
1912+1058627785+1057618027+1056374542+1055492720+1055092651+1055023748
1904+1055077529+1055027418+1054776544+1054342815+1053643722+1052642506
1895+1051591937+1050679112+1049696498+1048484776+1047236482+1046089550
1887+1044990009+1044140583+1043945389+1044491173+1045507068+1046702783
1878+1047860914+1048852006+1049707381+1050473668+1051045520+1051302531
1870+1051327207+1051421103+1051828575+1052483250+1053136217+1053563810
1861+1053687443+1053637268+1053566467+1053404681+1053041309+1052649276
1853+1052491919+1052544561+1052641430+1052818086+1053200565+1053723698
1844+1054167804+1054458729+1054743643+1055086197+1055374971+1055569532
1836+1055785923+1056004148+1056020029+1055860837+1055883994+1056239899
1827+1056639905+1056884957+1057029661+1057090465+1057014981+1056866355
1819+1056797642+1056838326+1056853764+1056827000+1057013779+1057626189
1810+1058452585+1059035573+1059178568+1059012099+1058757176+1058616459
1802+1058701434+1058952181+1059191981+1059275943+1059176670+1059072397
1793+1059358197+1060189781+1060955815+1061001814+1060403577+1059569083
1785+1058821271+1058366092+1058331672+1058659041+1059036269+1059157688
1776+1058990080+1058704218+1058492826+1058396146+1058273905+1058143501
1768+1058172986+1058277701+1058183173+1057832139+1057411127+1057045352
1759+1056708871+1056422059+1056231294+1056049071+1055713223+1055149027
1751+1054460247+1053879221+1053420245+1052866995+1052244968+1051888177
1742+1052018834+1052436239+1052679520+1052556266+1052366197+1052545826
1734+1053119957+1053444352+1053180887+1052597836+1051912347+1051192565
1725+1050437033+1049564006+1048495469+1047295705+1046157568+1045331995
1717+1044943505+1044725026+1044373614+1043898061+1043405742+1042935441
1708+1042473239+1042032170+1041624318+1041145476+1040426516+1039337478
1700+1037823569+1035922877+1033557390+1030617709+1027392925+1024266591
1691+1021318052+1018630574+1016398717+1014734157+1013876125+1014173757
1683+1014947510+1015133024+1014821915+1014434944+1014298339+1014718972
1674+1015675834+1016786638+1017992476+1019583134+1021428462+1022935158
1666+1024017996+1025113993+1026555013+1028171360+1029606243+1030811764
1657+1031822345+1032739093+1034273376+1037238998+1039875543+1040740661
1649+1041006340+1041944601+1043841749+1045737758+1047047805+1047995810
1640+1048805565+1049600514+1050712836+1052496664+1054266002+1054987240
1632+1054962184+1054888409+1055060382+1055416351+1055816546+1056293427
1623+1056897549+1057357536+1057344122+1056931146+1056345817+1055424450
1615+1053523695+1050065184+1044593737+1036963069+1028156428+1020380045
1606+1015724744+1014826154+1016514505+1018298775+1017800002+1014293784
1598+1008739134+1002767648+998159358+996682526+999408221+1005918151+1014461391
1588+1023083531+1030599044+1036628993+1041288534+1044932875+1047811878
1579+1050053668+1052000358+1054052270+1055890068+1056906723+1057333619
1571+1057779117+1058576788+1059442412+1059897464+1059882595+1059523400
1562+1058911180+1058299973+1058295417+1058979388+1059181035+1058751672
1554+1058117559+1057328494+1056273560+1054856520+1053090598+1051087533
1545+1048825622+1046195341+1043344431+1040468149+1037360038+1033974036
1537+1030198469+1024893174+1016163029+1003311977+988316638+972458457+954965012
1527+936425997+920636277+911475945+910868028+918898511+931476734+944203962
1517+956771302+968891941+978924414+986687004+993078932+998403145+1002527784
1507+1004324899+1001139343+993761384+985259397+977483900+972069081+969913594
1497+969539213+968548817+967055787+966837435+969173122+974127826+979406800
1487+981687882+980156193+975800548+969294920+960908785+951482647+942789769
1477+936809299+934975866+937867776+944813777+952942586+958932990+962541899
1468+965576930+969825076+975984986+982930355+989143476+994385056+999140327
1458+1003096789+1004264537+1001977697+997789596+993157895+989512036+988193827
1448+989288875+991151730+992032223+991486312+989798784+987076063+983211346
1438+978863926+976602015+978785595+984406554+991288018+997524423+1000908274
1428+999977479+994531910+984642748+971397006+957702982+946864234+941964639
1418+944405546+950703389+955995966+958215802+957773973+957087598+959097434
1408+964960218+973934783+984424333+994299006+1002076275+1007857945+1012143358
1398+1014751747+1015201547+1013181841+1008725214+1002689001+996483029+991450564
1388+988574408+987304475+984907921+978950419+969737888+960348574+955010252
1378+956332067+964024931+976037502+989259264+999776844+1004331606+1000496373
1368+986330466+962317916+932070921+901713264+881754741+882611571+902034812
1358+926414277+943389461+947723910+940417765+925612431+908162011+892655243
1349+881776191+873939130+864223080+849790228+834272831+826184897+832795873
1339+853673105+880730747+906200515+927306729+944253187+957774606+968437331
1329+976645293+982752244+987152876+990229667+992197869+993024961+992389014
1319+989648324+984456729+978097702+973734211+974303026+979827242+987436271
1309+994089766+998454206+1000622980+1001277023+1001285565+1001455893+1002183331
1299+1003205111+1003546780+1001595471+995639930+985181193+971966518+958880411
1289+947218367+936122102+925890954+920507519+924611847+938248484+956236463
1279+972691868+984892356+993048688+998294191+1001621982+1003772471+1005320990
1269+1006791432+1008651819+1011111581+1013978246+1016823209+1019286641
1261+1021231433+1022709467+1023858424+1024760240+1025346265+1025505457
1252+1025289573+1024888682+1024334039+1023297201+1021237381+1017726923
1244+1012714957+1006701459+1000739021+996014943+993095319+991501497+990095151
1234+987887906+984516900+980172518+975292031+970311195+965506572+960837604
1224+955828991+949650480+941403859+930508039+917162391+902714607+889464119
1214+879728012+874653407+873519763+874012399+873365822+869652894+862487212
1204+852936682+842821639+833871560+827417119+824709330+826992184+834733008
1194+846794615+860668268+873712426+884329406+892269094+898172309+902960166
1184+907391990+911811667+916146812+920214063+924181851+928807035+935042618
1174+943174463+952411607+961503921+969609509+976452503+982014303+986363114
1164+989581508+991691503+992715308+992721065+991693085+989637061+987057082
1154+984997515+984198769+984376373+984740314+985191000+986612406+989853198
1145+994690660+999996587+1004773751+1008812719+1012414795+1015799974+1018927762
1135+1021676362+1023924669+1025454017+1025845861+1024453813+1020674576
1126+1014753961+1008475986+1004505224+1004550021+1008207586+1013615761
1118+1018904542+1023040000+1025868386+1027797106+1029336135+1030761969
1109+1032119850+1033387884+1034549622+1035559000+1036212284+1035958183
1101+1033919432+1029397762+1022699280+1015623951+1010861847+1010361998
1092+1013982485+1019773266+1025563541+1030218463+1033627685+1036055053
1084+1037796804+1039174173+1040400321+1041367877+1041736310+1041179959
1075+1039374429+1035923194+1030796010+1025053379+1020800867+1019919678
1067+1022657205+1027549839+1032650955+1036714790+1039483004+1041361233
1058+1042934681+1044501296+1045924917+1046957389+1047630857+1048235041
1050+1048971274+1049729526+1050240511+1050404701+1050386289+1050352249
1041+1050222921+1049728956+1048572977+1046501578+1043438200+1039634983
1033+1035526795+1031485738+1028037160+1026158488+1026741286+1029601877
1024+1033387694+1036528960+1038046602+1037556497+1034847886+1029721714
1016+1022550781+1015106323+1010287780+1010383004+1015482159+1023600464
1007+1032083911+1038970374+1043659842+1046771243+1049314398+1051810226
999+1054084791+1055785859+1056941143+1057912432+1058898906+1059707965
990+1060027172+1059745865+1059043229+1058325788+1057991648+1058146981
982+1058663977+1059465759+1060471278+1061331082+1061528174+1060747461
973+1058747938+1055524103+1051401489+1047017877+1043074892+1040246064
965+1039178349+1040161216+1042599277+1044995008+1045872021+1045018039
956+1043623334+1042918104+1042936706+1042797381+1041593505+1038739747
948+1034375307+1029975751+1027605582+1027755600+1028405277+1026650681
939+1020800298+1010985354+999139568+989203711+986007146+992036905+1005111244
929+1020102217+1032904360+1042274818+1048650485+1052560189+1054172613
921+1053336979+1049582798+1042331509+1031360080+1017049596+1000226708+982164763
911+964971734+951178246+941895230+935821876+931233643+928556857+929675570
901+935009463+942756045+951125856+960072329+970391741+982039042+993933104
891+1004881503+1014091693+1021064648+1025632254+1028213942+1029764992
882+1031294656+1033311135+1035624866+1037718790+1039281799+1040167860
874+1039854980+1037298158+1031526042+1022282255+1010131688+996360029+983112831
864+973362172+969921946+973789194+983324919+995313952+1006979033+1017081485
854+1025569678+1032798695+1039092362+1044536412+1049005821+1052502548
846+1055306637+1057651624+1059485690+1060695767+1061336523+1061528174
837+1061353480+1060682923+1059491258+1057869723+1055881590+1053371589
829+1049999444+1045415830+1039510464+1032734854+1025881926+1018815391
820+1009254358+993150556+966651985+928814501+883974197+841324180+810002447
810+793264850+788037949+790223364+799006089+815516856+838833414+864593284
800+887115969+901972679+906954401+902443107+892163746+882721791+880348331
790+887093444+900504769+916803196+933543704+949513812+963715025+975332968
781+983932583+989155245+991045623+991192540+992523340+996983764+1003814357
771+1010621729+1015635087+1018547751+1019886523+1020310003+1020279063
762+1019901772+1019062532+1017826576+1016637948+1015959989+1015589594
754+1014446775+1011612759+1007951967+1006093035+1008045356+1013145017
745+1018834689+1022846578+1024058173+1022004174+1016581320+1008265353+998403145
735+989285902+983503409+982572235+985833907+990439224+992661843+990271553
725+984363592+978554652+975929370+976591575+977493454+973801912+960892650
715+937674290+910564069+892538886+894030777+914258648+943217551+970909622
705+992768962+1008374308+1018791664+1025423900+1029341639+1030753301+1029281531
696+1025294192+1021200430+1020540313+1024952144+1032457912+1039186005
687+1042318286+1040923834+1034765949+1024036408+1010648493+997801681+986823418
677+975460018+960350283+940978418+920723339+903860843+893534471+893377303
667+904450348+920407232+936592909+952844451+968618985+982677077+995038023
657+1006307654+1016211558+1024128658+1029916023+1033730692+1035638280
649+1035447325+1032516692+1025639657+1013699406+997176301+979178957+964784385
639+958823592+963221124+975702413+990981148+1003817774+1011806814+1015568019
629+1016462052+1014486194+1008293699+996191915+976609797+949227506+917291149
619+888142873+870089471+867859069+880421916+902603754+927918443+950187533
609+964490866+968438534+963346845+953965125+946037964+943288606+946257392
599+953018765+960437345+965627485+967264711+965828880+962831621+959887258
589+958008016+957225784+956672977+955020185+951578441+947928595+948018378
579+955325852+969855194+988250139+1005994015+1019640711+1027964651+1031248468
569+1029914820+1024341063+1015570613+1005362433+995590388+987769271+982585712
560+979579849+977572038+975487035+972880039+970029572+967572783+966055457
550+965931950+967599420+971087543+976105836+982462521+989863132+997394273
540+1003780823+1008177785+1010659439+1012197835+1014099412+1017151338
531+1021220740+1025502294+1029040338+1031280863+1032270374+1032053794
523+1029788466+1023468605+1010121627+986547426+951210514+906745983+861493462
513+828535325+819991200+838215500+873376009+911080812+941450048+962110447
503+975545119+985400810+994185876+1002589348+1010333019+1017359502+1023982120
493+1029995113+1034500649+1037169842+1038693495+1039750264+1040713518
484+1041854249+1042341633+1039870165+1032860259+1022644677+1013146662
476+1008559695+1011003196+1019555231+1030712554+1040845566+1048463010
467+1053359947+1055332199+1054613302+1052574552+1051426734+1052848520
459+1056114241+1057103183+1050638492+1034597835+1010712272+985073631+967418715
449+964515985+974897783+990394047+1002167577+1006860904+1007042242+1006872989
439+1008600821+1012013334+1014924353+1014431780+1009320161+1000962371+992117450
429+985749755+983976494+986753882+991377484+994299892+993768154+988679439
419+976994934+961893867+952789025+953476791+962242179+976260283+991981163
409+1006112017+1016692489+1023044746+1026335649+1029430853+1034089950
401+1039370949+1044472508+1051146566+1058709406+1061528174+1060965559
392+1058751925+1059014061+1061085966+1059577877+1049262136+1033514175
384+1025769618+1032920367+1047101966+1059679998+1068684744+1073741823
375+1071471497+1061528174
##END=

$$ === CHEMSPECTRA PEAK ASSIGNMENTS AUTO ===
##TITLE=MSB-NOS-13_PEAK_ASSIGNMENTS
##JCAMP-DX=5.00
##DATA TYPE=PEAK ASSIGNMENTS
##DATA CLASS=ASSIGNMENTS
##THRESHOLD=0.93
##MAXX=3997.453
##MAXY=1.0115057283042928
##MINX=373.96442
##MINY=0.7423617879646159
##NPOINTS=38
##PEAK ASSIGNMENTS=(XYA)
(2952.052463627834, 0.8743950775035907, <1>)
(2926.5548895699767, 0.8659556556705567, <2>)
(2889.725060375293, 0.91150421428965, <3>)
(2851.4786992885065, 0.9058081553620407, <4>)
(1593.5983791008598, 0.9389129330298912, <5>)
(1522.7717844956996, 0.8580724046652275, <6>)
(1493.0246147615321, 0.9107977196130222, <7>)
(1476.0262320562938, 0.880782907052012, <8>)
(1449.1121261063327, 0.9309162549826854, <9>)
(1436.363339077404, 0.9199963261988119, <10>)
(1419.3649563721656, 0.8873665976300388, <11>)
(1410.8657650195464, 0.9016130014952358, <12>)
(1379.7020633932757, 0.8996560623748063, <13>)
(1362.7036806880374, 0.830646578512727, <14>)
(1341.455702306489, 0.7782976671422737, <15>)
(1314.5415963565283, 0.9172947455101234, <16>)
(1284.7944266223608, 0.8671531726446243, <17>)
(1211.1347682329942, 0.8228889153193656, <18>)
(1198.3859812040655, 0.7769076267796596, <19>)
(1153.0569606567628, 0.9271527580550744, <20>)
(933.494517380766, 0.9288563181244056, <21>)
(903.7473476465984, 0.874735955881389, <22>)
(862.6679227756058, 0.9137034465565816, <23>)
(808.839710875684, 0.7423617879646159, <24>)
(791.8413281704452, 0.8293216866803778, <25>)
(732.3469887021106, 0.9256205010235983, <26>)
(722.4312654573882, 0.9193626689675845, <27>)
(712.5155422126659, 0.8408056541943344, <28>)
(668.6030535574664, 0.8415954749687904, <29>)
(638.8558838232993, 0.9032483740193271, <30>)
(616.1913735496478, 0.8175563257857104, <31>)
(602.0260546286158, 0.8886138250136608, <32>)
(582.1946081391711, 0.8929848715280415, <33>)
(549.6143746207972, 0.909944718225934, <34>)
(511.3680135340105, 0.7724629684645441, <35>)
(449.0406102814695, 0.9086108252193483, <36>)
(427.7926318999216, 0.9269433665319514, <37>)
(416.46037676309606, 0.8975635818676331, <38>)
##END=


$$ === CHEMSPECTRA PEAK ASSIGNMENTS EDIT ===
##TITLE=MSB-NOS-13_PEAK_ASSIGNMENTS
##JCAMP-DX=5.00
##DATA TYPE=PEAK ASSIGNMENTS
##DATA CLASS=ASSIGNMENTS
##THRESHOLD=0.93
##MAXX=3997.453
##MAXY=1.0115057283042928
##MINX=373.96442
##MINY=0.7423617879646159
##NPOINTS=0
##PEAK ASSIGNMENTS=(XYA)
##END=

##END=

