##TITLE=X9248
##JCAMP-DX=5.0
##DATA TYPE=LINK
##BLOCKS=1


$$ === CHEMSPECTRA SPECTRUM ORIG ===
##TITLE=X9248
##JCAMP-DX=5.00
##DATA TYPE=INFRARED SPECTRUM
##DATA CLASS=XYDATA
##ORIGIN=ComPlat
##OWNER=
##XUNITS=1/CM
##YUNITS=TRANSMITTANCE
##XFACTOR=1
##YFACTOR=1.0198915e-009
##FIRSTX=3997.453
##LASTX=373.96442
##MAXX=3997.453
##MAXY=1.0951001584722044
##MINX=373.96442
##MINY=0.838760609484266
##NPOINTS=2559
##XYDATA= (X++(Y..Y))
2559I95459739I95056959I94564642I94303756I94445420I94937269I95646403I96360218
2551I96785794I96822730I96740677I96836756I97008576I96879299I96260867I95310831
2543I94316263I93532437I93194756I93408887I93992609I94633487I95116336I95232519
2535I94841187I94256883I94025922I94155313I94228830I94199145I94239585I94021715
2527I93002951I91454234I90593028I91235660I92539739I92975717I92323503I91866251
2519I92516362I93667438I94346650I94184417I93132926I91325895I89541540I88990080
2511I89902712I91102179I91431909I90922758I90476147I90483741I90381821I89754384
2503I89131977I89519913I91201297I93395449I95138427I95929383I95604678I94016805
2495I91067815I87144711I83453736I81288340I80865336I81847632I84076031I86824565
2487I88700206I88804935I87690210I87197075I88209176I89276911I88723934I86536562
2479I84335046I83249659I83312543I84931741I87861796I90024155I89578823I86760746
2471I83550048I81577395I81329951I82553145I83863532I83837937I82818590I82785161
2463I84600841I86833915I88004161I87664492I85418330I80592061I75643998I76126088
2455I81202547I86702187I90435938I91663808I90307716I86904397I82694458I79186527
2447I77662356I78660957I81264730I83975975I86120103I87766769I89074587I89877933
2439I89885180I89113276I87600206I84817545I80665344I77388204I77141929I78841251
2431I81440407I85156506I89174991I91880979I92499530I91120994I88582037I86382976
2423I84991468I83196710I80746816I79872287I81796550I84775349I87495945I89972258
2415I92169797I93717582I94571889I94981098I94918685I94211418I93196161I92412101
2407I91698172I90756903I90342782I91485910I93639503I95297039I95546236I94222755
2399I91840186I89670229I88748597I88951274I89771098I90635577I90550485I88826091
2391I86281637I84854948I84992753I84966923I82955809I78529988I73845325I72415012
2383I73813298I75061155I75195338I75673804I77745402I80118679I81049897I79680013
2375I76391064I73628446I74426824I78548222I83093501I85991764I86745083I85840048
2367I84516918I84123135I85034949I86736898I88612894I90144078I90782150I89979155
2359I87423246I83705741I81216804I82360286I86083515I89855140I92373062I93212875
2351I92535411I91551716I91716289I92975133I94258171I94730147I93780115I90856371
2343I86182633I81853827I81070001I84126992I88254293I91521910I93186459I92865729
2335I90683379I87018593I81938217I76690113I74767191I76304804I77673694I77943171
2327I79946158I84972182I90417821I93958013I95215334I94989516I94030010I92396085
2319I90210819I88472633I87715454I86445976I82658926I76143854I70679046I71258383
2311I76413564I81859788I85801942I88323606I90006038I91033918I91109309I90165001
2303I88783662I87594598I86240375I83608958I80230129I79715955I83033420I86716330
2295I88257449I87098191I83880951I80494462I79007694I79143280I79307561I79322814
2287I80035633I81228729I81879538I82327442I83952367I86523351I88243189I88030927
2279I86523351I85155457I84548828I84413125I84637777I85481214I86613238I86771265
2271I84840685I81548756I79956093I81716838I84949390I87635508I89153367I89534994
2263I89142848I88710960I88905456I89707048I90243079I89137000I85282627I79253502
2255I74656911I75160390I79411179I83751443I86480457I87920819I88976989I89879686
2247I90081195I89231560I87968044I87305427I87182695I86571861I85171120I84241422
2239I85131259I87409454I89510098I90430094I90319872I89995518I90036428I90282349
2231I90242959I89703308I88828543I87971083I87408165I87193448I87342710I87976573
2223I89049340I90216196I91169037I91803952I92020536I91689522I90887462I89972726
2215I89395902I89379418I89641593I89548784I88706749I87526689I87038697I87733340
2207I88951739I89806514I90260612I90854033I91571235I91771108I91252024I90607992
2199I90426705I90648200I90811020I90588820I90123153I90006038I90684902I91871745
2191I92868417I93349045I93496553I93458446I93100196I92392111I91708575I91535469
2183I91909265I92326542I92342672I92166060I92382529I93101134I93733127I93773803
2175I93476216I93339110I93203525I92527933I91450143I90817095I91026438I91632950
2167I92192706I92705831I93246886I93710101I93945035I93905882I93686607I93475397
2159I93441150I93649555I94040533I94380900I94307730I93594269I92445997I91487663
2151I91293986I91837030I92507360I92740192I92538453I92331685I92394451I92617233
2143I92880924I93250980I93609931I93528463I92848781I92026731I91587015I91562937
2135I91667312I91722249I91725873I91652821I91379308I90845147I90192468I89654333
2127I89370652I89341901I89489290I89698629I89830008I89743165I89418224I89065470
2119I88930819I88942742I88741233I88081538I87078554I86119402I85595994I85568289
2111I85661212I85433525I84886974I84534214I84893286I85869383I86759810I86986332
2103I86628430I86104674I85656071I85315004I85105664I85070599I85153704I85152886
2095I84887909I84421772I84008705I83841093I83958211I84270289I84566945I84666647
2087I84623049I84623049I84704284I84768921I84818009I84977442I85301793I85714398
2079I86144412I86540065I86756655I86655667I86345690I86117762I86144883I86384378
2071I86656602I86755837I86647602I86536091I86595939I86787626I87034723I87325995
2063I87597871I87773431I87943965I88298475I88849467I89348213I89540137I89464162
2055I89371590I89351486I89266511I89085574I88978158I89003054I89002119I88938651
2047I89088260I89667187I90431146I90917151I91034617I91096685I91290596I91495141
2039I91613314I91695717I91743055I91696185I91595661I91553466I91631314I91825809
2031I92090085I92355412I92587077I92746858I92733650I92548736I92426244I92543830
2023I92730494I92747556I92670766I92686195I92746390I92727572I92693909I92778414
2015I93001665I93306964I93600344I93749140I93695023I93527995I93387267I93368214
2007I93508006I93742241I93929490I94026741I94195755I94617591I95210077I95617886
1999I95554418I95099388I94578434I94221937I94053039I94023702I94121417I94392121
1991I94898931I95575691I96120606I96216217I95886136I95506262I95427014I95652952
1983I95884266I95832252I95572418I95557691I96093956I96845405I97184136I96989056
1975I96750612I96885847I97292020I97600244I97594747I97335384I97007407I96691585
1967I96340932I96006527I95920733I96244032I96875795I97553139I97986780I97989702
1959I97680777I97411593I97314111I97147083I96735534I96292309I96146671I96372141
1951I96754002I96990692I96945692I96755054I96611633I96514623I96385115I96285060
1943I96330764I96516726I96767794I97020731I97169291I97082446I96772586I96446827
1935I96331582I96484583I96746872I96830911I96517308I95864745I95196168I94818632
1927I94762527I94824826I94839671I94838969I94902554I94942996I94814424I94602045
1919I94532730I94575863I94445303I94055728I93658555I93454124I93366812I93292707
1911I93315967I93555112I93912775I94108442I93963857I93587021I93203872I92872859
1903I92485504I92034799I91715354I91700626I91955317I92313801I92608230I92710857
1895I92654285I92681867I92933171I93160394I93050991I92704078I92475683I92469608
1887I92460842I92243086I91889862I91682276I91793549I92041458I92041578I91579184
1879I90739253I89792257I89087093I88912115I89295846I89985814I90645629I91065711
1871I91260206I91389013I91554635I91682159I91627688I91367039I91032866I90784955
1863I90715058I90883138I91289775I91763510I92063786I92163021I92232801I92355997
1855I92486089I92571297I92481180I92032461I91339100I90850524I90796293I90888161
1847I90734227I90263183I89647788I89089899I88748126I88631479I88513306I88128406
1839I87472337I86748941I86058739I85305303I84421307I83527493I82783524I82135281
1831I81320834I80168823I78830673I77657447I76859069I76326252I75789286I75158987
1823I74651534I74492630I74580644I74590579I74320576I73800792I73162954I72514655
1815I71833278I70984815I69943026I68849749I67745660I66492952I65061061I63569676
1807I62023765I60393989I58943513I58048647I57678475I57400874I56966474I56626867
1799I56777764I57486668I58523606I59709339I60998047I62292131I63435376I64402243
1791I65323116I66330308I67500086I68872950I70386309I71813116I72873490I73446223
1783I73666608I73814000I74093645I74504084I74887231I75108318I75185286I75230053
1775I75305209I75396379I75459263I75420691I75248637I75076058I75047772I75015979
1767I74676430I74043619I73465918I73164064I73075992I73108661I73204156I73202636
1759I72974011I72657546I72496947I72460246I72211399I71477074I70372166I69367955
1751I68948633I69290811I70319685I71950163I74052969I76296388I78344493I80157777
1743I81829748I83283555I84405411I85319212I86269247I87347505I88443412I89356980
1735I89951219I90300467I90637096I91073542I91476559I91680053I91715938I91741887
1727I91835511I91952395I92057708I92178216I92329698I92499530I92714013I93028781
1719I93432965I93824647I94099326I94240873I94327016I94421576I94476511I94397848
1711I94227665I94172028I94396446I94835346I95244204I95421404I95335725I95054387
1703I94655227I94291016I94232691I94659552I95404339I96087060I96518830I96802272
1695I97034290I97137499I97045628I96870652I96804145I96952705I97300669I97741791
1687I98110327I98273731I98278406I98330420I98530643I98725723I98746996I98645189
1679I98535201I98414106I98297575I98308679I98488447I98718476I98890997I98971180
1671I98942777I98864815I98872643I98976556I99008346I98872060I98694511I98642381
1663I98728878I98843542I98865750I98742320I98548526I98455603I98556588I98765931
1655I98950374I99082337I99181919I99198633I99072986I98881646I98806370I98931322
1647I99152701I99316222I99366013I99329664I99265377I99262806I99378518I99546835
1639I99664535I99745301I99871422A000025242A000108581A000075266I99923786
1632I99627368I99238023I98992450I99114713I99505688I99815201I99825954I99607147
1624I99322414I99074854I98929566I98924773I99045983I99230312I99385298I99435795
1616I99413119I99435441I99556185I99708836I99806084I99803513I99695511I99542977
1608I99450168I99444327I99464431I99494351I99581199I99704745I99794980I99898306
1600A000145747A000512766A000805675A000925602A000942667A000874757A000621703
1593A000212257I99918875I99974164A000284141A000556712A000645313A000666349
1586A000811873A001126760A001467127A001652856A001668168A001675531A001806208
1579A002002573A002095146A001964350A001626557A001256150A001090639A001217696
1572A001507919A001792416A001967158A001936534A001720765A001605050A001828650
1565A002165157A002220212A002061483A002091990A002398694A002672554A002675944
1558A002451877A002203030A002163874A002425110A002772257A002842969A002483549
1551A001898780A001508968A001669921A002414357A003402146A004158621A004404195
1544A004209813A003814280A003294262A002564904A001806208A001573959A002195549
1537A003252765A004020113A004298648A004452001A004696289A004813524A004657483
1530A004481923A004515352A004558015A004315597A003918655A003784825A004043607
1523A004373688A004441832A004255398A004017542A003895514A004035659A004509508
1516A005120462A005514359A005542297A005298593A004907379A004534170A004398351
1509A004487647A004488001A004224541A003934320A003960502A004374273A004942915
1502A005350256A005485723A005508635A005548492A005538908A005491453A005616048
1495A005964016A006295616A006421618A006345175A006080432A005702662A005498816
1488A005736090A006321798A006892895A007159391A007061208A006662049A006018951
1481A005263061A004786056A005068682A006119586A007229171A007539730A006869048
1474A005851456A005294970A005503841A006189015A006854791A007212457A007310055
1467A007366861A007496018A007579006A007420160A006993766A006494901A006174057
1460A006192875A006570294A007094287A007334484A007018545A006412851A006041276
1453A006016260A005970795A005678584A005399114A005489696A005926028A006392864
1446A006699218A006869168A006911947A006808271A006721426A006858999A007105625
1439A007151560A006971555A006803712A006699452A006480410A006124615A005853794
1432A005825975A005979211A006182356A006389474A006607580A006768881A006731595
1425A006483216A006254704A006278902A006518281A006790154A007061442A007465044
1418A008132216A009158814A010624426A012509419A014683817A017042425A019511255
1411A021912406A024095690A026230699A028588255A030962292A032771310A033796034
1404A034293961A034327507A033555486A031772998A029194417A026112178A022785768
1397A019795281A017947928A017713692A018958623A020954191A022656494A023497357
1390A023777882A023986169A024190367A024214094A024065531A023882961A023504490
1383A022567312A021175450A019941152A019197651A018731167A018322188A018070306
1376A018076617A018056630A017559287A016562031A015509137A014650856A013712389
1369A012443964A011135795A010261500A009916107A009832535A009691102A009326426
1362A008857016A008572053A008537574A008491635A008288961A008162255A008296675
1355A008432846A008226895A007809969A007626107A007802138A008051335A008207142
1348A008475976A009028368A009630442A009891445A009731547A009468440A009487142
1341A009869587A010344488A010608880A010605140A010427827A010162499A009935744
1334A009892494A009987637A010028900A009980393A009986004A010098447A010229357
1327A010391239A010731723A011167584A011178338A010337943A009043095A008226428
1320A008288023A008872681A009707816A010856441A011980400A012245257A011454071
1313A010654930A010944101A012005531A012598485A012323807A011993725A012293884
1306A013115113A014147318A015030847A015095834A014125695A013103775A013122944
1299A013894147A014202952A013474065A012190675A011078288A010504035A010514436
1292A010903662A011255017A011348173A011509824A012163324A013237608A014447243
1285A015691360A016676460A016730578A015591657A013925706A012702976A012467691
1278A013401012A015536254A018408101A020854372A021970383A022173061A022558426
1271A023263241A023345524A022158100A020104326A018425166A018658934A021312091
1264A024574799A025517003A023350083A020696695A020384497A021850343A022443064
1257A020974880A018717961A017452338A017336155A017123075A016067140A014831910
1250A014433919A014927521A015522813A015660149A015570617A015804387A016466419
1243A017070244A017066737A016306405A014974739A013398908A012072622A011551786
1236A011989751A012912670A013742899A014380266A014935349A015150536A014667103
1229A013806016A013466815A014018395A014702635A014466529A013248475A012070515
1222A011792681A012168000A012382950A012089687A011550968A011207912A011425200
1215A012237310A013184542A013781354A014083499A014433100A014881118A015227329
1208A015355551A015252459A014987249A014795439A014847569A014954755A014887313
1201A014876910A015348421A016260937A017058555A017129621A016157611A014432046
1194A012909864A012482883A013174607A014391606A015679554A016884982A017870317
1187A018332123A017854654A016287468A014335268A013517779A014830270A017430130
1180A019352526A019571798A018851326A018439309A018660805A019226759A019949104
1173A020577941A020873191A021110933A021706693A022682092A024165938A026441675
1166A028836166A029629808A027840075A024422265A021325416A019752270A019470345
1159A019705867A020125014A020566484A020798852A021150323A022303153A023838194
1152A024277092A023057057A021244766A020136352A020026481A020384264A020722994
1145A021082063A021741053A022535051A022882315A022806457A023211110A024559370
1138A025924926A026042398A024872270A023391693A022321968A021762560A021662744
1131A021991189A022526051A022766362A022291815A021357676A020759229A020800719
1124A020993932A021015906A021043608A021150090A021166220A021032504A020800372
1117A020511901A020230093A019942555A019563385A019108939A018540648A017491027
1110A015690308A013686908A012589601A012833071A013799704A014758620A015416097
1103A015671723A015436552A014871884A014541098A014939677A015757516A015887605
1096A014635778A012895251A012341924A013098983A013592936A013024645A012532211
1089A013191088A014347655A014759441A014144861A013354492A013341869A014226566
1082A015421591A016241651A016212547A015273846A013898004A012766095A012276819
1075A012374885A012583640A012333157A011659202A011410823A012209377A013503051
1068A014404230A014657752A014410191A013875562A013471373A013652312A014286644
1061A014615440A014000278A012378859A010067472A007865255A007296962A009194344
1054A012245962A014548933A015332991A014977664A014333982A014068071A014322060
1047A014795325A015140601A015187355A014803039A013839913A012275767A010208902
1040A007995231A006729842A007456862A009386154A010899455A011432678A011519640
1033A011792567A012019554A011276290A009158697A006818674A006014508A006608983
1026A007196093A007513551A008255883A009392816A010211120A010446645A010427593
1019A010350332A009917156A008818681A007379484A006511268A006710436A007443888
1012A007790216A007083767A005143602A002620658A000866458A000571092A000954937
1005A000778912I99328729I96946042I95521691I96663066I99116350A000729119
998A000747821I99638355I98086833I96426138I94881395I93533723I91831537
991I88849702I83986614I77447231I70810892I65819407I61618936I55992594
984I48103723I38034551I25200832I09766788H94846918H83214477H74335538
977H67400326H62416087H58443074H54173349H49973346H48108457H49735078
970H53354224H57270841H61034223H64845878H68919471H73169383H76704841
963H78285584H77698883H76783212H77680941H79469388H80506151H80203421
956H78206628H74329343H69079485H63467111H57738261H50985506H43163609
949H38056993H39638262H45586328H52126472H57776775H62123760H65217804
942H68000643H71742752H76281018H80536658H84735142H90353594H98007118
935I08041284I21060089I34341417I44235964I50693178I55372932I58999910
928I60951293I60769713I60633660I64324749I70628903I76295336I80140361
921I82069244I82691069I83034709I83091281I82131661I81269990I83309036
914I87830938I91409701I92420982I91990850I92500466I94323740I95493054
907I94375173I90257807I83275020I77721792I78802621I81421705I81260054
900I79786670I81371562I86524406I91383402I93957542I94073027I91872797
893I88020992I85351472I87593780I92844222I96829859I98237263I97748453
886I96782403I96121891I95613678I95684978I97106525I98908763I99276245
879I98073508I97816830A000297579A003436039A005034669A004929122A004274220
872A004238921A004947006A005785650A006375565A006885648A007570240A008289195
865A008685079A008692095A008624068A008755096A009055251A009417128A009846444
858A010316903A010693152A010898286A010988404A010923065A010286046A008376975
851A004929122A001576644A001279644A003165803A003685123A001630531I99034531
844I98660264I99928111A000742327A000215880I97688842I91482170I81062166
837I74399940I77297677I82255792I85227808I86009531I85100402I83394946
830I81317445I77879410I71768992I63142289I53646317I45744706I43943169
823I48459227I52734678I53498868I51637895I50096892I50209043I49980768
816I47841961I44571071I41818738I39719087I37969037I37998609I40570765
809I44215801I48789717I55149157I62020843I66862657I68192041I65873758
802I61597897I61616365I71421144I82975328I89615057I91501920I89994580
795I87069905I85946764I88702895I93093420I95463015I94412809I91760588
788I91844160I96191554A001577232A005191758A006647204A006861219A006622542
781A005694831A003292859I99147324I94152859I90844449I91810264I95540860
774I98258185I98217857I96032826I93908337I93125329I92037250I88318580
767I81032481I72781210I70271997I74064073I78990279I82682653I84835545
760I85916257I87065580I89105094I91496663I93110602I93321578I92027435
753I89149741I84900065I81071169I79736351I79893151I79535719I78461903
746I77766500I77645583I76919498I75032168I72881146I71149856I69184213
739I67017821I66992399I70082060I73987397I76792328I78334090I79244151
732I79796079I79630804I78710399I78103887I78821264I80068711I80345084
725I79482829I78590885I78538112I79463718I81172622I82700066I82556886
718I79869716I75095051I70011286I65889187I61910971I56726452I50140315
711I42864677I35463272I28017276I20835964I15018165I11392239I09223276
704I07424485I06033329I05512083I05739774I06885941I10288618I16792352
697I25031525I33095722I40230690I46589838I52528845I58137596I63284946
690I67978143I72424771I76759600I80795086I83934133I85457250I85297355
683I84696102I85502016I88145825I91271658I93522385I94524317I94557746
676I94074777I93498540I93084066I92789287I92354594I91550661I90404962
669I89313965I88837893I89152546I89866244I90605187I91424779I92467037
662I93623957I94743241I95832953I96917640I97901452I98622397I98940904
655I98798775I98238315I97346368I96183136I94747215I93000964I90986931
648I88924157I87123087I85825201I85116067I84870960I84759336I84423528
641I83692533I82603169I81272559I79765397I78002197I75813305I73171720
634I70320036I67540995I64845293I61982972I58681225I54789504I50329726
627I45530574I40699513I35947699I31144456I26143679I20898614I15398390
620I09663521I03787046H97887078H92062910H86426983H81100333H76133218
613H71477659H67082459H63000976H59355531H56208363H53537206H51315178
606H49508848H48016060H46709177H45536886H44517889H43637458H42783794
599H41807050H40670701H39575086H38909664H39056880H40248515H42572350
592H46002729H50364032H55365101H60827630H66873411H73777181H81644838
585H90306197H99472906I08860350I18151307I26953629I34883584I41668133
578I47146441I51203085I53738773I54728198I54316415I52843089I50725087
571I48283082I45702628I43183362I41061445I39688230I39152549I39175634
564I39356804I39481228I39511267I39344415I38732876I37435461I35367310
557I32613925I29321061I25519225I21093693I16013084I10550380I05201872
550I00413123H96455421H93555171H91980915H91875194H93079511H95279799
543H98223062I01642629I05119177I08222104I10749493I12736642I14290853
536I15485819I16384309I17085030I17698497I18299750I18954653I19737543
529I20668293I21691615I22756781I23872325I25071266I26349278I27627233
522I28771588I29648279I30144686I30225103I30029906I29768553I29407731
515I28657626I27379906I25818974I24323791I23018485I21848006I20793359
508I19901824I19144823I18336218I17186369I15427903I12960534I09876016
501I06280364I02157329H97503230H92487200H87367317H82330014H77439984
494H72668826H67994215H63485286H59200075H55052611H50920167H46824308
487H42898048H39232908H35833036H32704511H29943354H27653006H25775961
480H24180549H22951920H22401804H22714411H23703837H24944447H26077172
473H27014117H27900450H28881752H29925412H30872876H31637767H32323410
466H33120093H34127051H35413597H37276615H40225723H44541733H49906781
459H55550830H60720155H64996425H68330257H70988439H73462529H76205978
452H79378686H82918760H86753850H90777884H94781930H98601767I02190465
445I05409634I07950348I09581994I10345131I10440743I10029252I09183828
438I08012004I06804823I05985815I05832872I06285623I07104924I08186688
431I09616299I11479084I13811043I16751442I20496707I25002830I29900223
424I34750804I39264174I43317428I46939030I50208517I53079136I55418400
417I57278088I58954442I60712206I62580192I64451685I66261638I67989831
410I69563444I70889496I72024267I73177156I74431499I75558848I76229413
403I76318362I75932586I75281423I74614189I74102704I73683498I73182240
396I72655501I72403498I72593435I73084583I73674615I74312920I74980388
389I75535880I75795656I75684148I75249163I74593384I73821480I72981842
382I72076281I71182876I70455680I69877980I69184155I68191398I67076848
375I66227041I65980999I66570564I68100579I70479875I73404963I76421630
368I79084137I81196002I82913613I84590319I86567419I89066988I92146423
361I95759550I99852838A004280061A008653991A012525663A015721045A018308045
354A020283159A021543873A022187905A022581455A023048406A023641361A024202640
347A024446694A024045196A022896922A021255285A019363627A017087426A014089577
340A010233796A005675428A000639820I95140765I88926378I81816190I74057353
333I66225638I58927442I52803582I48582481I46709936I46924887I48435791
326I50459877I52352058I53350308I52611658I49616323I44437531I37743392
319I30667159I24522085I20529785I19755661I22909082I29861534I39548203
312I50566007I61753002I72258270I81491135I89193692I95459625A000657118
305A005248567A009456518A013087412A015873582A018004965A020099884A022539961
298A025048765A027127669A028728279A030257127A032053991A034087310A036091758
291A037855890A039346051A040563281A041396435A041720204A041533888A040928781
284A040031460A038970618A037736788A036129041A033944945A031109215A027494218
277A022737142A016457416A008797057A000716727I93655281I88822351I86638719
270I86609030I87679106I88862442I89671749I90046831I90011879I89511734
263I88593375I87636326I87194971I87556611I88652986I90433367I93073082
256I96723144A001270644A006385033A011590007A016322535A020232080A023459954
249A026360440A028949895A030930499A032228730A033115066A033731397A033862775
242A033277535A032014367A030208271A027723311A024197730A019544915A014063162
235A007872385A000774587I93000730I85653033I80214115I77922950I79408432
228I84231837I90678587I96562545A000567118A002727256A003641056A003488404
221A002025366I99275546I95805486I92292528I89064766I86210571I83922795
214I82414988I81682825I81731680I82831797I85021388I86956527I86618381
207I85044417I84498100I85284614I86488756I87264634I87603365I87988148
200I88584258I89081133I89133026I88688632I87984521I87448142I87478065
193I88068094I88769049I89223147I89633878I90505718I91974136I93641607
186I95083725I96153450I96764989I96916471I97070407I97937806I99695742
179A001784117A003475663A004394491A004662743A004790614A005166631A005425647
172A004615989A002268250I98948972I95468391I91862979I87580455I82587392
165I77795429I74223854I72136067I71233721I71345871I72448733I74176516
158I75977060I77836864I80259057I83407920I86786577I89831880I92313334
151I94225210I95768433I97230422I98673005A000130905A002008184A004612247
144A007359263A009109255A009456401A009177749A009229529A009719391A010033926
137A009880572A009810908A010530685A012139948A014291086A016717253A019245577
130A021507522A022987627A023345410A022688521A021689043A021214256A021505184
123A022041800A022535870A023411567A024927905A026553767A027500179A027404450
116A026546053A025645693A025149636A024689460A023733700A022474505A021516988
109A021285906A022109125A023953676A025835630A026534127A026014346A025501341
102A025806058A026352609A026395389A025853981A024578656A022134372A018731052
95A015423227A012948085A011171558A010023407A010059872A011534604A013599131
88A014903673A014596505A012837162A010583166A008794836A007658952A006529385
81A004700377A002219978A000063113I99439769A000637713A002645437A004195440
74A005071137A005959808A007230808A008695014A010387618A012662420A015574125
67A018666062A021223607A022992186A024463408A025628978A025335365A023572516
60A023242084A026259099A030344207A033703459A037553630A042063491A044087228
53A041228820A035329202A030225219A028156715A029582823A033661150A037987269
46A039983768A039039346A036713466A034643445A033306523A032718124A032840736
39A033622695A035304893A038140740A041426942A043183479A041009312A035063524
32A031621402A034707381A039861861A042441965A041984246A041544995A044566100
25A051696278A059697124A063333277A059576149A049993037A039592443A034692420
18A038821705A046511642A050551396A052484195A055796108A059915230A062160928
11A061351387A058768712A056790095A057031227A059574162A063873984A069008708
4A073072310A073741823A070610608A067705100
##END=


$$ === CHEMSPECTRA PEAK TABLE EDIT ===
##TITLE=X9248
##JCAMP-DX=5.00
##DATA TYPE=INFRAREDPEAKTABLE
##DATA CLASS=PEAKTABLE
##$CSTHRESHOLD=0.93
##MAXX=3997.453
##MAXY=1.0951001584722044
##MINX=373.96442
##MINY=0.838760609484266
##$CSSOLVENTNAME=- - -
##$CSSOLVENTVALUE=0
##$CSSOLVENTX=0
##NPOINTS=26
##PEAKTABLE= (XY..XY)
483.03737569197574, 1.0193201251650634
600.6095227365408, 0.9906673973929965
698.3502232916612, 0.9973753043599249
742.2627119468602, 1.0068317597656464
755.011498975789, 1.006234163520245
820.1719660125095, 0.9380509807307814
838.586880609851, 0.9655414166919439
902.3308157544952, 0.9851958100416084
988.739261172791, 0.9238512465733879
1049.6501325332288, 0.838760609484266
1145.9743011962469, 0.909615929421451
1174.3049390383107, 0.9578337019284334
1216.800895801407, 0.8555968355814559
1366.953276364347, 0.9235240765989945
1419.364956372187, 0.9862532559864214
1456.19478556687, 0.9895721624283255
1508.6064655746677, 0.9807255215681755
1522.7717844956996, 0.9566266480994855
1532.687507740422, 0.9689957443272179
1539.770167200938, 0.9627196145461634
1684.2564201954651, 0.9797421044478899
1716.8366537138386, 0.8547272036762594
1733.8350364190774, 0.894223745261498
1749.4168872322125, 0.8649786063724154
2851.478699288516, 0.9885714591670064
2922.305293893667, 0.9756556103249304
##END=


$$ === CHEMSPECTRA PEAK TABLE AUTO ===
##TITLE=X9248
##JCAMP-DX=5.00
##DATA TYPE=INFRAREDPEAKTABLE
##DATA CLASS=PEAKTABLE
##$CSTHRESHOLD=0.93
##MAXX=3997.453
##MAXY=1.0951001584722044
##MINX=373.96442
##MINY=0.838760609484266
##NPOINTS=137
##PEAKTABLE= (XY..XY)
3993.2034043236904, 1.014081949162474
3983.287681078968, 1.0165673441765455
3971.9554259421425, 1.012950889488974
3960.6231708053165, 1.013798588627463
3956.373575129007, 1.0139752572927674
3949.290915668491, 1.0102974102363533
3942.208256207975, 1.0115959585317664
3930.8760010711494, 1.00866257617632
3923.7933416106334, 1.0101782032780504
3918.1272140422207, 1.0088072957204954
3901.128831336982, 1.0003762188310439
3891.2131080922595, 1.0068339056173625
3882.7139167396404, 1.0028079695919985
3869.9651297107116, 1.0008500757203165
3862.8824702501956, 1.0023342320300315
3852.966747005473, 0.995051020586217
3838.801428084441, 0.9971095267543739
3818.969981594996, 0.9965787476807034
3800.555066997654, 0.9993634165968605
3779.3070886161063, 1.010042185448153
3767.9748334792807, 1.0084162897172255
3758.0591102345584, 1.004445190198142
3749.5599188819388, 0.9917578052111979
3735.394599960907, 0.9929953762336089
3724.0623448240813, 1.0036988203398525
3711.3135577951525, 1.0007346790766574
3701.39783455043, 1.011275166958814
3688.649047521501, 1.0005849549248915
3674.483728600469, 0.9941567725797764
3648.9861545426115, 0.9899873082435089
3627.738176161063, 0.9992039749188825
3617.822452916341, 0.9984816255452009
3596.574474534793, 1.0039945786759374
3586.6587512900705, 0.9994488896239094
3576.7430280453477, 1.00837790406084
3566.8273048006254, 0.9940442989451564
3545.5793264190775, 1.003819460245713
3537.0801350664583, 1.009688013846297
3525.7478799296323, 1.0068302074907833
3508.749497224394, 1.0090596597130383
3501.666837763878, 1.0066723772413755
3487.501518842846, 1.0101277778025075
3480.41885938233, 1.009698743104877
3466.2535404612977, 1.0112585967816135
3460.587412892885, 1.01190173118249
3446.422093971853, 1.0105259342650839
3430.840243158718, 1.013202184635225
3419.507988021892, 1.011012310322519
3412.425328561376, 1.0120706507121775
3398.260009640344, 1.0112866111613354
3384.094690719312, 1.0090213954237415
3374.1789674745896, 1.0086021363861384
3364.2632442298673, 1.0051727216405348
3358.597116661454, 1.0041180773376723
3344.431797740422, 1.0046651308200085
3335.932606387803, 1.0034111681014095
3328.849946927287, 1.0042086783791835
3310.435032329945, 1.0057331244827143
3301.935840977326, 1.0061597746740178
3277.8547988115715, 1.008650417029857
3273.605203135262, 1.0086101241763665
3253.7737566458172, 1.0112769527888303
3241.024969616888, 1.012167090632526
3235.3588420484753, 1.012416476541889
3229.6927144800625, 1.0124400798908735
3216.9439274511337, 1.013127797828781
3197.1124809616886, 1.013796324468333
3184.36369393276, 1.015227550448981
3177.281034472244, 1.0153608268105265
3170.198375011728, 1.016577476798598
3156.033056090696, 1.0157310902604695
3139.034673385457, 1.0159615225061964
3126.2858863565284, 1.01610266427099
3113.5370993275997, 1.016150111663353
3102.204844190774, 1.0145498458058204
3097.955248514464, 1.0146278083518634
3090.872589053948, 1.0143154788186863
3080.9568658092257, 1.0130507888812905
3063.9584831039874, 1.011427039002079
3056.8758236434714, 1.0123996677100775
3041.2939728303363, 1.011408323993054
3029.9617176935103, 1.0085830613554139
3011.546803096169, 1.010421866576207
2991.715356606724, 1.0105047174622095
2953.4689955199374, 0.9938767501496449
2922.305293893667, 0.9756556103249304
2869.893613885848, 0.992431933094868
2852.8952311806097, 0.9882224747333195
2794.8174236043783, 1.013947600894962
2782.0686365754495, 1.0140094705730265
2767.903317654417, 1.0166320746502675
2748.0718711649724, 1.0181552112131125
2721.1577652150118, 1.0183163826270745
1791.9128439953088, 1.0153241107165265
1749.4168872322125, 0.8649786063724154
1733.8350364190774, 0.894223745261498
1716.8366537138386, 0.8547272036762594
1684.2564201954651, 0.9797421044478899
1670.0911012744327, 1.000788922006085
1663.0084418139168, 1.011723035992775
1653.0927185691944, 0.9971701450255679
1647.4265910007816, 0.9992760965463049
1636.094335863956, 1.004951590805288
1624.7620807271305, 1.015417927475937
1616.262889374511, 1.017664903473945
1558.1850817982795, 0.99378221640651
1539.770167200938, 0.9627196145461634
1532.687507740422, 0.9689957443272179
1522.7717844956996, 0.9566266480994855
1508.6064655746677, 0.9807255215681755
1497.2742104378417, 1.005558724056106
1490.1915509773257, 1.011488193736202
1473.1931682720874, 1.0105538313572835
1456.194785566849, 0.9895721624283255
1434.9468071853007, 0.9992247766259165
1417.9484244800624, 0.9862273283047085
1405.1996374511336, 0.9975598404682604
1396.700446098514, 0.9980027028548479
1366.953276364347, 0.9235240765989945
1340.0391704143858, 1.004283184512933
1318.791192032838, 1.0085073629685009
1216.800895801407, 0.8555968355814559
1174.3049390383107, 0.9578337019284334
1145.9743011962469, 0.909615929421451
1049.6501325332288, 0.838760609484266
988.739261172791, 0.9238512465733879
932.0779854886628, 0.9917460621804669
902.3308157544952, 0.9851958100416084
838.586880609851, 0.9655414166919439
820.1719660125095, 0.9380509807307814
755.0114989757622, 1.006234163520245
742.2627119468334, 1.0068317597656464
698.3502232916339, 0.9973753043599249
674.2691811258792, 1.0012099689134875
664.3534578811568, 1.00408124395615
648.7716070680217, 1.007089966716593
602.0260546286158, 0.9905530165612715
##END=

##END=

