##TITLE=X9244
##JCAMP-DX=4.24
##DATA TYPE=INFRARED SPECTRUM
##DATE=5/11/2018
##SAMPLING PROCEDURE=ATR platinum Diamond 1 Refl
##ORIGIN=ComPlat
##XUNITS=1/CM
##YUNITS=TRANSMITTANCE
##RESOLUTION=4
##FIRSTX=3997.453
##LASTX=373.96442
##DELTAX=-1.4165319
##MAXY=1.0553656
##MINY=0.72398651
##XFACTOR=1
##YFACTOR=9.8288577e-010
##NPOINTS=2559
##FIRSTY=1.0128169
##XYDATA=(X++(Y..Y))
3997+1030452300+1030102635+1029548848+1029124957+1029015194+1029207309
3989+1029576137+1029911490+1030029743+1029928834+1029748119+1029605124
3980+1029552487+1029605367+1029701182+1029631807+1029142543+1028292699
3972+1027642733+1027743036+1028467835+1029205248+1029570315+1029548605
3963+1029252913+1028988754+1029135873+1029617253+1029957578+1029954910
3955+1029714645+1029095606+1027819567+1026230248+1025396535+1025961844
3946+1027121935+1027566202+1027144494+1026897194+1027490157+1028417502
3938+1028980143+1028970682+1028335877+1026999559+1025304722+1024169252
3929+1024161854+1024792293+1025241897+1025299507+1025334801+1025471732
3921+1025306784+1024649056+1024119404+1024714792+1026532248+1028499005
3912+1029660430+1029962672+1029697301+1028704826+1026467482+1022880235
3904+1018895538+1016146978+1015539522+1016856192+1019386864+1022054285
3895+1023634628+1023482537+1022300978+1022080361+1023694543+1025436195
3887+1025424188+1023590116+1021572419+1020526822+1020400806+1021466174
3878+1023671256+1025357481+1024752997+1021779695+1018258914+1016185789
3870+1016377177+1018229077+1019836710+1019665456+1018091055+1017313922
3861+1018707425+1021024939+1022434756+1022199584+1020159813+1016232727
3853+1012681320+1013586470+1017852609+1022219232+1025174584+1026236919
3844+1025158089+1022014139+1017713131+1013845292+1012082718+1013331347
3836+1016566078+1019811361+1022088366+1023472227+1024273800+1024490294
3827+1023974347+1022916864+1021544281+1019436348+1016360925+1014021580
3819+1014159542+1015787793+1017773895+1020288739+1023172654+1025418488
3810+1026208174+1025290775+1023214618+1021314810+1020082676+1018536171
3802+1016553586+1016140489+1018323680+1021498921+1024293933+1026446621
3793+1028072810+1029271712+1030029258+1030165582+1029535992+1028429509
3785+1027543401+1027165113+1026676698+1025600900+1024770341+1025498778
3776+1027576026+1029544118+1030229621+1029237267+1027159898+1025497080
3768+1025168155+1025627098+1026203323+1026571544+1026046744+1024095268
3759+1021617780+1020528398+1021102683+1021491158+1019851385+1015620844
3751+1010675145+1008669031+1009840583+1011571926+1012750149+1014026249
3742+1015888580+1017484024+1017733264+1015903256+1012184779+1008864300
3734+1009147197+1013173313+1018216343+1022003224+1023513343+1022637787
3725+1020465573+1019023252+1019546839+1021655621+1024248088+1026317209
3717+1027185125+1026525941+1024278045+1020817420+1017838661+1017800941
3708+1020814995+1024838867+1027999796+1029210584+1028439212+1027112596
3700+1026879972+1027651951+1028413135+1028591909+1027698039+1024917096
3691+1020096745+1015324302+1014227764+1017255826+1021363203+1024628073
3683+1026587069+1026853532+1025077919+1021315053+1016079968+1011485511
3674+1010931056+1013352390+1014559176+1013797930+1014533888+1018717128
3666+1023707642+1026901561+1027911015+1027675480+1027012172+1025982584
3657+1024654999+1023754336+1023429535+1022096371+1017846787+1010617171
3649+1004685607+1005545821+1011335663+1017221745+1021258413+1023523895
3640+1024716005+1025335044+1025278161+1024198482+1022255133+1020212815
3632+1018425438+1016351646+1014248201+1014474276+1017476019+1020619968
3623+1022016201+1021053926+1017945028+1014235466+1012219952+1012176350
3615+1012699270+1013335228+1014458752+1015562202+1015690643+1015452076
3606+1016510894+1018773647+1020431370+1020387223+1019195234+1017982626
3598+1017125141+1016625932+1016964500+1018455517+1020162239+1020408569
3589+1018183353+1014466211+1012513886+1014047959+1016996943+1019077223
3581+1019747565+1019538591+1019137987+1018960183+1019150843+1019653812
3572+1020033434+1019326464+1016495187+1011706249+1007704997+1007709424
3564+1011018442+1014754081+1017401186+1019014034+1020115302+1020816208
3555+1020814873+1020064241+1019147205+1018651392+1018256488+1017205190
3547+1015617023+1014712419+1015401500+1017170199+1018820827+1019549386
3538+1019365033+1018959334+1018917127+1019012457+1018647632+1017686448
3530+1016543944+1015753651+1015507564+1015522421+1015507927+1015623451
3521+1016182090+1017103553+1017983475+1018500877+1018587353+1018307670
3513+1017677231+1016739516+1015877604+1015638006+1015908289+1015818599
3504+1014834371+1013592231+1013249116+1013964637+1014731764+1014734918
3496+1014257540+1014099627+1014419637+1014652686+1014371608+1013748022
3488+1013263488+1013170281+1013176648+1012780471+1012074835+1011857128
3479+1012512795+1013335531+1013468399+1012960882+1012479502+1012339054
3471+1012262948+1011917710+1011372837+1011039546+1011157556+1011415893
3462+1011302492+1010800736+1010448464+1010662471+1011235542+1011603764
3454+1011494547+1011040031+1010246767+1008912450+1007288383+1006211554
3445+1006193907+1006934595+1007834893+1008391531+1008329251+1007823978
3437+1007337443+1007102635+1007068312+1007186686+1007381712+1007456969
3428+1007315126+1007049088+1006720891+1006295120+1005845213+1005607980
3420+1005665287+1005723867+1005499490+1005184998+1005169838+1005410406
3411+1005510648+1005358800+1005246975+1005343760+1005388333+1005022537
3403+1004271116+1003506899+1003008660+1002779250+1002719214+1002706903
3394+1002589378+1002320186+1002003632+1001716672+1001434442+1001120617
3386+1000775682+1000447425+1000234084+1000156219+1000071866+999827234+999394550
3376+998851435+998351074+998046164+997854473+997440588+996656723+995842112
3366+995421921+995364492+995305305+995035021+994648304+994402096+994528414
3356+994973591+995365159+995417554+995171043+994716042+994080266+993488517
3346+993301677+993568383+993886392+993765046+993104164+992346315+992069543
3336+992406351+993013261+993534605+993863469+994067288+994278446+994571046
3326+994838964+994911008+994810523+994800153+995155639+995925071+996898201
3316+997758597+998245071+998279455+998049742+997914084+998111718+998590794
3306+999130815+999570534+999874899+1000015286+999942697+999802613+999968167
3296+1000586114+1001291386+1001671918+1001827708+1002187258+1002915695
3288+1003725151+1004232305+1004394948+1004509987+1004785000+1005106587
3279+1005322960+1005477962+1005660921+1005910646+1006345271+1007066068
3271+1007873341+1008374187+1008417122+1008223672+1008094504+1008175643
3262+1008482131+1008944954+1009431307+1009849376+1010191521+1010423297
3254+1010507165+1010575510+1010837546+1011265257+1011618015+1011784903
3245+1011874836+1012013525+1012277199+1012704971+1013174283+1013426556
3237+1013420916+1013438806+1013649599+1013825341+1013729344+1013565306
3228+1013781011+1014487193+1015249530+1015519874+1015208354+1014734918
3220+1014514785+1014571971+1014780703+1015230731+1016067051+1017100581
3211+1017910340+1018335202+1018610397+1018956787+1019263638+1019316034
3203+1019168066+1019113851+1019350600+1019799839+1020219243+1020401898
3194+1020338709+1020253445+1020400200+1020741132+1020955079+1020862902
3186+1020694801+1020783461+1021137855+1021470661+1021557138+1021479636
3177+1021579697+1022123053+1022950945+1023622863+1023940873+1024138446
3169+1024488960+1024932863+1025157482+1024947902+1024412186+1023871013
3160+1023526563+1023339542+1023252944+1023368650+1023805276+1024509821
3152+1025268458+1025809025+1025944501+1025752749+1025562332+1025593502
3143+1025684830+1025540015+1025160878+1024829406+1024718673+1024706787
3135+1024577255+1024279137+1023946330+1023691389+1023499274+1023354824
3126+1023327049+1023424199+1023529717+1023562221+1023528382+1023416194
3118+1023212920+1023000308+1022878295+1022862407+1022928264+1023058524
3109+1023233417+1023422986+1023561372+1023532142+1023289451+1022944395
3101+1022648460+1022444580+1022309226+1022238517+1022225175+1022225297
3092+1022186000+1022069324+1021869204+1021662413+1021562110+1021529363
3084+1021372057+1021075515+1020927668+1021114083+1021427120+1021592917
3075+1021621055+1021663504+1021750102+1021742946+1021432214+1020777275
3067+1020109601+1019883162+1020165756+1020600563+1020866662+1020973878
3058+1021153380+1021589521+1022168535+1022475386+1022182604+1021456228
3050+1020866420+1020870422+1021413779+1022011956+1022173023+1021801042
3041+1021240705+1020888372+1020747318+1020478793+1019880979+1019142475
3033+1018601058+1018414886+1018510337+1018712762+1018876982+1018955817
3024+1019003482+1019099904+1019267277+1019503176+1019820822+1020139316
3016+1020204325+1019831616+1019220703+1018840111+1019010638+1019686074
3007+1020537616+1021136521+1021180548+1020690556+1020001172+1019518216
2999+1019380436+1019307544+1018933258+1018317979+1017889601+1017859643
2990+1018009309+1018049333+1017886811+1017591482+1017364194+1017440482
2982+1017817800+1018159581+1018060855+1017345516+1016164079+1014930490
2973+1014072095+1013703207+1013591564+1013419279+1012964157+1012134871
2965+1011058770+1010088247+1009523302+1009328336+1009206020+1008903293
2956+1008406934+1007896385+1007542718+1007341506+1007134897+1006771406
2948+1006240723+1005694395+1005321686+1005146915+1005022719+1004875964
2939+1004787426+1004743157+1004568325+1004248617+1004004653+1003885308
2931+1003658687+1003297137+1003175549+1003531338+1004055592+1004301862
2922+1004242493+1004146677+1004146677+1004217144+1004422176+1004887789
2914+1005582510+1006285174+1006735202+1006824832+1006767464+1007011247
2905+1007786379+1008822517+1009676121+1010171934+1010358470+1010268295
2897+1009951801+1009598983+1009411901+1009372362+1009236948+1008792923
2888+1008081890+1007344114+1006791236+1006473045+1006302033+1006151518
2880+1005952368+1005711618+1005487119+1005398460+1005558192+1005875413
2871+1006069833+1006033265+1006004521+1006235569+1006684505+1007185958
2863+1007724767+1008390621+1009190617+1009991704+1010595036+1010889759
2854+1011009831+1011302249+1012052154+1013246751+1014633948+1015939823
2846+1017013256+1017869589+1018656486+1019495293+1020336162+1021042889
2837+1021602862+1022144885+1022756889+1023340148+1023686053+1023710067
2829+1023607460+1023686781+1024020921+1024367917+1024495509+1024468948
2820+1024528862+1024755544+1024936137+1024795932+1024370949+1024078652
2812+1024316007+1025025039+1025770578+1026203808+1026329459+1026356870
2803+1026426366+1026524728+1026586583+1026597256+1026597135+1026643830
2795+1026788402+1027038734+1027339642+1027633879+1027894399+1028035939
2786+1027914411+1027523995+1027111505+1026964507+1027134428+1027442370
2778+1027742793+1028085181+1028549460+1029001489+1029180384+1029029869
2769+1028755280+1028555645+1028504463+1028680205+1029158795+1029815796
2761+1030352725+1030603057+1030671341+1030715973+1030752601+1030753936
2752+1030764124+1030798811+1030794687+1030759272+1030783650+1030840169
2744+1030791655+1030647569+1030583166+1030697296+1030963395+1031327735
2735+1031649504+1031684798+1031371155+1031009968+1030948841+1031177463
2727+1031396261+1031406449+1031292320+1031259209+1031418213+1031749200
2718+1032191527+1032692312+1033136094+1033301284+1033022086+1032428517
2710+1031900200+1031719849+1031869879+1032181702+1032531488+1032834216
2701+1032998921+1032984003+1032858837+1032750650+1032743373+1032849740
2693+1033035549+1033223055+1033304438+1033250223+1033167022+1033146282
2684+1033116203+1032980607+1032821845+1032810808+1032950164+1033055803
2676+1032990552+1032799043+1032618935+1032558414+1032668904+1032924937
2667+1033206075+1033380362+1033424631+1033393097+1033303467+1033155985
2659+1033036640+1033072419+1033266112+1033461502+1033525540+1033495219
2650+1033480180+1033475328+1033366899+1033096676+1032734156+1032404867
2642+1032237979+1032345922+1032743858+1033282485+1033761197+1034121413
2633+1034418562+1034580598+1034397701+1033890002+1033478482+1033529179
2625+1033884665+1034134633+1034181449+1034195761+1034219290+1034221473
2616+1034357070+1034738269+1035135841+1035270103+1035208369+1035185083
2608+1035226683+1035158279+1034867316+1034528446+1034576717+1035292662
2599+1036383985+1037193319+1037309753+1036800841+1036000845+1035296786
2591+1034959129+1035002306+1035279321+1035701635+1036222797+1036703571
2582+1036977311+1037004721+1036878100+1036747476+1036798537+1037176946
2574+1037783735+1038230427+1038200834+1037819150+1037453961+1037258571
2565+1037181312+1037280281+1037651898+1038121150+1038365296+1038287553
2557+1038009567+1037615149+1037207874+1037104296+1037600109+1038476757
2548+1039063049+1038984699+1038602894+1038501136+1038780576+1039119204
2540+1039291186+1039298584+1039122964+1038707805+1038221937+1038050683
2531+1038367116+1038892037+1039207621+1039116657+1038642069+1038003624
2523+1037678581+1038078215+1039047039+1039978629+1040465225+1040546971
2514+1040405795+1040126354+1039746247+1039316049+1038914717+1038697860
2506+1038856622+1039386395+1039957404+1040177537+1040015621+1039855768
2497+1040083783+1040710584+1041439143+1041965277+1042126223+1041932045
2489+1041639263+1041590628+1041768311+1041775951+1041474194+1041253334
2480+1041452484+1041901481+1042240594+1042355694+1042347568+1042292747
2472+1042155088+1041870190+1041487051+1041182747+1041116040+1041261461
2463+1041387233+1041291418+1041088629+1041071164+1041286445+1041545267
2455+1041766976+1041956666+1042022645+1041967703+1041969280+1042017551
2446+1041881469+1041584079+1041427864+1041456851+1041379592+1041132535
2438+1041082686+1041487293+1042060486+1042298569+1042030407+1041454304
2429+1040847636+1040425564+1040292757+1040374140+1040532417+1040788328
2421+1041237325+1041758486+1042021311+1041836473+1041376924+1040982141
2412+1040796575+1040692634+1040529870+1040372320+1040376687+1040550367
2404+1040762373+1040949273+1041113857+1041147453+1040942238+1040669711
2395+1040608705+1040718710+1040750123+1040704399+1040792088+1041028108
2387+1041234899+1041387112+1041671040+1042237562+1043125853+1044452590
2378+1046414860+1048871245+1051178206+1052899847+1054469275+1056574054
2370+1059203877+1061974996+1064883410+1067983818+1070843476+1072876697
2361+1073741823+1073300103+1071700718+1069356886+1066498926+1063059284
2353+1059246811+1055888673+1053877525+1053554543+1054698503+1056703465
2344+1058784716+1060384586+1061341282+1061633457+1061362507+1060887676
2336+1060611995+1060581795+1060440620+1059858816+1058891083+1057804490
2327+1056771264+1055904682+1055295468+1054867574+1054381828+1053629740
2319+1052536598+1051234968+1050081062+1049312601+1048695988+1047815701
2310+1046677442+1045712741+1045254648+1045221779+1045257558+1045095764
2302+1044801284+1044580546+1044427241+1044217176+1044088250+1044290917
2293+1044656955+1044689096+1044240099+1043670544+1043282068+1043011967
2285+1042788196+1042820458+1043344288+1044246405+1045107408+1045573142
2276+1045572899+1045250888+1044886669+1044861927+1045374720+1046098791
2268+1046395697+1045951066+1045080240+1044466538+1044601649+1045285333
2259+1045801400+1045820199+1045711164+1045723778+1045611589+1045380541
2251+1045446520+1045745367+1045684967+1045093460+1044340523+1043677458
2242+1043259873+1043477944+1044543432+1046041666+1047344024+1048217761
2234+1048816666+1049268453+1049414601+1049019212+1048234984+1047679134
2225+1047926798+1048999322+1050306410+1051005133+1050610593+1049504959
2217+1048720487+1048904841+1049543649+1049562933+1048673307+1047645781
2208+1047252575+1047515642+1048097810+1048818122+1049519634+1049816904
2200+1049340375+1048283134+1047469554+1047551179+1048314910+1049133463
2191+1049736007+1050067236+1049963295+1049555534+1049356748+1049563661
2183+1050016175+1050893308+1052356733+1053695840+1054178554+1054379766
2174+1055255323+1056377451+1056567505+1055836884+1055381338+1056035791
2166+1057731719+1059975492+1061916900+1062357044+1060760812+1058312068
2157+1056930875+1057200370+1058258218+1059003999+1058651787+1056976356
2149+1054703961+1053033260+1052241633+1051461771+1050284093+1049584764
2140+1050105683+1051139516+1051420655+1050646736+1049443346+1048497080
2132+1048237894+1048630251+1048874519+1048112607+1046728624+1046120744
2123+1046907641+1048148265+1048643714+1048327524+1047961365+1047920734
2115+1047827102+1047317826+1046696120+1046464344+1046486782+1046192302
2106+1045563560+1045247492+1045543791+1045881691+1045567442+1044623723
2098+1043752776+1043797287+1045128996+1047180168+1048770214+1049230369
2089+1048994470+1048886769+1049135282+1049317816+1049017029+1048356875
2081+1048008908+1048586710+1049932973+1051264319+1052075351+1052507005
2072+1052805730+1052924468+1052716828+1052098638+1051057285+1049934186
2064+1049522788+1050283487+1051562316+1052203792+1051885662+1051330055
2055+1051243215+1051561709+1051767651+1051528235+1051044308+1051081300
2047+1052357460+1054486012+1056015052+1056025846+1055268543+1055056173
2038+1055457747+1055606806+1055484672+1056080788+1057611526+1058861247
2030+1058855546+1058375500+1059265611+1062193188+1065282923+1065645444
2021+1062539699+1058189934+1055226214+1054146899+1053593839+1052710642
2013+1052360492+1053665155+1056269265+1058915582+1060998894+1062285849
2004+1062075177+1060178644+1057802429+1056448403+1056629845+1057894605
1996+1059399994+1060361906+1060392469+1059518490+1058071075+1056840881
1987+1056872779+1058478107+1060632856+1061884517+1061859775+1061464265
1979+1061604228+1062225935+1062853948+1063293728+1063264862+1062432362
1970+1061205321+1060472032+1060422306+1060436496+1060024006+1059190414
1962+1058160341+1057205706+1056312200+1055036039+1053280439+1051906523
1953+1051819804+1052667829+1053207183+1052819314+1051903733+1050870385
1945+1049694648+1048639226+1048440804+1049200776+1050069540+1050434729
1936+1050494280+1050619810+1050799312+1050914775+1051152494+1051714529
1928+1052194332+1051689180+1049950681+1048199811+1047955543+1048964998
1919+1049627699+1049291618+1048859116+1049049897+1049374213+1049109327
1911+1048280951+1047613641+1047730681+1048579797+1049731883+1050793127
1902+1051331874+1050965351+1049798711+1048422126+1047462519+1047292720
1894+1047755423+1048108847+1047808424+1047329470+1047625526+1048740742
1885+1049855594+1050418720+1050497434+1050373844+1050263475+1050335154
1877+1050558683+1050489065+1049574819+1047698176+1045227116+1042979948
1868+1042288138+1043866056+1046610492+1048868576+1049945102+1050100347
1860+1049873544+1049651713+1049664206+1049964144+1050322662+1050352619
1851+1049787553+1048607086+1046922316+1044841430+1042716638+1041621192
1843+1042534589+1044672116+1046408917+1047006852+1046830261+1046611220
1834+1046368893+1045274296+1042879887+1040348912+1039547582+1040385662
1826+1041356669+1042030044+1043007722+1044294556+1045186364+1045332998
1817+1045044461+1044650527+1043936037+1042497840+1040611979+1039381058
1809+1039485606+1040261708+1040568681+1039754009+1037779975+1035292905
1800+1033468294+1032902984+1032906865+1032314388+1030351512+1027263717
1792+1024977617+1025288713+1027026969+1027927995+1027101074+1024994233
1783+1022389031+1019687893+1017161891+1014995680+1012669555+1009140466
1775+1003672453+996329011+988512133+981981906+976022751+968351839+958049286
1765+945047413+928091044+906667628+884624385+866098891+850603339+837233913
1755+827048581+819842373+813779094+808433943+806070159+808408898+813994132
1745+820616838+827309587+833902942+840340143+846415490+851299697+853685312
1735+852705572+849379755+846852783+846047572+845357278+843570508+840122436
1725+834798510+828121286+821433814+815410923+809066626+801651141+796259720
1715+797251164+803082728+810023626+816200670+820808590+823691655+825729668
1706+828399090+832219931+836683218+841946623+849137852+858984920+872344583
1696+889754315+907631480+921899506+932957665+942677323+951147503+957252383
1686+961153454+965734873+973668670+982595972+989839476+994817982+997657567
1676+999189154+1000651244+1001946446+1002122067+1002118914+1004556439
1667+1009098440+1012641721+1013683074+1013208485+1013479800+1015004231
1659+1016008410+1014928670+1010999401+1004065417+997918269+998114265+1000328990
1649+1000188663+998926996+1000693209+1005910222+1010851008+1013602176
1640+1013939713+1011952883+1008344957+1006060312+1008861025+1014722304
1632+1019306088+1021326817+1021458897+1021009051+1020670908+1020381037
1623+1020726699+1022510680+1024697934+1025461665+1024654028+1024686533
1615+1027329090+1030653148+1032524454+1032704441+1032286250+1032487098
1606+1033486123+1034620622+1035447422+1036173070+1037119214+1038100895
1598+1038633700+1038583852+1038338250+1038330366+1038618782+1039019750
1589+1039406285+1039736908+1039973050+1040101976+1040159344+1040057101
1581+1039354497+1037353173+1033792852+1030307728+1029900938+1031764846
1572+1032322999+1030266734+1027523267+1026838735+1027671235+1027959529
1564+1026949711+1024148270+1017795362+1006768374+998491826+999708617+1003474334
1554+1005426901+1005169049+1003102353+1000105280+996790561+992333338+985330828
1544+975795462+965279144+955776465+951418211+953677932+956864634+957119818
1534+954585447+952009657+951254719+950686741+948573229+945527217+943283505
1524+942163196+941981511+944029711+948607795+954096486+960573347+968866269
1514+977513586+984017251+987005349+986316450+983531443+984517430+994294577
1504+1005393548+1011722805+1013383742+1011565741+1008279524+1007058851
1496+1010223601+1015320603+1018380441+1017855035+1015418116+1015311931
1487+1019287410+1024390840+1027792520+1028973715+1028835814+1028256071
1479+1027039219+1024359185+1019927674+1014649715+1011003039+1011548640
1470+1014944377+1017521501+1017406341+1014942739+1012165131+1010577147
1462+1008875943+1004701132+996607057+986449136+981442673+983911551+988950699
1452+993532422+996758057+998591764+999845245+1001376771+1002953294+1003724363
1442+1003257598+1001550754+998448830+993949521+989698603+987890729+987728511
1432+987275632+986340161+985981582+986322878+986192012+985082739+983806578
1422+982862375+981549344+979980947+980489677+983985413+988179387+991092168
1412+992385975+992669297+992533943+992011811+991149596+990803813+991806961
1402+993437152+994316529+994182873+993824294+993780692+994016288+994445091
1392+994544787+993131696+989115283+982409800+974501594+967044872+959809313
1383+951693770+942510253+932926495+923457473+914047213+904720397+896486299
1373+890653765+887013820+884486059+882952107+882941010+884476841+887730008
1363+893824761+903189174+914073896+924367959+933230314+940885277+947947034
1353+954793754+961479528+968057783+974594195+980994283+986976907+991996165
1343+995363097+996974186+998010809+1000214982+1003881609+1007607969+1010126088
1333+1011222989+1011316985+1010880905+1010255196+1009680911+1009279761
1324+1008979035+1008548655+1007841139+1007075225+1006760551+1007158790
1316+1007969277+1008771820+1009514690+1010358349+1011301764+1012203821
1307+1012989263+1013648447+1014130433+1014305569+1013989985+1013046752
1299+1011526990+1009641009+1007540656+1005181542+1002448930+999377570+996206149
1289+993233939+990654208+988463437+986461568+984366066+981992701+979332497
1279+976474295+973522885+970546066+967485925+964145433+960382081+956287742
1269+952043071+947623810+942793999+937374015+931392119+925011255+918444218
1259+911909626+905514632+899187194+892786682+886243842+879578990+872838091
1249+866027515+859115726+852115641+845144787+838348704+831769175+825347559
1239+819066270+813024459+807369546+802231732+797727632+793918738+790759992
1230+788171345+786113624+784520910+783254876+782183445+781206312+780207470
1220+779140344+778188803+777716155+778026341+779281702+781674958+785523027
1210+791070966+798304888+807114969+817565854+829809210+843726298+858808753
1200+874402910+889895127+904621004+917834579+928966843+937799362+944267308
1190+948242242+949676619+948868497+946407079+942878656+938720158+934277731
1180+929841793+925649517+921956207+919070049+917183885+916184012+915717914
1170+915411063+914953636+914063890+912467537+909885986+906143556+901427086
1160+896286967+891185357+886196966+881266306+876489740+872016143+867933933
1150+864382405+861599582+859814631+859212329+859943132+862036390+865298713
1140+869358789+873796121+878176875+882013968+884835602+886415400+886921583
1130+886779983+886380652+885928259+885532567+885349062+885581626+886404060
1120+887908903+890083604+892861394+896251127+900290463+904751204+909040447
1111+912554377+915041265+916569516+917289100+917291223+916616211+915352543
1101+913714346+911955532+910201024+908404672+906477150+904411727+902247275
1091+899934856+897339660+894368663+890978444+887071249+882509296+877245466
1081+871374181+865054203+858367943+851237114+843523328+835214093+826484545
1071+817645356+809059289+801015911+793667557+787151824+781719894+777640655
1061+774980208+773513024+772852202+772671306+772780644+772967120+772842560
1051+771990836+770282719+767905776+765013432+761525397+757430816+753096394
1041+749055724+745606257+742760851+740433150+738562814+737208485+736592721
1031+736989990+738638071+741836053+746949671+754086443+762803559+772284771
1021+781752823+790604989+798356980+804793271+810145760+814861017+819211752
1011+823257880+827004252+830407812+833403490+836065271+838582541+840973917
1001+842987309+844386392+845253276+845928409+846685652+847565756+848535187
992+849700918+851300485+853514603+856317075+859539374+863106972+867121809
982+871675090+876731643+882227247+888010358+893636829+898502662+902240787
972+904825248+906382002+907044521+906845129+905693709+903613915+900967415
962+898281741+895923840+894036827+892689169+891974497+891981411+892700994
952+894029793+895912378+898385440+901403192+904723066+908043121+911150018
942+913914224+916299475+918407590+920341116+922030252+923405745+924708770
932+926318161+928250959+930121113+931621408+932797994+933822185+934723029
922+935413686+935839821+936021567+936003071+935850009+935681605+935617748
912+935661896+935673054+935470205+935000953+934457839+934177550+934368452
902+935045101+936284998+938348783+941391096+945138438+948985476+952398133
892+955176105+957430793+959543941+962185225+966056339+971402763+977890903
882+984976130+992197680+999180118+1005630721+1011356221+1016169719+1019857935
873+1022307043+1023631839+1024216675+1024612306+1025183316+1025732616
864+1025610482+1024359791+1022219111+1019812817+1017319561+1014162756
856+1009625424+1003551653+996287168+988171928+979310544+969719509+959505979
846+948932596+938476981+928915115+921265186+916454417+914845390+916025796
836+919071686+922912418+926339568+927952901+926519070+921423948+912792641
826+901602342+889849645+880072013+874351667+873887570+879209070+890152615
816+905600866+923643281+942077993+958898644+972855393+983822891+992468752
806+999547975+1005562134+1010802980+1015393374+1019335924+1022736149+1025954325
796+1029339389+1032855198+1036169795+1039036851+1041405183+1043324154
788+1044955074+1046519044+1048104966+1049641889+1051010833+1052041634
779+1052513433+1052311251+1051522777+1050346555+1048913694+1047113946
771+1044574117+1040894452+1035883684+1029396878+1021027122+1010397099+998096497
761+986068847+976595216+970817563+968304659+967798840+968144502+968705385
751+969292889+969864808+970265291+970190155+969381245+967976947+966705395
741+966460703+967584893+969845160+973127738+977695998+983679714+990670217
731+997840040+1004341582+1009784064+1014360450+1018294571+1021353985+1023197153
721+1023869557+1023603094+1022468715+1020551928+1018184445+1015774209
713+1013462335+1010853373+1007119009+1001626315+994449761+986155929+977386236
703+968843953+961478982+956562635+955465127+958913562+966113282+974780004
693+982374930+987373509+989468829+989008734+986533004+982684328+978171435
683+973592988+969163963+964606498+959642970+954700364+950751568+948535873
673+948294698+949996205+953184484+955982529+955836320+953627841+951672303
663+950343201+949310399+948859946+949691840+951970118+955065857+958132851
653+960613190+962253326+963010933+963121484+963114814+963499105+964266475
643+964776843+964298616+962654658+960260372+957686098+955292902+953120203
633+951064422+949316888+948457038+948885780+950371400+952211051+953579630
623+953977870+953733480+953741910+954399032+955057003+954713827+952970113
613+950113427+946517206+942314135+937708216+933246930+929444646+926412339
603+924196220+923169845+923799011+926243207+930273810+935320600+940577273
594+945337467+949391902+953002860+956382405+959391243+961865275+963834701
584+965166531+965564528+965403280+965830142+967418490+969369662+970502525
574+970613016+970491852+970773051+971021382+970148615+967972702+965901215
564+965629597+967581558+970828600+974134465+976778356+978583622+979688832
554+980568876+981974933+984401117+987539548+990449600+992485611+994144547
544+996678130+1000511584+1004439641+1006896693+1007751207+1008236832+1009296135
534+1010695703+1011623958+1011511890+1010419113+1009296923+1009882851
526+1013229225+1017861099+1020959930+1021432457+1020510448+1019860967
517+1019864727+1019860482+1019383711+1018534716+1017530355+1016219688
509+1014071307+1010655982+1005869834+999846943+993545581+988968164+986990613
499+985802626+983212767+979083802+974621363+970602161+967347175+965329538
489+964705830+964963743+965512860+966326440+968024248+971221381+975602316
479+979900777+983078505+985464059+988455553+992924966+997935734+1001935046
469+1005135150+1008884251+1013246266+1016872020+1018930954+1019577281
460+1019159091+1018678681+1019982373+1023066529+1025437408+1026092347
452+1026674272+1028480085+1030639443+1031920818+1032443557+1033037853
443+1034250824+1036340929+1039245461+1042178496+1043512995+1041424104
435+1035695086+1028806220+1024067858+1022978355+1024474041+1026469058
426+1027946552+1029343027+1031395291+1033751130+1034125173+1029619072
418+1022763074+1020006630+1021176667+1022362955+1022438879+1023639722
409+1026978576+1029797118+1029277048+1025175190+1018129745+1008691226+998995037
399+993626418+997309843+1008959205+1022641304+1035914248+1048595079+1058641478
390+1063354370+1063039878+1061200349+1060652868+1060937039+1060849350
381+1061036735+1062259409+1064106337+1064955453+1062491306+1058143846
##END=
