##TITLE=X7471
##JCAMP-DX=4.24
##DATA TYPE=INFRARED SPECTRUM
##DATE=29/10/2018
##SAMPLING PROCEDURE=Diamant-ATR
##ORIGIN=ComPlat
##XUNITS=1/CM
##YUNITS=TRANSMITTANCE
##RESOLUTION=4
##FIRSTX=3997.453
##LASTX=373.96442
##DELTAX=-1.4165319
##MAXY=0.92340547
##MINY=0.51477903
##XFACTOR=1
##YFACTOR=8.5998836e-010
##NPOINTS=2559
##FIRSTY=0.86089784
##XYDATA=(X++(Y..Y))
3997+1001057549+1001605919+1002137725+1002037990+1001434034+1000946309
3989+1000991359+1001569809+1002413019+1003055926+1003153790+1002928467
3980+1002846336+1002846336+1002498546+1001843648+1001426756+1001523719
3972+1001874976+1002182013+1002414197+1002605974+1002678194+1002581855
3963+1002488288+1002660866+1003128769+1003630356+1003875639+1003667506
3955+1002916408+1001831519+1000971884+1000854267+1001534809+1002558498
3946+1003309665+1003543790+1003561463+1003728289+1003886174+1003649347
3938+1003018707+1002170646+1001187295+1000476119+1000777542+1002006177
3929+1002928121+1002817088+1002248826+1002045406+1002265322+1002345304
3921+1001950106+1001327506+1001025182+1001398756+1002264698+1003181790
3912+1003982513+1004728898+1005222376+1004943478+1003718933+1002203152
3904+1001344002+1001332635+1001844688+1002996806+1004632837+1005746003
3895+1005652783+1004744008+1004039416+1004214004+1004730493+1004690640
3887+1004039347+1003130017+1002050257+1001000439+1000741224+1001692070
3878+1002925418+1003445649+1003318883+1002824227+1002060238+1001514016
3870+1001869015+1002815078+1003357904+1003273555+1002918210+1002538329
3861+1002270312+1002164686+1002021910+1001587275+1000981240+1000837841
3853+1001668366+1002798098+1003574701+1004297521+1005145859+1005873046
3844+1006123319+1005755776+1004994974+1004296204+1004033940+1004232648
3836+1004613430+1004988251+1005272278+1005257585+1004837574+1004404880
3827+1004518477+1005051808+1005239357+1004862248+1004540032+1004465595
3819+1003980157+1003335240+1003637218+1004915131+1005858838+1005701299
3810+1004677194+1003509205+1003149701+1003746171+1004063535+1003408083
3802+1002634529+1002786523+1003792469+1005290853+1007088997+1008416605
3793+1008561806+1007904552+1007278834+1007060858+1007188594+1007533889
3785+1007828243+1007593356+1006681739+1005615218+1005096165+1005198742
3776+1005350320+1005180236+1004793979+1004475852+1004408970+1004473981
3768+1004455822+1004525547+1004992687+1005666506+1006017069+1005827164
3759+1005293695+1004694937+1004080239+1003247842+1002064188+1000889476
3751+1000542724+1000952477+1000929467+1000429682+1000633311+1001981988
3742+1002979201+1002489397+1000824880+998628003+996871652+996808928+998551209
3733+1000842900+1002922992+1004717255+1006085893+1006792564+1006699482
3724+1005994405+1005276645+1005043352+1005128186+1005013896+1004527210
3716+1003909393+1003532977+1003756013+1004692303+1006023654+1007402411
3707+1008549539+1009079611+1008857477+1008257749+1007876898+1007999782
3699+1008453685+1008852972+1008933855+1008912924+1009333835+1010402367
3690+1011597456+1012055032+1011584218+1010699285+1009754192+1008839041
3682+1007967970+1007137929+1006498210+1006629342+1008171806+1010051457
3673+1010160965+1008634303+1007318755+1007989386+1010304365+1012405803
3665+1013112890+1012299622+1010688335+1009181980+1008170420+1007794421
3656+1008188163+1008856853+1008884507+1008048783+1006990371+1006536399
3648+1006769831+1007478096+1008732652+1010248086+1011355084+1011703637
3639+1011596140+1011369292+1010838734+1009632764+1007720330+1005433144
3631+1003390756+1002839336+1004653213+1007315775+1009199723+1010274562
3622+1011061354+1011858334+1012476568+1012505539+1011887929+1010893973
3614+1009894057+1009377569+1009762648+1011261240+1013604081+1015520881
3605+1015681539+1014237216+1012457438+1011358480+1010945539+1010737336
3597+1010583540+1010633650+1010933271+1011193387+1011012075+1010448319
3588+1010326543+1011450522+1013207705+1014349842+1014431834+1013753788
3580+1012967619+1012573946+1012498469+1012422853+1012336633+1012370802
3571+1012446141+1012535203+1012890687+1013471632+1013545654+1012886112
3563+1012267394+1012366991+1013156139+1014154184+1014886360+1015069613
3554+1014747743+1014365714+1014304514+1014389279+1014325584+1014217185
3546+1014284692+1014545708+1015121871+1016211404+1017498327+1018198760
3537+1017890337+1016968947+1016135511+1015738025+1015712866+1015791947
3529+1015689301+1015349412+1015075850+1015306232+1016167462+1017171744
3520+1017572418+1017218736+1016844538+1017215270+1018087312+1018442935
3512+1017763848+1016676187+1016167670+1016461469+1017034860+1017475386
3503+1017855266+1018366972+1018854975+1018922135+1018453470+1017861019
3495+1017646370+1017797879+1017931090+1017918407+1018043232+1018577393
3486+1019444930+1020277396+1020664000+1020432578+1019817256+1019245529
3478+1018982156+1019125902+1019676421+1020367983+1020761309+1020739962
3469+1020513947+1020042509+1019093812+1018006013+1017591131+1018026875
3461+1018619533+1018923313+1019314699+1020147651+1021026069+1021346136
3452+1021216875+1021365612+1022171256+1023126398+1023431495+1022960196
3444+1022306269+1022060015+1022343834+1022771677+1022754003+1022115254
3435+1021384186+1021223321+1021687342+1022303497+1022722398+1023041010
3427+1023521180+1024119661+1024399737+1024044114+1023357543+1022947305
3418+1022990692+1023186212+1023293294+1023338621+1023362810+1023273818
3410+1023054317+1022995336+1023520210+1024687853+1025990648+1026736479
3401+1026588158+1025741068+1024697418+1023896279+1023498239+1023438842
3393+1023528389+1023498794+1023215876+1022915769+1022961028+1023335017
3384+1023673244+1023874585+1024270130+1024967306+1025487121+1025429802
3376+1025113894+1025094764+1025399861+1025609312+1025393693+1024739280
3367+1023850605+1022830728+1021427989+1019446871+1017290817+1015396888
3359+1013265785+1009920741+1005317606+1000524912+996511594+993461874+991254393
3349+989949588+989623907+990103869+991034546+992072512+992971862+993624403
3339+994023136+994168407+994156901+994314717+994942584+995861409+996419136
3329+996013334+994538168+992344410+989862675+987279056+984435113+980932669
3319+976512440+971477859+966548072+962220647+958590259+955732524+953794931
3309+952702141+952219822+952367866+953445338+955545183+958184180+960632993
3299+962576339+964181458+965600207+966910210+968444842+970530964+972896260
3289+974886182+976220443+977082435+977606547+977775868+977807680+978173699
3279+979019265+979820127+979959021+979520020+979120040+979023770+978951758
3269+978762546+978699198+978824785+978830607+978624760+978526966+978647355
3259+978625245+978194492+977521020+976845122+976183363+975484800+974802942
3250+974262265+973981981+973964584+973949475+973555455+972826328+972364455
3240+972511597+972695612+972133865+970879794+969542830+968365622+967208306
3230+966054733+964986894+963939779+962839643+961734169+960579071+959187977
3220+957580917+956096187+954875315+953526568+951649897+949411782+947219895
3210+945139457+942989780+940724426+938423378+936098142+933667279+931087472
3200+928496298+926157547+924163952+922242162+919908054+916827769+913103190
3190+909165904+905264588+901322935+897525167+894554112+892793880+891706843
3180+890407860+888522526+886220716+883788883+881516459+879710553+878447888
3170+877505013+876793213+876548692+876824471+877237897+877487824+877665809
3160+877903260+878173079+878453779+878744737+879115954+879879527+881260225
3150+882896326+884222270+885163759+885924352+886513545+886981378+887604463
3140+888499585+889543096+890724324+892047357+893188524+893772311+893919938
3131+894178044+894955340+896187718+897465007+898415021+898983283+899403085
3121+899999070+900963500+902156095+903221785+904027567+904786358+905621736
3111+906345734+906827568+907295679+908034301+908934759+909590003+909862179
3101+910116819+910752379+911806079+913215401+915024080+917005476+918534148
3091+919241928+919541619+920239349+921746605+923761269+925638702+926963329
3081+927701674+927989444+928034910+928158488+928680729+929754944+931268853
3071+932774791+933696735+933846095+933566296+933346865+933566019+934447764
3061+935876631+937436354+938825992+939871167+940172660+939440414+938142124
3051+937082186+936328870+935152425+933060482+930447129+928097981+926451623
3041+925585334+925587344+926474842+927871689+929259179+930509576+931775707
3031+932986113+933808669+934006129+933618555+932929488+932287829+931849798
3021+931581227+931480660+931498056+931305448+930572647+929408470+928147745
3012+926811405+925119857+922884653+920129633+916999793+913757949+910729438
3002+908132026+906000993+904290316+903011433+902253889+902020458+902121024
2992+902369912+902781259+903389581+904045241+904557917+904846865+904903074
2982+904834112+904904322+905324471+906167056+907557250+909557636+911756870
2972+913404475+914100195+914037402+913554736+912771410+911713066+910523245
2962+909373414+908271614+907142576+906042162+905134773+904528461+904250949
2952+904282346+904538996+904954432+905580982+906463767+907462089+908326368
2942+908911264+909250252+909491724+909818861+910370904+911097744+911616589
2932+911366038+910125621+908375092+906988988+906543195+906913649+907588161
2922+908357903+909486248+911129280+912985989+914743449+916477205+918399620
2912+920547149+922813958+925006746+926906704+928490754+929967860+931458343
2902+932834951+933940702+934764782+935399788+936020308+936889300+938167213
2893+939683618+941044216+942029162+942784279+943587775+944517065+945399642
2883+946082263+946667505+947355324+948054718+948367578+948055827+947378058
2873+946920413+947168884+948141978+949340325+950155602+950348073+950063838
2863+949547211+948989207+948469115+947873961+947001920+945869416+944854252
2853+944401320+944561076+944985107+945478030+946305991+947786702+949823406
2843+951976549+953784881+955038190+955933589+956876186+958035443+959259018
2833+960365670+961269663+961904738+962271866+962500862+962759868+963153888
2823+963699209+964304481+964798929+965052945+965127729+965297051+965821024
2813+966653144+967478887+968070090+968498210+968974915+969550454+970029308
2803+970200084+970062368+969739459+969319448+968924181+968751464+968887101
2793+969196772+969455363+969508938+969379608+969282507+969460907+969976564
2783+970694394+971401203+971903137+972112172+972088953+971948118+971726538
2774+971395243+971025342+970851586+971027630+971413887+971847828+972470913
2764+973427511+974396031+974847299+974683038+974270097+973943930+973740024
2754+973547346+973346836+973278567+973478730+973888483+974321108+974696692
2744+975051621+975316588+975315202+975089672+975034433+975504207+976390873
2734+977243577+977749461+977919406+977873108+977719381+977653469+977884474
2724+978368526+978848003+979216656+979632855+980214424+980849707+981360373
2714+981707818+981998775+982381983+982956205+983719987+984572137+985341879
2704+985856773+986046332+986011331+985941745+985933290+985941607+985956439
2694+986100254+986455669+986923502+987357721+987681046+987806010+987684789
2684+987517339+987649580+988147840+988694062+988987515+989043308+989017525
2674+988977673+988975940+989125924+989462140+989884854+990281854+990545296
2664+990562277+990403352+990350261+990560197+990911384+991253145+991573906
2655+991930776+992425016+993100083+993726910+993956253+993791991+993634868
2645+993803774+994264953+994793987+995181491+995315950+995228552+995033725
2635+994812838+994667914+994804799+995326138+996015621+996612161+997170858
2625+997775368+998088019+997733228+997033488+996734768+996972566+997159630
2615+997006804+996966882+997423696+998147348+998868158+999704228+1000672193
2605+1001418786+1001726516+1001724922+1001465777+1000858148+1000132625
2597+999842776+1000216974+1000878178+1001373181+1001647990+1001811627
2588+1001806083+1001545551+1001099827+1000634697+1000403067+1000623608
2580+1001138363+1001537165+1001733586+1001914967+1002041386+1002043742
2571+1002195528+1002608816+1002867961+1002836356+1003179503+1004377781
2563+1005745449+1006124498+1005269783+1003957978+1002932141+1002316195
2554+1001953502+1001742527+1001605989+1001474579+1001302209+1001004667
2546+1000602884+1000441395+1000924061+1001990444+1003083927+1003613583
2537+1003411410+1002900120+1002795325+1003463669+1004657233+1005905482
2529+1006882457+1007372539+1007301497+1006885299+1006392445+1005821896
2520+1005201306+1005012163+1005776430+1007258942+1008545935+1008984658
2512+1008801268+1008761415+1009370222+1010434110+1011352589+1011743975
2503+1011641745+1011149099+1010243512+1009075175+1008173886+1008072903
2495+1008758435+1009588753+1009769648+1008992837+1007716795+1006791108
2486+1006780227+1007715409+1009278458+1010861260+1011665725+1011375045
2478+1010684661+1010566213+1011013808+1011098850+1010324880+1009346658
2469+1009108028+1009721617+1010549787+1011117009+1011519831+1011966386
2461+1012292414+1012183461+1011744529+1011439017+1011364926+1011143831
2452+1010760000+1010805328+1011494048+1012194689+1012365119+1012227749
2444+1012196699+1012288187+1012312930+1012169946+1011805660+1011205100
2435+1010560876+1010263958+1010522063+1011058096+1011444284+1011625180
2427+1011827700+1012140767+1012484815+1012781179+1013014195+1013295796
2418+1013722599+1014025478+1013768273+1013027225+1012395199+1012283681
2410+1012628076+1013176793+1013759817+1014358783+1014961560+1015332500
2401+1015191249+1014691049+1014331475+1014339654+1014496776+1014571145
2393+1014597482+1014738317+1015085346+1015514990+1015600933+1014897034
2384+1013538653+1012284721+1011688112+1011544505+1011429106+1011340806
2376+1011408937+1011431185+1011142792+1010553113+1009784065+1008868913
2367+1007736964+1006397019+1005356073+1005350043+1006224371+1006957588
2359+1007180623+1007571663+1008536855+1009587089+1010092835+1009963158
2350+1009534761+1009144346+1008941479+1008964351+1009239437+1009694656
2342+1010052428+1010013823+1009577040+1009173940+1009377500+1010301800
2333+1011429452+1012202244+1012473171+1012223106+1011394521+1010242819
2325+1009270765+1008669373+1008314721+1008344731+1009037679+1010086528
2316+1010770119+1010865626+1010806437+1010956975+1011256596+1011638141
2308+1012322980+1013450354+1014663394+1015387947+1015532040+1015663657
2299+1016385022+1017673539+1018843816+1019056940+1018034914+1016448093
2291+1015383304+1015313163+1015889326+1016699198+1017644845+1018542323
2282+1019041138+1019076624+1018917352+1018760992+1018640534+1018524164
2274+1018223295+1017516486+1016570977+1015898475+1015809829+1016240444
2265+1017055583+1018095698+1018987562+1019357047+1019207132+1018718090
2257+1017860465+1016735931+1016005765+1016127748+1016478450+1016341635
2248+1016458073+1018163551+1021090179+1023229876+1023545785+1023158350
2240+1023400583+1023871674+1023357196+1021959726+1021056356+1021396177
2231+1022394291+1023148092+1023253510+1022928591+1022892412+1023678095
2223+1024970563+1026035629+1026432283+1026018164+1025021228+1024249268
2214+1024505225+1025884121+1027843407+1029564549+1030457176+1030790412
2206+1031280216+1031933173+1032216507+1032040879+1031558075+1030627329
2197+1029218422+1027678522+1026339271+1025284393+1024344152+1023217539
2189+1021856594+1020529541+1019521932+1019339858+1020762141+1023845337
2180+1027555499+1030927089+1033553818+1034755422+1033831191+1031633690
2172+1030204823+1029963975+1028853373+1025621926+1022467827+1022501927
2163+1026255477+1032203408+1037920541+1039930215+1036936150+1032745540
2155+1031609155+1033688415+1036601874+1038309224+1038045227+1036325263
2146+1034334996+1032731193+1031370248+1029798050+1027494716+1024641763
2138+1022956315+1024321626+1028273884+1032192318+1034158397+1034403819
2129+1034068850+1033684742+1032969615+1031612482+1030092404+1029496766
2121+1030216952+1031197392+1031182075+1030413303+1030129276+1030638210
2112+1030996744+1030519346+1029575292+1028846581+1028589169+1028710875
2104+1029142806+1029930638+1030880444+1031334000+1030851265+1030030650
2095+1029872141+1030346698+1030510197+1030008471+1029514717+1029558242
2087+1029776565+1029610155+1029029209+1028268339+1027537825+1027297810
2078+1028044610+1029498152+1030766847+1031517668+1032134515+1032761966
2070+1033110935+1033096866+1033001843+1033150926+1033607740+1033899252
2061+1033309297+1031887429+1030782095+1031183808+1032973427+1034337768
2053+1033101509+1029232700+1025674323+1025624768+1029078626+1033301049
2044+1036372254+1038696867+1041184216+1043121602+1042647461+1039337140
2036+1035321743+1033163679+1033539193+1035614156+1038199369+1039629900
2027+1038501347+1036004711+1035673415+1039062747+1043108433+1043728884
2019+1040831158+1037641712+1036447524+1037160433+1038546259+1038979231
2010+1037677960+1036142635+1036436711+1037997751+1038377146+1036764680
2002+1034772749+1034325708+1035816676+1037809370+1038474386+1037598602
1993+1036764264+1037372309+1038964745+1039914066+1039207048+1037022092
1985+1034158952+1031492093+1030049086+1031154282+1035661979+1042380345
1976+1047893780+1049402214+1047136583+1043116889+1039009865+1036063623
1968+1035552333+1037599711+1040375662+1041885897+1041823866+1041083234
1959+1040327977+1039479708+1038086466+1035894926+1033534688+1032693697
1951+1034841018+1039380181+1043614109+1045112701+1043778717+1041199949
1942+1038805058+1037312634+1037239444+1038789117+1041184632+1042895794
1934+1042946251+1041720873+1040430346+1040002088+1040340522+1040565914
1925+1040131071+1039467233+1039133026+1038689312+1037293782+1035120679
1917+1033290514+1032233072+1031306484+1030306915+1030173495+1031725940
1908+1034315866+1036638816+1038285728+1039534947+1040440465+1040972478
1900+1041385558+1041871758+1042382009+1042941815+1043566979+1044006257
1891+1044060595+1043941038+1044145083+1045145900+1046980639+1048826675
1883+1049432363+1048523657+1047179901+1046512528+1046650868+1047083978
1874+1047399887+1047569554+1047760708+1047932870+1047796194+1047450413
1866+1047454849+1047968980+1048602531+1048964461+1048964253+1048698523
1857+1048402645+1048430368+1048920034+1049539930+1049810096+1049634467
1849+1049395838+1049576941+1050316118+1051211170+1051650241+1051577328
1840+1051437394+1051514188+1051574971+1050994442+1049455859+1047378817
1832+1045564593+1044780990+1045384044+1047020353+1048983798+1050587115
1823+1051379244+1051421245+1051181229+1051193843+1051659459+1052211641
1815+1052366130+1052076766+1051575179+1050963045+1050259424+1049599259
1806+1049052829+1048458299+1047639695+1046693493+1045959098+1045660447
1798+1045613733+1045366994+1044592886+1043489561+1042903972+1043494136
1789+1044932152+1046605263+1048089300+1049051096+1049506870+1049942960
1781+1050770229+1051896009+1052958095+1053740105+1054240791+1054557323
1772+1054782646+1055044355+1055636459+1056685862+1057706085+1058046321
1764+1057693471+1057195211+1056904184+1056627365+1056157799+1055582745
1755+1055085455+1054764418+1054535422+1054095658+1053330837+1052715376
1747+1052615364+1052822666+1053069613+1053372006+1053770323+1054035498
1738+1053907347+1053471880+1053131228+1053354056+1054106817+1054966383
1730+1055845078+1056665069+1057164230+1057278451+1057211083+1057042940
1721+1056611493+1055904268+1055456257+1056023409+1057265282+1058222019
1713+1058774686+1059152557+1059304482+1059071466+1058639812+1058523927
1704+1058833668+1059055941+1058752161+1057996835+1057126457+1056228009
1696+1055483079+1055145546+1054991473+1054754992+1054567165+1054609513
1687+1054801914+1055306134+1056946532+1059767533+1062342766+1064021976
1679+1064966099+1065521192+1066136306+1066958653+1067582709+1067865557
1670+1068531406+1070265508+1072253073+1073350368+1073516431+1073413231
1662+1073570908+1073741823+1073362913+1072225349+1070449107+1068403392
1653+1066971961+1066505375+1065958044+1065019882+1064351677+1064760876
1645+1065791010+1066448264+1066557633+1066313112+1065896775+1065664591
1636+1066334875+1068004175+1069439557+1069939342+1069693850+1069128846
1628+1068672241+1068431878+1068221249+1067994194+1067803526+1067423714
1619+1066483681+1064878215+1063202470+1062236446+1061615510+1060484046
1611+1058643069+1056829192+1056019112+1056175819+1056086896+1054321327
1602+1049849463+1041912027+1029922667+1014083905+996350659+980696258+971536286
1592+970970658+977690341+988262754+999077123+1007836491+1014072330+1018589453
1582+1022352221+1025681046+1028462680+1030903108+1033712119+1036856098
1574+1038912833+1039108561+1037831340+1036024394+1034395987+1032471909
1565+1029402783+1025077784+1019605102+1010977906+992981565+964490921+938436062
1555+915787654+891787726+867469742+844864582+824211640+805916994+789935455
1545+774680480+759267411+744664075+732149772+724298695+722714437+724512096
1536+728591881+736833998+749781896+764153672+777865352+792236780+808365946
1526+824475428+838213792+850135783+861421521+870524036+876091740+878876700
1516+878805105+874373509+864626700+849939640+830753061+803892696+763529062
1506+721811137+698856454+691318374+691915954+696935426+700598943+694524940
1496+677458305+658761738+645854455+640313712+642567907+652416045+666970656
1486+682869648+698769610+714770625+730987189+746554123+760551423+773217998
1476+785361777+797958488+812300391+827526119+840215773+849564541+857630337
1466+866477796+876275130+884607002+889290050+890109209+886277549+873221391
1456+846802244+812885356+778843227+749614724+731177857+727956113+738668460
1446+756476906+774465346+789820334+802445739+812928813+822726424+834308387
1436+848387056+861344173+870661475+878005075+885371893+892762761+898969560
1426+903692945+907737036+911652421+915237412+918570535+922604715+927756428
1417+932856922+937044066+940478172+943538496+946525908+949410257+951872794
1407+953962034+956189961+958735877+961303555+963854252+966557844+969224634
1397+971559366+973817303+976405705+979047404+981091456+982262772+982656376
1387+982245583+980558888+976939104+970776732+961518342+948976454+933567405
1377+915858626+896440348+877255501+861779847+851905026+846795175+844988367
1367+845432636+847402804+850655182+855165097+860375099+865424097+869983428
1357+874215485+878441650+882929455+887667742+892425297+896989688+901209754
1347+904987562+908329002+911304630+914023194+916717776+919696038+923008923
1337+926303026+929257585+931914047+934441942+936842656+939036344+941095920
1327+943133734+945059267+946708536+948097135+949350652+950525919+951610669
1317+952553752+953187441+953211144+952294468+950057808+945757898+937969199
1307+924672193+903835582+874656704+839458991+804655368+778420445+766103047
1298+767717108+779339478+796150641+814455406+831889238+846689687+857274853
1288+862449923+861510444+853671703+837780613+814029504+786907984+765229827
1278+757050573+763835753+779647139+795225231+802940395+800147048+789594041
1268+776294263+763933478+754458429+749525454+750471171+756997206+766974465
1258+777848995+787941584+796502244+803146103+807509984+809092440+807097113
1248+800607950+789313341+774326936+758357180+744870754+736681450+734855929
1238+738391918+744571895+749865275+751141594+746760593+737269187+725355929
1228+714574134+707355429+703927423+702912536+702791731+703075827+704512318
1218+708197252+714274374+721307263+726809609+728745053+727263165+725103437
1208+725687848+730483453+738196815+746200579+752412368+756107629+757711501
1198+758137056+757903555+756510174+752900994+746957499+740474297+736218468
1188+735819666+738795503+743698744+749729291+756844657+764795470+772802007
1179+780153438+786667968+792548115+798109304+803681512+809457627+815266248
1169+820690066+825580832+830275247+835113408+839955657+844375332+848092287
1159+850895684+852331967+852095555+850882723+850118803+850388483+850939764
1149+851357626+852743314+856304254+861574555+866965521+871527625+875409604
1139+878967148+882154654+884802314+887040221+889208682+891467451+893673061
1129+895617862+897266854+898750059+900244146+901941792+904015993+906417954
1119+908730160+910369934+910806093+909190508+903583368+890943893+869048801
1109+839492675+808410373+782966608+766865165+759648747+759471525+765004089
1099+774900327+787160406+799732166+811226939+821001678+829042454+835755206
1089+841501518+846323668+850226647+853503422+856592717+859768371+863086177
1079+866511134+870019192+873600370+877145509+880372589+883015051+885151283
1069+887228256+889628900+892287026+894891507+897359450+899807293+902166907
1060+904244573+906076401+907856524+909638034+911414485+913329414+915566004
1050+918140821+920878236+923492005+925750081+927694397+929612584+931666546
1040+933559643+934269017+931421470+921335258+901875048+876660071+854757562
1030+844018809+845126222+853094709+863072384+873128864+882860008+891669278
1020+898776466+903958605+907752076+910929255+913897537+916662260+919240888
1010+921864568+924704352+927575255+930106477+932153370+933914295+935700033
1000+937682469+939762837+941612339+942919570+943632202+943982626+944349269
990+945026900+946007895+946942522+947223361+946189830+943703936+940682009
980+938637403+938533787+940264078+943024157+945862347+948046263+949167330
970+949076259+948078352+947207420+947679412+949796584+952722726+955403308
960+957396071+958784393+959652553+959979898+959965759+960033958+960231350
950+959465766+955192194+944471737+926689075+905400433+886438622+874198227
941+870367884+874830183+885731466+899355817+911878506+921409141+927968513
931+932221847+934677176+935565158+935201773+934490181+934673294+936331573
921+938896826+941338293+943141150+944498560+945769681+947050713+948261119
911+949339008+950258456+951029793+951706453+952324548+952941811+953706008
901+954678894+955657324+956444532+957227928+958385313+959896381+961237919
891+962053960+962695411+963732754+965069025+965938641+965564998+963190136
881+957609888+947788018+934799575+922812295+916906642+919173312+927295872
871+937052314+945407612+951076091+953288909+950986336+943305966+931106809
861+918028125+908852906+905961626+908126274+913125230+920225834+929405559
851+939532386+948715299+956063265+962103099+967524007+972263264+975974189
841+978746258+981011820+983186449+985647599+988565355+991542717+993875577
832+995251840+995617304+993851874+986561157+969167177+940300188+906098441
822+878477482+867188556+873397643+890919705+912114364+931849313+947888169
812+960071039+969554890+977793403+985481258+992320499+997679999+1001297912
802+1003460342+1004721413+1005294665+1004677333+1002443584+999592918+998348412
792+1000219053+1004751285+1010453378+1016428270+1022625782+1028748301
783+1033454082+1034489970+1028790164+1012894984+985753711+952533098+923645315
773+907484198+903561952+902025933+889171047+856564509+809473291+765180064
764+737723159+723820742+707773776+680474202+649461139+629813588+629662079
754+645721382+668340057+686983117+692361816+679073613+650718260+621228809
744+606649524+613720671+637183525+666933230+695788298+721412335+743949988
734+763686393+780478981+794052529+803786653+807981699+804264259+792277465
724+776536704+765430199+765804674+777931472+796239148+814663955+830104748
714+841896647+850445524+856538310+860647967+862143371+859133919+850045405
704+836739319+825416155+822211114+827820403+837827119+847614611+855289991
694+860688582+864009645+865819502+866937105+867714124+867907010+867367373
684+866388596+865272796+863998625+862524291+861142970+860195520+859462858
674+858167549+855711457+852087099+847585155+843004615+839822169+838050639
664+836360825+834440836+832947512+832052737+830238929+824835626+813973156
654+798220890+780456248+764213208+752104776+745245229+743081966+743645931
645+744841852+745726300+746424862+747200634+748121122+749723816+753420740
635+760422371+770176110+780247005+787302697+787859314+779440322+762871739
625+743420609+727980371+720568849+721125813+727764405+738196676+748658819
615+754027953+751595358+744296739+738638034+739148838+745610901+755380997
605+766404263+777528858+787923494+797314264+805883587+813572205+820128805
595+825611675+830286613+834525878+839104824+844783768+851289495+857363845
585+862068933+865764818+869474772+873556983+877531073+880911048+883484271
575+885042607+885515985+885004487+883034874+878083948+868482826+854154854
565+837673878+823737984+816965765+818996371+827373501+837482031+845601541
555+850147912+850204399+843957055+830502163+813651702+801551449+800309022
545+808959644+821707379+833775681+843863003+852341670+859509572+865579833
535+870728704+874802460+877702612+880090711+883254166+888029325+893747360
526+898484330+900943054+901387808+900215106+897472770+894477249+894044001
516+897515880+902939075+907304412+909255728+909041564+906955650+902825201
506+895613149+881836180+857613426+827184219+804943623+801894666+815750715
496+835587479+851629870+860947519+865610883+868069054+868900688+867102614
486+861745678+853887184+846302113+840413025+834342557+824641631+809995532
476+793438731+780378137+774117763+771742139+764115067+742369612+705308536
466+662302094+627020310+606676762+599187683+598588371+601026997+605983952
456+613609430+623662929+636459319+651139448+663820647+670469219+670340721
446+665099600+656588288+646731002+638469755+634417070+634919003+638965312
436+645492456+653566291+662553407+671653843+679356669+684974830+690129246
426+696797502+704591469+711328618+715874018+719263420+724448401+734219121
416+746432486+756444677+761639361+761894071+758270337+749609803+732362550
407+706845803+681139149+665162393+662101307+667988523+678232621+692185426
397+709528949+725715780+737598681+746855269+755698985+762906878+765680265
387+764877878+766202575+774198369+786070319+795641984+799498318+796930502
377+788521351+777732695+771556045
##END=
