##TITLE=X9487
##JCAMP-DX=5.0
##DATA TYPE=LINK
##BLOCKS=1


$$ === CHEMSPECTRA SPECTRUM ORIG ===
##TITLE=X9487
##JCAMP-DX=5.00
##DATA TYPE=INFRARED SPECTRUM
##DATA CLASS=XYDATA
##ORIGIN=ComPlat
##OWNER=
##XUNITS=1/CM
##YUNITS=TRANSMITTANCE
##XFACTOR=1
##YFACTOR=9.7555331e-010
##FIRSTX=3997.453
##LASTX=373.96442
##MAXX=3997.453
##MAXY=1.047492388537531
##MINX=373.96442
##MINY=0.6938383009305006
##NPOINTS=2559
##XYDATA= (X++(Y..Y))
2559I93795008I93233881I92503695I92185373I92457994I93015027I93523487I93865760
2551I94025837I94028648I93965717I93901258I93777167I93468743I92922097I92250260
2543I91700742I91464475I91525817I91751942I92100202I92644588I93298462I93626560
2535I93262231I92490437I91926866I91676302I91463558I91345516I91456165I91301709
2527I90163814I88238485I86871593I87140243I88300377I88699227I88095881I87926150
2519I89080297I90705267I91727319I91854160I90950455I88809693I86079087I84523158
2511I85105547I86607893I87283518I86953526I86878864I87554917I87840429I86822348
2503I85385439I85459856I87643143I90518367I92565221I93411005I93156775I91326881
2495I87107005I80716429I74431064I71145564I71429121I74006797I77924726I82193480
2487I85167134I85561768I83853460I82606993I83538681I84921702I84369863I81857928
2479I79397378I77868760I76977641I77955825I81493966I84869891I85080986I81915300
2471I77472293I73778901I72337347I73913134I76466004I77125438I75968786I76036483
2463I78922155I82528910I84306565I83214005I78695542I70576067I63694016I65581464
2455I73435650I81115279I86022083I87465652I85442565I80676287I74723725I69405301
2447I66527266I67420157I71224442I75504561I78817738I81066094I82509114I83089487
2439I82669497I81506063I79611833I76057256I70881436I67691616I69132375I72524980
2431I75696776I79577679I84476235I88512022I89845003I87827599I83686661I80431894
2423I79120603I77404412I74318949I72974297I75413891I79455299I83410375I87218082
2415I90475538I92455428I93150115I93030729I92268223I90941534I89705760I89091295
2407I88380599I86827908I85725451I87252847I90889479I93836738I94090724I91375943
2399I86936602I83223292I82048861I83045374I84994348I86733267I86896277I84691912
2391I81321730I79527762I80005123I80211390I77257227I70302224I62729946I60383710
2383I62805586I65200456I65873331I66816628I69865066I73349502I74785434I72559867
2375I66592580I60504807I60282898I66767444I74952660I80548897I82187065I80489388
2367I77695240I76599076I78226979I81563740I85198172I88088305I89391654I88340335
2359I84369618I77960040I72494370I72648277I78140647I84833660I89531386I90852881
2351I89347419I87726359I88363797I90433319I91931266I92090732I90751274I87274964
2343I81317697I75019074I73141340I77260648I83636805I88895413I91683695I91509076
2335I88503529I82989224I74995062I66852248I64499536I67994297I71180390I72205986
2327I75151413I82116680I89576537I94368110I96107395I95966014I94951415I93115900
2319I90551238I88447930I87415490I85432118I79727492I70059114I62288816I64176387
2311I73223517I82316410I88265001I91165398I92445347I93188546I93231682I91927966
2303I89402346I86488507I83219504I78552816I73664952I73842809I79882315I86301974
2295I89451591I88454589I83978711I78750958I76417980I77114379I78195941I78701590
2287I79531061I80714474I81328634I81994300I84374873I87882709I90074000I89805106
2279I88327566I87450255I87223642I86732656I86283583I87067230I88796984I89334710
2271I86902876I82553716I80661318I83530189I88216000I91521663I92745645I92666828
2263I92241095I92161973I92816519I93964495I94507414I92890937I87954377I80407455
2255I74531876I74922355I80167644I85870926I89967261I92719067I94749363I95841801
2247I95378370I93492633I91450727I90464906I90144751I89199988I87587177I87003016
2239I88727760I91854587I94548839I95779236I95681051I95192326I95230879I95765123
2231I95919701I95029805I93349601I91818356I91125440I91101917I91354620I92058778
2223I93527947I95429815I97059368I98027959I98307056I97895254I96804221I95360713
2215I94335300I94427925I95366212I95946768I95323321I94096406I93807778I95060904
2207I96836298I97859511I97980425I98032603I98544606I99074878I98940829I98184004
2199I97550354I97514794I97638030I97272295I96686729I96850595I97988123I99161943
2191I99480021I98986103I98274796I97761387I97565689I97731877I98247669I98926959
2183I99437558I99535865I99297521I99097057I99329169A000117643A001163951
2176A001884178A001876541A001169389I99894451I98162375I96538810I95957399
2169I96652881I97898981I99046834I99980477A000645777A000931289A000941248
2162A000886015A000845201A000884488A001148127A001707665A002482147A003234267
2155A003541530A003022439A001818009A000693433A000409326A001031062A002005336
2148A002769676A003137976A003260478A003350965A003474994A003660305A004053962
2141A004656696A005026708A004726960A003962742A003358908A003259073A003516358
2134A003745843A003670142A003386952A003245448A003380048A003586682A003655967
2127A003589370A003499800A003439496A003322737A003048406A002679433A002379257
2120A002263782A002409012A002740959A002837678A002235677A001043893I99907220
2113I99318233I99206606I99176546I98914312I98376097I97785949I97499214I97670473
2105I97960934I97800307I97054969I96179247I95660339I95597041I95812963I96071958
2097I96130735I95781008I94967301I93856901I92759514I91903771I91305680I90861923
2089I90465090I89970743I89191068I88029773I86577100I85037300I83579006I82247552
2081I81009762I79864963I78872360I78025171I77141751I75987115I74524666I72953829
2073I71478489I70137748I68880161I67747643I66928254I66499466I66113203I65210109
2065I63651430I61833939I60116161I58527972I57119412I56128153I55585233I55052762
2057I53986719I52230509I50012519I47579890I44986634I42206478I39299177I36381122
2049I33410951I30133577I26433403I22614699I19054012I15736680I12422586I09033036
2041I05623446I02234446H98953834H95888166H93050700H90514265H88544639H87331105
2033H86719816H86366851H86000995H85513308H84995745H84718114H84948638H85809879
2025H87299700H89291993H91469537H93447411H95088633H96619940H98355437I00353718
2017I02403443I04320402I06146325I07966321I09631311I10853338I11584012I12098154
2009I12677916I13417511I14359952I15553141I16896265I18159716I19245922I20258810
2001I21251474I22071596I22581156I22933265I23469892I24374207I25560614I26821011
1993I27931289I28758255I29458197I30397155I31657308I32853734I33641902I34143886
1985I34672997I35307809I35953557I36628387I37517062I38803364I40461450I42170125
1977I43550396I44538112I45360067I46110904I46632439I46855326I46925833I46901577
1969I46665004I46242998I45900787I45787022I45750913I45664398I45724213I46205484
1961I47003306I47686507I48036600I48269812I48652104I49166063I49643913I49993090
1953I50235161I50472833I50781135I51050640I51025162I50521773I49593385I48570721
1945I47909271I47749988I47697260I47323827I46747731I46406009I46459836I46743210
1937I47156479I47800455I48706787I49694136I50659428I51746427I52928068I53752101
1929I53973888I54106471I54788695I55889442I56753494I57120572I57298368I57553576
1921I57811900I58017495I58377914I59012603I59632873I59836880I59577763I59178974
1913I59034843I59350599I60021092I60777305I61510913I62339222I63332742I64327605
1905I65026509I65235709I65061029I64894231I65111435I65739098I66462013I66969740
1897I67255497I67572475I68142644I68922991I69617801I69933802I69893110I69849242
1889I70087036I70483992I70719770I70723497I70788078I71274665I72199143I73066861
1881I73231093I72485633I71221815I70059664I69446543I69498232I70043106I70825592
1873I71705469I72667278I73683465I74596029I75157706I75213672I74817816I74125939
1865I73249117I72272217I71296294I70314016I69060096I67188166I64759692I62469301
1857I61182326I61278250I62541397I64426523I66243587I67422906I67880043I67946518
1849I67845890I67411481I66212732I63730369I59585705I53877780I47295539I40877346
1841I35644949I32205115I30518985I30178423I30929077I32781944I35766962I39787719
1833I44508845I49197712I52947681I55278031I56346457I56555047I56200371I55473240
1825I54492674I53297713I51957339I50653501I49545972I48600598I47619787I46439063
1817I45119279I43973380I43339668I43329282I43867863I44887960I46299270I47855566
1809I49264676I50355525I51040375I51327721I51467636I51802332I52380628I52935584
1801I53254456I53349647I53310544I53221646I53208021I53406102I53876803I54583954
1793I55404871I56140006I56642051I57032896I57660742I58675402I59769550I60490816
1785I60615395I60082373I58917534I57480380I56443970I56199149I56462055I56656592
1777I56496698I56045365I55419290I54625746I53614813I52399263I51204608I50480104
1769I50563870I51347639I52504657I54004132I56049153I58501211I60774984I62420300
1761I63492269I64243595I64771484I65111008I65416866I65855307I66387046I66778991
1753I66845955I66633333I66346782I66173690I66263566I66754918I67635406I68655870
1745I69538373I70171168I70532993I70648835I70694353I70909786I71336985I71805304
1737I72156741I72355494I72436205I72454473I72451418I72418303I72320912I72168777
1729I72029595I71959821I71956339I72003079I72127414I72374740I72759415I73251806
1721I73796069I74384263I75095752I75926445I76633108I76971103I77043016I77168756
1713I77479197I77844137I78107654I78219219I78223618I78245797I78451026I78933764
1705I79604012I80182857I80406477I80307315I80224588I80461893I80973897I81480952
1697I81846870I82176373I82538686I82837701I83039875I83291783I83693199I84135612
1689I84454545I84611445I84680853I84755698I84887915I85069072I85228171I85266419
1681I85150760I84960011I84786859I84656841I84586334I84594154I84627759I84637656
1673I84710119I84944126I85288720I85684759I86186071I86763633I87215332I87421906
1665I87461131I87383292I87149041I86843610I86665326I86660621I86706872I86760028
1657I86901837I87152585I87412252I87564082I87536404I87331175I87081038I86982242
1649I87097596I87302275I87462475I87558399I87580028I87472251I87283885I87202257
1641I87302520I87425511I87435164I87415368I87487770I87597625I87619925I87568542
1633I87582411I87735951I87955355I88128080I88221621I88262496I88279665I88313941
1625I88405588I88556746I88746089I88952052I89131070I89244896I89316136I89406806
1617I89551365I89741197I89942394I90153244I90440284I90807790I91057804I90989863
1609I90729218I90604211I90688710I90719259I90492828I90141758I89919543I89875674
1601I89899014I89986996I90258639I90721519I91226680I91634939I91868090I91876216
1593I91738256I91689011I91871267I92172482I92433127I92657297I92879817I93007756
1585I92973175I92899735I92942687I93067266I93128120I93087734I93051931I93128242
1577I93286059I93382350I93377462I93446809I93734154I94099216I94296197I94270719
1569I94126711I93973598I93929730I94075266I94331879I94555987I94729873I94918239
1561I95136299I95363523I95591848I95817178I96044097I96247860I96345495I96311830
1553I96233319I96125786I95898134I95624902I95581156I95862574I96237596
1546I96457611I96488038I96438365I96435737I96512538I96548464I96492253
1539I96588239I97087351I97738170I97919021I97368464I96521825I96047519
1532I96216822I96764385I97236981I97400357I97330033I97209181I97158408
1525I97227083I97393820I97583225I97764442I97910284I97832139I97373841
1518I96850656I96847479I97426446I97979630I98038529I97791814I97656604
1511I97747518I97926902I98046594I98026065I97914683I97920976I98201784
1504I98602589I98748186I98443977I97927575I97625749I97686542I97904724
1497I98117957I98421371I98923171I99541303A000088377A000366924A000273077
1490I99974673I99820216I99981088A000350916A000721966A000851434A000575819
1483A000082267I99806286I99921151A000197498A000422096A000639300A000856321
1476A000809887A000310958I99671076I99414524I99628123I99968746A000179658
1469A000188761I99941313I99550651I99301064I99207034I98990318I98648473
1462I98563669I98964718I99676880A000391913A000897929A001116783A001108535
1455A001036256A001053669A001193706A001315353A001203665A000788869A000235746
1448I99812213I99744577A000141777A000874406A001503536A001558891A001022998
1441A000392952A000128580A000184973A000223099A000108967I99976628I99935753
1434I99998013A000203853A000532195A000755081A000681764A000477879A000462787
1427A000671805A000856199A000840253A000682924A000523458A000384643A000154363
1420I99754597I99294710I99011581I99085448I99522851A000173976A000922919
1413A001902507A003352370A005218251A007147796A008885982A010327840A011278347
1406A011595508A011495429A011361868A011317572A011163421A010595329A009333221
1399A007250686A004743334A002782017A002142379A002820693A004280636A005876096
1392A007122746A007894356A008363591A008735558A009053635A009209131A009130192
1385A008863131A008432510A007830081A007153784A006497833A005789825A005026097
1378A004458494A004314485A004481711A004613622A004442791A003983332A003542080
1371A003397094A003397094A003107671A002411456A001712858A001494921A001826318
1364A002334228A002631288A002708272A002808045A003018468A003218137A003379253
1357A003638982A004016142A004318029A004449512A004585884A004884654A005262058
1350A005594372A005878785A006132465A006445044A007017229A007750775A008053273
1343A007574873A006860390A006764710A007368789A007897167A007710939A007071851
1336A006723285A006932364A007272742A007240238A006803202A006410584A006549216
1329A007238894A008034516A008561794A008787797A008731647A008248421A007280318
1322A006214031A005685286A005840232A006203155A006644285A007769716A009704393
1315A011337856A011536181A010428591A008945919A007791283A007336651A007949345
1308A009736470A011942118A013212474A012908510A011719293A010664859A010183221
1301A010345864A011018190A011709212A012089976A012454244A013013660A013366136
1294A013302533A013392164A014108542A014996972A015297454A015046401A015002349
1287A015545513A016188511A016305820A015882042A015237272A014399064A013249011
1280A012175086A012075557A013430412A015575817A017253943A017869570A017974109
1273A018558453A020019802A021781388A022789877A022293270A020390424A018211048
1266A017389581A018683338A021027741A022541756A022606643A022374408A022779184
1259A023123779A022540962A021425002A020648259A020308491A019882025A019047911
1252A017966899A017235736A017582530A018983147A020218310A020004222A018517700
1245A017221072A017133641A017773401A018030625A017521859A016589560A015543252
1238A014634476A014382507A015069129A016083605A016525041A016338202A016181668
1231A016270505A016066987A015238127A014281817A013814537A013731810A013581447
1224A013368275A013393264A013575337A013526886A013161029A012727720A012422107
1217A012418685A013018487A014212837A015370649A015926277A016084277A016341196
1210A016617177A016421845A015700641A015035036A015021900A015714633A016689456
1203A017479457A017878429A017983396A018033802A018022010A017467176A015928599
1196A013831705A012526707A013203859A015593597A018010157A018971844A018504075
1189A017551858A016792162A016557850A016927373A017290663A016894441A016210690
1182A016502556A017769491A018706616A018755923A018820198A019926933A022042583
1175A024202225A025263258A024599608A022541695A020238962A018950582A019452077
1168A021780777A024880599A026717642A025810332A022870710A020206763A019354625
1161A019659505A019401793A018315037A018120684A020150369A023524339A026510641
1154A028679629A030366921A031049022A030019393A027852359A025855911A024692966
1147A024380326A024984649A026366449A027617131A027629228A026377691A025184197
1140A025621415A028114470A031283273A032992925A032319011A030035768A027410374
1133A025367124A024626675A025514616A027187487A027795415A026295330A023860624
1126A022635726A023217259A024509427A025743856A026976332A028048485A028460898
1119A028092842A027373958A026927820A027129566A027690449A027840383A027115758
1112A025660641A023692115A021428362A019862535A020436553A023006653A025601620
1105A026762732A026628316A026005845A025462194A025262402A025435921A025701821
1098A025477468A024151452A021904623A020235540A020460321A021645078A021858005
1091A021064888A021020287A022384795A023869850A024132145A023176323A022262354
1084A022604199A024159028A025957090A027175634A027517174A027077387A026205393
1077A025296373A024734269A024880110A025505207A025581824A024608101A023740016
1070A024451628A026379157A028030887A028633195A028285667A027435669A026716297
1063A026619518A026993439A027211681A026704933A025019048A021872424A018107486
1056A016380482A018595478A023034697A026766764A028588594A028931599A028637839
1049A028307786A028339313A028882476A029687508A030184725A029722088A027936430
1042A025014893A021490071A018226934A016949857A018903047A022474426A025114422
1035A026023686A026070855A026351906A026668519A025613840A022435629A018767165
1028A017310276A018076693A019196197A020338307A022324185A024808748A026546566
1021A027099995A027112092A027115513A026680372A025161590A022971277A021607869
1014A021995721A023384913A024320450A023768427A021523248A018530470A016516792
1007A016236534A016642288A016267572A014362283A011486264A010178211A012489620
1000A016527790A019267499A019782007A018863517A017424346A015872755A014740909
993A014363566A013814781A011459808A006384862I99451427I94009891I93120849
986I95582561I98448132I99940397I99119052I95705124I91040452I87623225
979I85876852I84193411I82086803I79897956I76589667I70511303I62288266
972I55863475I54020078I55089665I56380428I56780377I56394236I55800788
965I55733580I56137806I55750565I53966678I53290198I56830294I62779374
958I68554691I73459723I76821107I78098917I77889350I77025725I74859057
951I69732055I61935668I57012795I60397702I68943704I77260404I82872588
944I85129437I83891524I79375566I73045966I66142469I55313285I33408018
937I01268848H75507179H65834769H67716719H74551907H81025394H84608565
930H85487952H84903914H82792601H77732929H71709737H71317364H75928757
923H79839354H80204355H75498870H64864100H50508506H35742392H19771908
916H01119820G84385791G74742036G69658902G65191945G61256787G59974884
909G60930583G61137645G58506142G51727469G38608626G21754539G13695796
902G13630176G13157703G11225408G12960722G20386059G29071365G35869773
895G39826621G40569576G38835362G38663492G45291497G56136078G65600204
888G72430077G78051425G83833341G88530150G88827149G83576972G76503806
881G71425193G67861329G64750326G64313962G68560416G74810161G80031316
874G83537747G86274462G89515788G93547053G97813058H01998536H06278411
867H10694046H14800218H18113884H20730785H23266425H26148249H29272877
860H32467951H35799580H39304545H42804499H46102891H49161960H51905641
853H53822416H54041026H52347870H51012200H53629040H58721461H61930160
846H62140399H62028406H64705184H69284684H73414685H76011179H75937433
839H71096493H61602796H57934820H66027840H76225267H84060818H89396166
832H92890989H95691918H97931476H97970457H94387775H87823679H80470621
825H75831794H80179427H92320453I02619670I07559223I09261483I11780993
818I16098016I19142849I19081568I17062941I15076880I13175562I10980300
811I10586644I13385496I17245747I21484258I27532867I34403493I38792367
804I38510215I33337205I25448438I23560439I36446498I53285188I64120299
797I69117040I70287316I69911073I70996545I74772176I77912200I75467963
790I63728048I42612782I20597538I08915850I08755467I15031728I23233624
783I29805174I31120559I23566977I05074661H77389129H47068183H24122107
776H16412846H20550728H26959084H30392503H30491665H29654680H29620892
769H28793194H24743660H17373922H12208550H17147003H26989817H32238405
762H30771740H24514908H17373250H13623648H14716757H18419864H21948046
755H23774885H22747395H16941041H04473384G88396406G77473313G74647212
748G76493541G81301488G89339397G99339905H09028995H17853910H26424841
741H34399879H40972162H47373308H56529315H68323730H79742819H89091530
734H96529209I02980945I08827807I13455025I16537740I19079124I22080944
727I24621106I24913400I22556839I18866379I15120809I11572648I08329367
720I05023155I00190280H92627472H83238435H75430318H71883439H71525037
713H71736559H71060323H69437430H67503058H66345184H67614807H72086102
706H76835212H76049549H65294660H44350286H17607990G90571811G67005159
699G50808367G45414243G49366753G57936033G67791555G77831533G87975194
692G98120383H08024600H17646237H27017433H36005787H44333118H51348058
685H56024032H57954005H58337397H59120799H60685221H61731102H61528806
678H60872976H61147247H63164163H66897574H71858267H77397927H82828527
671H87554358H91284226H94275843H97241371I00638558I04204010I07543399
664I10734868I13950227I16943494I19346612I21138992I22567164I23850839
657I25139952I26610405I28430951I30619003I32981858I35245305I37224462
650I38821511I39939670I40559207I40834883I40880401I40341514I38209122
643I32911411I22507227I05429520H82143554H56528582H34944998H22936494
636H22284515H30848968H44700013H60315271H75445287H88913490I00232743
629I09340849I16369414I21368782I24011467I23645855I20047593I14231646
622I08211753I03685897I00970994H99313703H98097480H97219314H95952808
615H92288498H84907946H75876885H69909720H70260730H75989856H83483317
608H89808580H94240406H97477149I00334594I03141205I05806619I07997726
601I08895687I06701098H98916930H84014567H63319474H41102973H22526769
594H11247474H08317811H12444512H21027173H31442110H41981200H52023866
587H61563754H70632452H79090655H86820690H93909681I00519477I06675070
580I12329839I17539996I22388818I26793822I30563220I33661026I36306277
573I38779414I41196707I43514287I45681933I47698176I49557153I51282447
566I52993383I54797249I56632947I58347060I59894068I61347964I62765688
559I64127447I65419676I66726630I68175576I69770058I71363441I72855950
552I74307401I75793373I77266636I78632855I79867285I80990210I81994972
545I82895439I83822055I84947975I86291160I87693182I88983028I90061474
538I90849154I91183728I90595962I88213740I83333086I76442847I69560613
531I65225750I64900402I68119976I73005274I77519644I80420408I81405434
524I80615556I77945499I72755321I64231070I51862331I35552752I15726721
517H93765855H72229072H54308453H42765824H38962089H42445119H51151260
510H61777598H70117332H72372531H68074022H61940547H60952343H68406091
503H81588170H95395713I06725170I14823505I18962243I17265604I08248595
496H93714288H79693329H73127950H76858918H88143590I01790261I13977049
489I23542660I31075285I37477348I43112994I47868580I51678058I54765233
482I57420137I59759225I61806690I63678130I65544561I67468913I69376830
475I71131512I72597993I73766314I74878487I76266945I77962484I79588127
468I80776000I81584758I82357529I83262578I84161640I84883272I85472931
461I86158271I87133950I88400701I89819097I91248126I92562594I93643057
454I94482303I95174791I95618914I95202285I92628336I85619384I70849176
447I45650223I11860054H78117176H56105599H52623301H65360341H86319684
440I08063528I26715005I41336378I52410016I60809138I67287512I72350178
433I76344785I79598147I82415695I84904045I86832368I87601901I85915100
426I79256852I64591122I41381285I14890408H95172827H90447729I00748718
419I18813163I36786937I51091454I61885995I70326297I77134236I82522739
412I86337533I88064599I86540257I79512243I64477846I41744209I17016506
405H99192789H94109228I00635075I13012002I25980176I37284155I46725919
398I54535259I60873169I66021861I70349331I74050238I77128981I79631629
391I81765426I83743788I85575638I87088309I88204942I89148177I90273302
384I91726770I93340314I94845960I96105868I97115456I97900752I98549311
377I99242593A000081595A000946380A001666607A002237571A002786539A003460942
370A004355299A005404845A006392988A007170586A007784318A008338602A008852989
363A009230759A009219639A008327665A005664879I99859564I89821419I76562356
356I64081318I57176600I57783428I63896312I71981572I79618431I85956891
349I90952471I94848282I97888594A000151980A001789109A003256873A004917159
342A006548055A007666948A008227953A008639511A009234853A010072083A011118269
335A012291540A013371635A014120089A014543256A014952981A015688605A016736074
328A017704177A018290170A018661220A019188437A019920639A020575063A020963282
321A021210302A021663224A022712404A024391018A026021243A026538623A024405499
314A016020002I96266923I65035490I33063057I15974536I20277444I38344883
307I57753612I71663678I79576151I82808984I82151750I78116085I71587244
300I64266140I58391784I55567820I55900378I58332518I61559852I64617456
293I67022101I68740307I69979748I70788994I70930376I70307479I69261415
286I68172277I67065603I65897220I64865331I64040321I62923383I60831622
279I57713715I54119913I50268093I45722685I40259215I34328586I28245945
272I21592097I13861574I05173762H95968326H86383165H76302007H65874239
265H55633492H46032017H37174658H29180863H22507157H17650698H14717674
258H13537560H14136079H16811757H21705608H28566214H36999795H46698783
251H57359763H68497066H79197638H87942271H92936018H92944205H87913738
244H78856771H67324101H55107924H44102411H35796464H30683881H28431797
237H28580999H30813348H34727366H39799502H45615327H51909979H58455011
230H65123829H71968610H79048131H86229930H93267721I00083602I06903272
223I13974300I21219947I28399485I35399334I42036136I47716262I51275604
216I50740688I43069981I24824624H95517299H61351009H32134721H15465395
209H15907074H30019131H45912997H58917098H70773772H82339679H93014835
202I02346683I10348971I17156666I23000657I28132730I32758055I36984835
195I40760282I44129792I47431299I50929115I54512286I57923526I61018949
188I63785724I66350936I68935333I71620237I74194797I76416209I78411129
181I80594477I83209178I86182893I89284976I92160873I94496783I96385515
174I98129138I99573196A000220532A000182346A000403278A001652066A003628229
167A005307210A006013690A005841759A005115850A003832419A001572760I97624588
160I91183972I81578037I68353861I51356498I30978261I08640419H87128686
153H69658545H58157218H52851259H53030582H57742544H66203681H77678613
146H90984538I04691147I17727568I29297142I38771715I46296093I52908945
139I59546358I66248047I72594388I78416078I83726620I88480251I92695911
132I96542537A000152530A003416890A005992244A007616359A008494097A009162879
125A009923858A010686182A011321604A011851876A012426506A013453201A015427226
118A018129421A020330059A020963710A020357798A019620158A018989013A017527175
111A014533175A010627527A007082971A004022618I99376704I90208416I74926632
104I54287506I31248010I09962036H94319161H86895474H88529487H98055994
97I12856262I30394711I48538095I64916226I78088652I88912704I98968323
90A007852932A013238502A012938265A006255761I94680139I82238937I74332329
83I74188259I80389248I89115978I97696562A005633047A013525053A021459156
76A028432549A033245139A035444556A035218125A033286564A031598539A032541531
69A036211095A040676525A044481238A046964639A048140536A048991148A049994014
62A049894424A048216421A047586130A049661396A051735804A051823420A051460007
55A051447544A049023529A041438787A028950418A012169037I89940378I63677886
48I40229826I26257990I23680620I30597008I42894079I56669056I70622441
41I85416660A001389709A017187163A029951086A036930587A038186769A036679840
34A034677161A033461794A036102950A043476538A051762933A057640956A061038142
27A064316067A068615554A072053798A072191025A068190554A060130711A048041558
20A031734667A010567101I85628671I64188240I54313595I56597815I67214255
13I81282444I93687780A001043771A004288824A008295222A016650353A027440923
6A037941032A048224486A058044449A064749009A067443566A073741822
##END=


$$ === CHEMSPECTRA PEAK TABLE EDIT ===
##TITLE=X9487
##JCAMP-DX=5.00
##DATA TYPE=INFRAREDPEAKTABLE
##DATA CLASS=PEAKTABLE
##$CSTHRESHOLD=0.93
##MAXX=3997.453
##MAXY=1.047492388537531
##MINX=373.96442
##MINY=0.6938383009305006
##$CSSOLVENTNAME=- - -
##$CSSOLVENTVALUE=0
##$CSSOLVENTX=0
##NPOINTS=41
##PEAKTABLE= (XY..XY)
393.7958664894745, 0.9332121647620177
437.708355144644, 0.9010996862238523
490.1200351524917, 0.9503725806305874
514.2010773182169, 0.865213815284719
586.4442038154807, 0.8320018686551174
670.0195854495696, 0.7955299652827075
709.6824784284595, 0.8081793816725982
738.0131162705234, 0.7936492594673237
794.6743919546784, 0.9322073497304842
811.6727746598904, 0.8935819904705142
874.0001779124573, 0.9343687934485467
944.8267725175915, 0.8722512168769447
968.9078146833463, 0.8686792294079331
1000.0715163096165, 0.8317794834736764
1072.3146428068803, 0.8517828616760146
1087.8964936200155, 0.8399049079659054
1099.228748756841, 0.8184522428884646
1123.3097909226194, 0.9413117809914306
1212.5513001250974, 0.7885571160530045
1239.4654060750586, 0.8486433067471733
1273.4621714855352, 0.8021823803699947
1332.9565109538698, 0.8398274812263506
1361.2871487959342, 0.7271913320797944
1376.8689996090693, 0.8451659118537591
1433.5302752931975, 0.7557096517488717
1447.6955942142295, 0.7937332429006749
1457.6113174589523, 0.7923527393628006
1471.7766363799842, 0.7964542542418204
1485.9419553010162, 0.8865394038124458
1507.1899336825645, 0.9009824432515031
1521.3552526035965, 0.8883258145959917
1541.1866990930412, 0.8544206056399382
1558.1850817982795, 0.8369611534152542
1616.262889374511, 0.7456290155083143
1636.094335863956, 0.7206056145967585
1647.4265910007816, 0.6938383009305006
1661.5919099218136, 0.7413960136030661
1697.0052072243939, 0.8446679748110355
1739.5011639875088, 0.9323690574471498
2976.1335057935885, 0.9074386394482302
3245.2745652931976, 0.8630896845296574
##END=


$$ === CHEMSPECTRA PEAK TABLE AUTO ===
##TITLE=X9487
##JCAMP-DX=5.00
##DATA TYPE=INFRAREDPEAKTABLE
##DATA CLASS=PEAKTABLE
##$CSTHRESHOLD=0.93
##MAXX=3997.453
##MAXY=1.047492388537531
##MINX=373.96442
##MINY=0.6938383009305006
##NPOINTS=132
##PEAKTABLE= (XY..XY)
3993.2034043236904, 0.9679297247637347
3973.3719578342457, 0.9672264503336623
3956.373575129007, 0.967110399487458
3949.290915668491, 0.9627458490961229
3942.208256207975, 0.9637746256680566
3930.8760010711494, 0.960454825558553
3923.7933416106334, 0.9627529423442399
3918.1272140422207, 0.9612960266422531
3902.545363229085, 0.947404269452017
3891.2131080922595, 0.9585855044502969
3881.297384847537, 0.9530937714735418
3869.9651297107116, 0.9485669173024687
3864.299002142299, 0.9521095796389817
3852.966747005473, 0.940134887135993
3838.801428084441, 0.9428988735515506
3820.3865134870994, 0.944034759048049
3800.555066997654, 0.9491882959832731
3779.3070886161063, 0.9616277264742928
3767.9748334792807, 0.95804101693028
3758.0591102345584, 0.9555815504559922
3749.5599188819388, 0.9369055071605802
3733.9780680688036, 0.9368071596802925
3724.0623448240813, 0.9527244611347416
3711.3135577951525, 0.9487201016098648
3701.39783455043, 0.9635797188966984
3688.649047521501, 0.9493512553348354
3674.483728600469, 0.9409207148382642
3648.9861545426115, 0.938764039624781
3629.1547080531664, 0.9498620667545912
3617.822452916341, 0.9525477923325139
3595.1579426426897, 0.9621722139943097
3586.6587512900705, 0.9566873947638627
3576.7430280453477, 0.9679068968162807
3566.8273048006254, 0.9507077973323096
3545.5793264190775, 0.962874059238783
3537.0801350664583, 0.9708631677158991
3525.7478799296323, 0.9668727556766953
3510.166029116497, 0.970027093164843
3501.666837763878, 0.9695124673316452
3486.084986950743, 0.9731288590606683
3481.8353912744333, 0.9723210375090231
3470.5031361376073, 0.9731785098463807
3446.422093971853, 0.9716095372134408
3357.180584769351, 0.9731136599400985
3347.2648615246285, 0.9712579887737558
3245.2745652931976, 0.8630896845296574
3154.6165241985927, 0.9225460336180574
3120.6197587881156, 0.9232695146838399
3082.373397701329, 0.9355896154939803
3066.791546888194, 0.9413057608519547
3049.7931641829555, 0.9461396382340911
3031.3782495856135, 0.9457467838917074
3003.0476117435496, 0.9376845996427992
2976.1335057935885, 0.9074386394482302
2942.136740383112, 0.9202680034750235
2918.0556982173575, 0.9299052400050996
2893.974656051603, 0.9328232448261332
2879.8093371305704, 0.9272440115463443
2851.4786992885065, 0.942553941314414
2818.898465770133, 0.9481952236869322
2782.0686365754495, 0.9562613413667863
2748.0718711649724, 0.9605164571144656
2723.990828999218, 0.9625400346632056
2709.825510078186, 0.9628537930943211
2698.4932549413606, 0.9630684294558207
2692.8271273729474, 0.9632763305972681
2687.1609998045346, 0.963425759999974
2650.331170609851, 0.9663872169409885
2641.831979257232, 0.965676490259181
2627.6666603362, 0.9674454971716765
2616.3344051993745, 0.9686266229773729
2609.2517457388585, 0.9687750982889417
2603.5856181704457, 0.9690926711334993
2592.25336303362, 0.9696314380089064
2566.7557889757622, 0.9712424921094265
2558.2565976231426, 0.9720761814326395
2554.007001946833, 0.9721313158035075
2544.0912787021107, 0.971697454077738
2534.1755554573883, 0.9727811855187305
2521.4267684284596, 0.9724778577036055
2514.3441089679436, 0.9732672022755593
2507.2614495074276, 0.9735189720982508
2497.3457262627053, 0.9732371015781792
2443.517514362783, 0.9741520925386945
1770.6648656137604, 0.9688423314719603
1748.0003553401093, 0.9306974448993582
1739.5011639874901, 0.9323690574471498
1733.8350364190774, 0.9299854080494554
1716.8366537138386, 0.9336169998746016
1697.0052072243939, 0.8446679748110355
1682.839888303362, 0.8500165385106749
1661.5919099218136, 0.7413960136030661
1647.4265910007816, 0.6938383009305006
1636.094335863956, 0.7206056145967585
1616.262889374511, 0.7456290155083143
1576.5999963956215, 0.830207768560382
1569.5173369351055, 0.840954664787324
1558.1850817982795, 0.8369611534152542
1541.1866990930412, 0.8544206056399382
1521.3552526035965, 0.8883258145959917
1507.1899336825645, 0.9009824432515031
1498.690742329945, 0.9461999576708017
1485.9419553010162, 0.8865394038124458
1471.7766363799842, 0.7964542542418204
1457.6113174589523, 0.7923527393628006
1447.6955942142295, 0.7937332429006749
1433.5302752931975, 0.7557096517488717
1383.9516590695853, 0.8502191345932225
1376.8689996090693, 0.8451659118537591
1361.2871487959342, 0.7271913320797944
1332.9565109538698, 0.8398274812263506
1273.4621714855352, 0.8021823803699947
1239.4654060750586, 0.8486433067471733
1212.5513001250974, 0.7885571160530045
1123.3097909225953, 0.9413117809914306
1099.228748756841, 0.8184522428884646
1087.8964936200155, 0.8399049079659054
1072.3146428068803, 0.8517828616760146
1000.0715163096165, 0.8317794834736764
968.9078146833463, 0.8686792294079331
944.8267725175915, 0.8722512168769447
875.4167098045345, 0.933776800384546
811.6727746598904, 0.8935819904705142
794.6743919546516, 0.9322073497304842
738.0131162705234, 0.7936492594673237
709.6824784284595, 0.8081793816725982
670.0195854495696, 0.7955299652827075
586.4442038154807, 0.8320018686551174
514.2010773182169, 0.865213815284719
490.1200351524626, 0.9503725806305874
437.708355144644, 0.9010996862238523
395.2123983815477, 0.9309837863802495
##END=

##END=

