##TITLE=X8797
##JCAMP-DX=4.24
##DATA TYPE=INFRARED SPECTRUM
##DATE=2/11/2018
##SAMPLING PROCEDURE=ATR platinum Diamond 1 Refl
##ORIGIN=ComPlat
##XUNITS=1/CM
##YUNITS=TRANSMITTANCE
##RESOLUTION=4
##FIRSTX=3997.453
##LASTX=373.96442
##DELTAX=-1.4165319
##MAXY=1.0442517
##MINY=0.58564669
##XFACTOR=1
##YFACTOR=9.7253516e-010
##NPOINTS=2559
##FIRSTY=0.95058548
##XYDATA=(X++(Y..Y))
3997+977430451+977598012+977601567+977445651+977364689+977474088+977673213
3988+977924554+978350076+978945917+979436220+979561799+979364146+979068003
3978+978807958+978548955+978220146+977914197+977888640+978240371+978709468
3968+979003712+979136155+979219200+979202162+979070822+978985080+978992557
3958+978932311+978762912+978615575+978464562+978139001+977728617+977621179
3948+977942389+978292711+978338983+978275857+978415225+978619314+978549139
3938+978229707+977955321+977871969+977891704+977868721+977722672+977505406
3928+977383198+977497623+977813072+978093954+978099347+977808843+977447428
3918+977362238+977727697+978275182+978595534+978638926+978656945+978772166
3908+978781604+978406645+977640730+976869667+976462531+976190535+975660334
3898+975109049+975018466+975358981+975747792+975921298+975954332+976169023
3888+976662452+977028954+976701431+975853758+975391831+975718128+976543002
3878+977433454+978024576+977951950+977137066+976168411+975732531+975825689
3869+976042648+976184652+976170065+975885506+975523417+975578208+976188574
3859+977055430+977848619+978202066+977375905+975159979+973548046+973733994
3849+974928127+976367106+977538686+977820855+976801331+974984635+973539404
3839+973298849+974258434+975738782+977020864+977737136+977902062+977851193
3829+977825942+977669780+977203379+976612135+976127899+975732225+975549219
3819+975871225+976465228+976806234+976848277+977041273+977541015+978134098
3809+978627465+978965407+979170415+979239793+979046429+978509731+978059326
3799+978263047+978865753+979223674+979109372+978846018+978798275+979072477
3789+979588214+980158253+980598607+980812931+980720999+980247366+979592811
3779+979367578+979989283+981030319+981790718+982012825+981783486+981241946
3769+980577279+980113207+980111245+980507901+980941758+981073527+980834627
3759+980414437+980104014+979968200+979732364+979131129+978297552+977811601
3750+977948395+978155916+978063800+977860754+977969478+978517637+979073703
3740+979208107+978713820+977737994+976997146+977165810+977977139+978861585
3730+979602249+979997311+979784213+979122243+978697885+978940708+979661331
3720+980497053+981131383+981342397+981200025+980999307+980876854+980723757
3710+980684287+981145479+982058301+982911490+983123853+982487562+981596742
3700+981397127+981993826+982774450+983298033+983441692+983083219+982083123
3690+980612703+979319835+978789694+979042630+979782865+980589904+981132547
3680+981460805+981803282+982005226+981619541+980885189+980478544+980229838
3670+979833060+979888341+981004394+982523844+983468045+983548823+983260341
3660+983211862+983413744+983381017+982776044+981866715+981078369+980461996
3650+979982541+980031020+980976079+982171255+982844441+982889671+982617737
3640+982371176+982231746+982050027+981759768+981542625+981633331+981989659
3631+982221572+981957115+981541460+981683832+982330848+983048162+983430660
3621+983106692+982103593+981226011+981120964+981500520+981926103+982340593
3611+982643723+982444905+981728449+981205909+981377576+981981998+982629443
3601+983218788+983747457+984168995+984529797+984840588+984829740+984293839
3591+983479690+982736636+982161632+981741504+981556721+981672187+982039547
3581+982505948+982857618+983007589+983097805+983257889+983402100+983383775
3571+983151432+982626930+981677703+980561712+980128713+980738834+981763751
3561+982481984+982834206+983283262+983959268+984388529+984211590+983677160
3551+983271250+983136600+983114169+983094741+983148919+983350311+983534604
3541+983437524+983100931+982936986+983223936+983647925+983685311+983356501
3531+983149532+983354111+983835528+984362726+984804244+985003246+984860445
3521+984555845+984336556+984181559+983999902+983941556+984148586+984394902
3512+984385709+984249773+984363707+984790332+985198571+985186068+984616274
3502+983880819+983565616+983700204+983801881+983689785+983762166+984287894
3492+984888393+985012194+984642689+984332021+984536416+985065392+985390831
3482+985403211+985515736+985907794+986146082+985827385+985167927+984656479
3472+984434740+984393432+984556519+984963103+985440229+985806915+986064446
3462+986228330+986286921+986331968+986381979+986189045+985590201+984885083
3452+984504240+984481931+984556580+984557683+984446078+984174940+983773014
3442+983432621+983354908+983606556+984153060+984820670+985219899+985044799
3432+984543035+984357088+984767410+985412711+985817885+985825240+985445622
3422+984722486+983882781+983272047+983027814+983050307+983226571+983479690
3412+983735138+983969748+984193756+984429346+984731312+985035055+984995953
3403+984354636+983402958+982678289+982334280+982167271+982018586+981818727
3393+981449590+980840388+980075882+979296055+978593818+978023473+977568104
3383+977123705+976595587+975983566+975331769+974627387+973814526+972914636
3373+972058811+971308647+970503385+969447027+968227030+967144011+966295358
3363+965411464+964139188+962451196+960823267+959902048+959781618+959713956
3353+958800766+956865723+954484504+952363881+950784246+949491072+948077282
3343+946404858+944553473+942625600+940836913+939444574+938299287+936825742
3333+934685078+932146104+929652912+927292224+924837276+922205941+919640797
3323+917312346+914991435+912374380+909540243+906825066+904403887+902233560
3313+900290917+898657533+897378087+896360095+895474730+894699438+894104332
3303+893710067+893391186+892921782+892144406+891097425+889946928+888817086
3293+887747979+886768292+885880108+884954170+883779832+882321119+880801669
3284+879401363+878059281+876755687+875753323+875331969+875518406+876196864
3274+877218165+878372094+879486002+880540521+881622866+882939269+884774474
3264+887140923+889591949+891683889+893440645+895149842+896961268+898882705
3254+900932173+903130018+905443821+907791393+910064990+912201364+914209707
3244+916109387+917953908+919885274+921947735+923892522+925453158+926697241
3234+927823468+928825954+929646538+930375312+931080491+931738907+932434831
3224+933324425+934382928+935395282+936138091+936516728+936685760+936983558
3214+937592760+938386316+939183242+939926481+940585019+941137469+941631633
3204+942082038+942427089+942733161+943254782+944139657+945218630+946193353
3194+946947930+947642935+948551528+949739226+950921899+951795436+952448397
3184+953193842+954078042+954846409+955323597+955620598+956020685+956699878
3174+957482892+958008191+958212157+958420046+958886876+959524944+960113859
3165+960534601+960797097+961007437+961299658+961724812+962229518+962759781
3155+963362793+964126869+964983490+965668566+966004485+966141954+966380303
3145+966788848+967112509+967065502+966680491+966327963+966386432+966898798
3135+967527306+967853296+967770742+967579339+967658278+968103167+968668364
3125+968978787+968849838+968470527+968200370+968173832+968212137+968114260
3115+967902694+967745184+967722140+967771232+967836810+967909743+967937261
3105+967925555+968079755+968526115+969026286+969305881+969454504+969610911
3095+969494954+968661500+967098720+965277182+963657097+962353994+961284091
3085+960428389+959830158+959461634+959254909+959195092+959305043+959546579
3075+959738839+959572810+958700131+956713116+953145302+947916585+941945305
3065+936933609+934198942+933751357+934579908+935687012+936797549+938258101
3055+940392637+943007485+945551608+947669289+949369538+950604734+950988029
3046+950216659+948603316+946923537+945792163+945225985+944645588+943352659
3036+941234304+938932575+937238945+936562572+937017205+938602785+941154568
3026+944368567+947910824+951349076+954161394+956091902+957333840+958167356
3016+958633450+958727221+958674513+958830920+959406229+960296314+961132587
3006+961576495+961611062+961405502+960953749+960099212+958790776+956951158
2996+954212631+950209672+945110089+939492808+933730580+927812987+921770674
2986+915903521+910369591+904811084+898818291+892748214+887585505+883753050
2976+880383012+876005155+869757037+861835636+853130669+844722336+837591304
2966+832419770+829394170+828171537+828172334+829032081+830824691+833838585
2956+838169678+843592739+849780427+856445303+863153326+869146364+873588879
2946+876086545+876910071+876667555+875828830+874623726+873227342+871821091
2936+870540051+869498218+868742477+868160977+867718172+867764506+868702640
2927+870375554+872217379+874005392+876058659+878670689+881672877+884612858
2917+887178431+889361138+891258673+892785539+893661711+893773255+893532577
2907+893774910+895215972+898026758+901885138+906233086+910449878+914073526
2897+917048379+919621430+921922913+923789620+925022794+925653447+925913553
2887+926057089+926201238+926249226+925969447+925185268+923812419+921680274
2877+918551281+914540846+910361746+906881390+904538782+903401891+903563998
2867+905080077+907588591+910411389+913099416+915651689+918197099+920657931
2857+922763844+924340537+925579227+926951463+928790039+931097713+933804432
2847+936930360+940368122+943751643+946669989+948910124+950555275+951965081
2837+953520568+955293443+957085072+958725566+960149713+961305112+962219038
2827+963037231+963822391+964441276+964763650+964854847+964909822+965074135
2817+965330809+965506521+965438675+965168641+964919322+964897993+965161777
2808+965617575+966071596+966358668+966503859+966688520+967012488+967387692
2798+967713437+968054872+968553143+969185389+969719207+969995676+970155025
2788+970435417+970829008+971140535+971316247+971502440+971804834+972154482
2778+972432974+972631976+972830181+973047201+973222669+973357686+973524083
2768+973694095+973749928+973721859+973816548+974104356+974346199+974254021
2758+973835548+973391823+973236704+973466043+973912403+974276698+974394984
2748+974400990+974534475+974840914+975198100+975528626+975797741+975926078
2738+975922585+975977254+976223263+976513461+976605700+976464799+976219954
2728+975936987+975609342+975307990+975175363+975272014+975511588+975744298
2718+975886547+975957580+975986814+975928897+975739211+975477818+975276242
2708+975265640+975532671+976010533+976443471+976614832+976588049+976620164
2698+976876899+977283176+977609718+977693560+977585387+977439399+977300153
2689+977104461+976850729+976620777+976448558+976313234+976253478+976359629
2679+976625802+976909197+977068607+977097597+977118925+977247997+977443383
2669+977542608+977488613+977400849+977369654+977332881+977240152+977190509
2659+977334719+977717953+978214569+978601540+978760092+978793617+978859440
2649+978952843+978963262+978859317+978719949+978619682+978575493+978619375
2639+978847550+979305187+979895635+980509004+981110790+981560030+981602687
2629+981279638+981052076+981231037+981551818+981585649+981307708+981010891
2619+980931278+981195796+981854396+982694592+983274498+983386287+983293375
2609+983355827+983622736+983865681+983829828+983476932+983118091+983177725
2599+983698243+984248853+984389264+984039004+983419873+982867976+982681109
2589+982977803+983653503+984445771+985018200+985120919+984789842+984321296
2580+984021108+984040781+984365791+984842120+985271013+985537125+985605768
2570+985478534+985257039+985159040+985340085+985755923+986216747+986493768
2560+986447434+986164775+985899337+985817333+985940216+986262897+986685354
2550+986915981+986776918+986559469+986747010+987409103+988132913+988520498
2540+988534226+988360904+988171525+988076957+988163373+988440946+988796906
2530+989079382+989242960+989357446+989469051+989524762+989524087+989681965
2520+990252126+991142395+991856828+991913825+991289057+990447757+989950161
2510+989966341+990185813+990239808+990129551+990141011+990391985+990591294
2500+990360851+989811160+989547070+989944155+990706454+991348016+991761525
2490+992057362+992234055+992263657+992213217+992142307+992093767+992165780
2480+992396529+992642845+992716329+992557839+992178589+991554556+990744207
2470+990072063+989987301+990629476+991624424+992352463+992399593+991840403
2461+991163723+990842574+990958102+991276738+991535066+991577784+991440560
2451+991333368+991311978+991102557+990563163+990071450+990083401+990556727
2441+991136082+991648204+992096525+992378143+992364414+992168661+992017034
2431+991905184+991690247+991440254+991349854+991401642+991446628+991521215
2421+991789717+992242696+992652896+992804216+992671712+992364230+991956421
2411+991488120+991078594+990854096+990776874+990752297+990870031+991289363
2401+991905919+992379736+992541230+992579841+992749915+993067141+993398709
2391+993682165+993894589+993947542+993789358+993540284+993413418+993551806
2381+993965928+994526406+994961857+994981469+994593394+994299212+994707390
2371+995813636+996959659+997663305+998119533+998670020+999176442+999189742
2361+998546771+997636645+997063297+997019169+997159274+997089405+996689134
2351+996073558+995542437+995433590+995858376+996546701+997036698+997149100
2342+997015370+996672954+996094335+995504929+995301576+995591835+995969124
2332+995889756+995216202+994233082+993278278+992619740+992504518+993038152
2322+993997308+994869435+995221227+995082104+994812743+994545773+994063438
2312+993320935+992683969+992495754+992758986+993259034+993722003+993946684
2302+993970096+993985663+994061354+994135512+994267159+994631638+995205415
2292+995701970+995970533+996232846+996685579+997105095+997199233+997128017
2282+997311206+997910663+998750492+999542454+1000110164+1000614502+1001431286
2272+1002550158+1003362836+1003349168+1002673285+1001841425+1001127175
2264+1000576381+1000185977+999808995+999273339+998819931+999000485+999921826
2254+1001030279+1001822916+1002296120+1002539003+1002399390+1001763344
2245+1000857876+1000096864+999719208+999644498+999730424+1000149572+1001273837
2235+1003069695+1004892582+1006077154+1006471236+1006284185+1005771634
2227+1005194547+1004736420+1004343565+1003979821+1003961496+1004522096
2218+1005136814+1004986781+1004155472+1003686252+1004334984+1005761889
2210+1006983419+1007223177+1006393461+1005169419+1004578236+1005089561
2201+1006084019+1006561697+1006363737+1006226881+1006608459+1007117149
2193+1007201787+1006864765+1006565496+1006763395+1007512395+1008409404
2184+1009101467+1009661210+1010229042+1010681041+1010866682+1010829051
2176+1010714626+1010669948+1010662470+1010377849+1009668319+1009061998
2167+1009432790+1011121762+1013573952+1015914783+1017573908+1018113793
2159+1017250737+1015745567+1014991174+1015170748+1015254467+1014557439
2150+1013209841+1011574251+1009941234+1008458190+1007184933+1006560655
2142+1007255292+1008975766+1010245529+1010058172+1009038463+1008415288
2133+1008510346+1008728531+1008453225+1007427633+1005743564+1003988217
2125+1003049838+1003313008+1004308263+1005434980+1006606008+1007868722
2116+1008775783+1008575556+1007108507+1005290034+1004274432+1004138495
2108+1003960025+1003246879+1002555367+1002561864+1003216480+1004025419
2099+1004672436+1005180390+1005715862+1006411848+1007300277+1008286216
2091+1009183532+1009795676+1009903420+1009311133+1008141821+1006936104
2082+1006235829+1006269966+1007061928+1008342294+1009380389+1009580187
2074+1009329275+1009663661+1010956775+1012349481+1012637535+1011503402
2065+1009900294+1009345209+1010585125+1012777455+1014274228+1014343361
2057+1013632911+1012943545+1012439942+1012052909+1011614946+1010792339
2048+1009936822+1010412477+1012813002+1015833515+1018005558+1019302288
2040+1020194517+1020414296+1019510115+1017794912+1016240773+1015748509
2031+1016444923+1017529168+1018242804+1018888227+1020003176+1020905089
2023+1020594114+1019824093+1020479690+1022769529+1024461443+1023493707
2014+1020525288+1018020942+1017446245+1018233611+1019158261+1019713959
2006+1019817229+1019306578+1018354716+1017443058+1016723599+1016170844
1997+1016135848+1016883132+1017898427+1018437761+1018418516+1018236859
1989+1018209647+1018645772+1019640842+1020433050+1019942685+1018410304
1980+1017568576+1018641727+1020881922+1022691509+1023419426+1023114886
1972+1021672965+1019205147+1016372542+1013905336+1012332137+1012049783
1963+1012955006+1014204053+1014895013+1014807433+1014225198+1013475524
1955+1012844688+1012345988+1011531717+1010156232+1008795089+1008140289
1946+1008019981+1007842124+1007591824+1007577298+1007638893+1007486838
1938+1007293168+1007384119+1007805780+1008337023+1008749430+1009111396
1929+1009725378+1010511457+1010863433+1010514215+1010008467+1009960479
1921+1010303446+1010595115+1010530701+1010119031+1009714592+1009720353
1912+1010170819+1010627720+1010493929+1009614447+1008550857+1008038551
1904+1008171607+1008352100+1008110503+1007673520+1007499953+1007650170
1895+1007914137+1008214264+1008559621+1008856193+1009029148+1009193215
1887+1009537776+1010063749+1010493867+1010510905+1010169961+1009866279
1878+1009828219+1009924258+1009969794+1009957414+1009992165+1010184670
1870+1010616627+1011352143+1012379696+1013481224+1014325526+1014709127
1861+1014654152+1014357702+1014112796+1014202276+1014769496+1015745015
1853+1016780781+1017345120+1017193371+1016702210+1016487763+1016789851
1844+1017321892+1017620303+1017607616+1017508146+1017361361+1017062583
1836+1016738983+1016640493+1016652996+1016409131+1015803913+1015111605
1827+1014532128+1014027606+1013610357+1013405840+1013427658+1013499181
1819+1013415768+1013087755+1012526113+1011799913+1011052691+1010462611
1810+1010145813+1010092186+1010151697+1010131778+1009941296+1009598267
1802+1009206331+1009021119+1009254381+1009742049+1010148939+1010297869
1793+1010148694+1009849364+1009749464+1009906668+1010051246+1010029489
1785+1009840722+1009491320+1009055992+1008667059+1008282722+1007710906
1776+1006839515+1005672899+1004424587+1003652298+1003738959+1004391859
1768+1005114383+1005495042+1005257367+1004375618+1003111126+1002005431
1759+1001388997+1000953118+1000267612+999378080+998481805+997505550+996543330
1749+996090658+996172109+996203734+995815352+994939426+993680756+992365885
1740+991369221+990841532+990725759+990908581+991346606+992086657+992963074
1730+993746334+994496927+995327010+996124305+996822129+997490902+997953504
1720+997890438+997419318+997260521+997930827+999117422+1000253516+1001066623
1710+1001653516+1001941263+1001386117+999832530+997895403+995469321+991238494
1700+984525936+976287309+965534285+949848687+930737524+910489286+886732194
1690+856937936+824459819+793813781+761988871+724315256+690600656+671917099
1680+664996713+665839054+674336807+689919870+706396511+716219982+719023781
1670+719911107+725053837+736601888+752681138+772880897+797475244+822749089
1660+843344033+858343390+869298297+877533859+885394769+896024237+906419156
1650+912816449+917489162+922920435+929399793+935272400+939892527+943853871
1640+947529307+950816974+953849439+957519971+961983631+965805974+968475123
1630+970253944+971038613+970438114+967449470+959195521+942190885+918179693
1621+894247255+875678797+866894279+872834609+889886805+908511954+924677253
1611+937663670+946812422+951970903+953866231+953936713+954128053+956102811
1601+960191021+965174954+969369559+971956951+973103831+972946996+970917140
1591+965964648+957423565+945996496+933106179+918761499+901784994+883338192
1581+868316465+862041012+868366904+889036619+916389779+937561626+950806126
1571+960417112+968628834+975067373+979340182+982096851+983952159+984873132
1561+984322521+981777970+978235774+975222125+971545219+965780601+956954590
1551+943869071+925957312+904534737+880758768+853781670+824020814+795086731
1541+768276582+743142595+724785641+714040767+706839561+701726188+700371542
1531+703562926+709438659+716227030+722576702+726651612+726638681+721064607
1521+710095665+697783599+687661717+679719785+673937761+670794856+669541150
1511+668816298+667837285+666522415+665806572+667842311+672378290+677237808
1502+680881558+682037448+680212662+677188839+676320267+678585775+682479886
1492+687158114+692975991+699772698+705924349+710282225+713053481+714841678
1482+715935544+716077610+714757959+711846722+708653560+709534452+720748300
1472+741602981+761941925+776239597+786254592+794332216+799950478+799880978
1462+792103849+776830780+754453217+729660297+718243586+727000341+745271859
1452+763550916+775720978+778349739+773672001+769522687+772695685+784263839
1442+800809796+817191379+829630496+835967052+833479499+821253236+802536215
1432+780782318+759783610+745436724+741901515+748974446+764582882+784660126
1422+803406687+817446031+826351286+829882389+828196420+822077006+811456057
1412+796167053+777829405+759908024+745436969+735618524+730774818+730574038
1402+733212483+736758356+741016456+747633650+758984048+776327606+797512445
1392+817814126+834683867+848598000+860133364+868424822+872208247+871283902
1383+866331901+858545517+849455295+839790498+828152660+811908484+791237544
1373+771439528+757393014+748959982+744022934+741382958+739645691+735446427
1363+724813772+708114288+691296212+679862034+675631697+678158108+686357817
1353+699429669+716937357+737926565+760340104+781913815+801260569+817788262
1343+831458775+842842881+852645943+860941691+867337329+871941951+875637857
1333+879403937+883415844+886681447+887567548+884746710+878061426+868965687
1323+859933750+852959554+848647091+846722712+846976567+849449044+853883591
1313+859229674+863803836+865982805+864661621+859481690+851448133+843336372
1303+838775693+840322539+847980585+859301381+870879709+880099003+886097496
1293+889463305+891095893+891423109+890590267+889067324+887820912+887812761
1283+889279196+891438982+892973815+892984847+891605930+889793770+888696471
1273+889143628+891310155+894387237+896239480+893295883+881410871+858266596
1264+826096267+792305241+767051743+758541243+768305264+790394039+815573195
1254+836592128+850407280+857065721+857810430+854225762+848270722+842460874
1244+839520158+841249518+847489424+856306731+865196175+872242568+876663877
1234+878720087+879244527+879168898+879287613+880256758+882662247+886914157
1224+892871035+899581019+905660228+910164154+913111367+915071660+916279890
1214+916284793+914402826+910251612+903745471+894762748+883063928+868562045
1204+851512424+832243689+810582766+785911993+758824638+733372138+716713533
1194+714892240+728334885+751578017+777063919+799007012+814756717+824246782
1184+828561267+828073599+821520022+807496858+787300287+765913810+749829105
1174+743732920+748598322+761981701+779801895+798208002+814427172+826751987
1164+834677494+839203115+842088611+844187783+844986794+844117486+842663492
1154+842577260+845416667+851808322+861060283+870478089+875476057+871150050
1145+854385907+825554911+789670229+756276348+736358943+736574370+755117578
1135+783508649+812751990+837917846+858141753+874336653+887543033+898435671
1125+907393450+914702523+920668840+925622803+929845233+933434253+936274334
1115+938117630+938549219+936820961+931804669+922338200+908240756+891483110
1105+875964460+865458855+861452771+862439322+864907325+865964786+866196822
1095+869473580+878899722+893364771+908769548+921829326+931733697+938889673
1085+943460954+944999587+942296546+933529923+918134953+899614789+885467150
1075+882472010+891525214+907531409+924072648+937528592+947390122+954421622
1065+959410765+962997701+965736167+968021716+970087608+972081978+974050913
1055+975890409+977436519+978590815+979344350+979774468+980002276+980084830
1045+980079498+980223525+980799018+981817440+982896291+982997232+980105055
1035+972120099+958937683+943235721+928612182+917143437+908785850+902495443
1026+897721973+895387639+897551715+905552913+918324884+932690279+944874437
1016+951634187+950904616+941885794+924581950+900918015+877485748+864223168
1006+866879999+881982381+901257918+918969020+933470719+944842261+953717424
996+960982370+967017452+971678152+975062164+977604693+979530359+980624041
986+980593643+979755347+979218894+979948833+981723546+983429005+984260069
976+984350775+984368855+984733702+985308705+985785525+986069043+986110719
966+985692429+984666530+983256480+981958769+981247094+981373715+982279428
956+983550723+984421072+983800777+980491843+973913016+965114891+956924253
946+952390848+952666092+956369536+960822593+963652194+963618976+960788333
936+956262773+951179492+945152194+935416549+918025738+890977362+857155140
926+824379777+801887360+795650090+805824924+827477145+853286034+876592906
916+893849865+905468765+914305316+922874469+931833658+940768638+949575588
907+958522580+967427958+975532120+982219120+987472659+991647162+995136405
897+998242415+1001061536+1003476279+1005395143+1006919005+1008218983+1009447193
887+1010788723+1012374487+1014132898+1015890268+1017532600+1018973356
878+1020153025+1021138229+1022000243+1022594736+1022730121+1022566850
870+1022606258+1023251497+1024521750+1026125287+1027616667+1028588080
861+1028945266+1028889862+1028463543+1027368880+1025423847+1022839397
853+1019790078+1015938256+1010543388+1003070247+993878777+984388651+976395482
843+971107500+968665300+968311852+969016541+970014737+970547819+969315197
833+965093563+958305069+951508241+948048109+950152123+957572250+967111651
823+973812442+973877898+967063050+956232680+945050456+936098070+929608846
813+922896717+912311682+897202252+881487481+870862364+869143300+877204621
803+893790109+916212474+940825942+964040514+983601408+998930923+1010322568
793+1018345032+1023928789+1028078471+1031239517+1033388149+1034608636
785+1035231444+1035496453+1035167337+1033502390+1029250970+1019549278+999266658
775+965324067+924108195+890649533+874985937+870084192+858306985+830780563
765+796540235+771657774+763072135+764681433+765770948+759534474+744424676
755+721556075+693970449+668157698+653057339+653731015+664647801+671969071
745+666276098+652301475+642029928+639398225+638646162+638350141+648252857
735+677590091+722702097+770735575+811348068+841490686+862554421+876735217
725+885433135+888969509+886738996+877584728+860784855+837109949+808351886
715+776105315+742380970+711429903+689257960+679824035+681138845+685209710
705+682632799+668797115+647214150+626604068+613383470+606947627+603285920
696+602185618+608108359+624222604+648373104+675120679+699759582+720089455
686+735954443+748249164+758086609+766224785+772946965+778267123+782151796
676+784747584+786537130+788158440+790152626+793206357+798137643+804127556
666+808981680+812368328+814865381+816547121+817009600+814992431+808331600
656+796523197+783935090+778447984+785199460+801978311+821550175+837897744
646+849528657+857706302+863629533+867895846+871156730+874082431+876842654
636+879074331+880367077+880625466+879960983+878380552+875662678+871556817
626+866168446+860135632+854505480+850613759+849529760+850570980+850425054
616+845117153+833624200+818869749+805358156+796861629+795726393+802497542
606+815197316+829703857+842012063+850302294+854792491+856466938+856446161
596+855767459+854934311+853647388+851424046+848763538+847093136+847120164
586+848166288+849634685+852293538+857364070+864842053+873403483+881534366
577+887855049+890609328+888228967+880729288+869466532+855256931+837781052
567+817752470+798839941+785877365+780611815+779203480+774871773+764091353
557+749672882+737563311+732343359+736327870+750102695+771535198+795635748
547+817463007+835065323+849362750+861936332+873022027+881174913+885160404
537+886272289+887787816+891666115+896564919+899576178+899327716+897064231
527+895516160+897088624+902227860+909483797+917219740+924565280+931114812
517+936606270+941210953+945528502+949739349+953345958+956281833+959458569
507+963344161+967031855+969778288+972246230+975361371+978988696+982451585
497+985428094+987896893+989799944+990962576+991356535+991408936+991780524
487+992901541+994800792+997037065+999003182+1000648026+1002224597+1003195213
477+1002503886+999845768+995123105+986900107+973840573+957869680+943162053
467+932866849+927881446+927254961+929251721+931652368+931805588+928235567
458+922691341+919130575+920215861+927132385+940121744+956607762+972066717
448+984027298+993589743+1002953984+1011730228+1016876451+1016353849+1008769961
438+989333421+953838713+910307139+877870820+869102666+880880914+902076357
428+925443474+950344138+976211190+998947716+1015631449+1027010591+1033263367
418+1034220439+1033818880+1034885167+1036257404+1036886708+1038219597
409+1041586265+1045157388+1045786938+1042381659+1035846652+1027729436
401+1020436788+1017095801+1018699705+1021133448+1020214681+1016650483
392+1013248759+1012633183+1016101956+1023123957+1031851416+1039022224
384+1041322481+1039855249+1039002366+1041381685+1048071261+1059647443
375+1071395232+1073741823
##END=
