##TITLE=X8796
##JCAMP-DX=5.0
##DATA TYPE=LINK
##BLOCKS=1


$$ === CHEMSPECTRA SPECTRUM ORIG ===
##TITLE=X8796
##JCAMP-DX=5.00
##DATA TYPE=INFRARED SPECTRUM
##DATA CLASS=XYDATA
##ORIGIN=ComPlat
##OWNER=
##XUNITS=1/CM
##YUNITS=TRANSMITTANCE
##XFACTOR=1
##YFACTOR=8.6110158e-010
##FIRSTX=3997.453
##LASTX=373.96442
##MAXX=3997.453
##MAXY=0.9246007794362787
##MINX=373.96442
##MINY=0.3761167823366701
##NPOINTS=2559
##XYDATA= (X++(Y..Y))
2559I74125000I73575193I72588891I71934079I72159801I73123608I74200172I74881842
2551I75149789I75292518I75417805I75273275I74666363I73875050I73401938I73413844
2543I73629669I73762708I73875950I74147012I74487777I74673146I74699865I74733574
2535I74831865I74920120I74899146I74696127I74330235I73957352I73714116I73526325
2527I73221276I72863137I72832265I73369267I74214570I75000829I75623385I75896038
2519I75407007I74185429I72985930I72587645I73104504I74035915I74736412I74821552
2511I74429979I74094129I74275483I74929741I75438917I75220392I74335357I73346978
2503I72913598I73305031I73995699I74235889I73982063I73749349I73793371I73854769
2495I73663863I73277344I72951183I72909790I73198296I73649742I73969950I73907168
2487I73429556I72836903I72662748I73118001I73670993I73922742I74107625I74269184
2479I73947246I73205494I72868813I73353346I74040276I74283997I74066926I73512273
2471I72841817I72632845I73320398I74407553I75058281I75123416I74831935I74389279
2463I73995838I73756201I73684698I73945169I74846678I76192642I76533408I75308300
2455I74235959I74180376I74764861I75335434I75357930I74598112I73314791I72226737
2447I72092659I73017841I74178091I74812000I74939640I74929257I74973418I75037723
2439I75015919I74751364I74205225I73739450I73824313I74189443I74037646I73551451
2431I73578031I74275621I74944346I75112272I74929810I74907937I75510074I76375035
2423I76602628I76225244I76064379I76452353I76951907I77427373I77986386I78315176
2415I78179022I77976211I78155557I78587484I78841241I78811131I78663556I78416098
2407I78034839I77724322I77702172I77849332I77906369I77835350I77771391I77888302
2399I78272191I78697127I78793342I78573294I78287004I77940424I77438102I76982917
2391I76988801I77510159I78000991I77976141I77458590I76906015I76820460I76884972
2383I76450346I75968304I76453253I77913983I78786281I78287835I76944431I75372120
2375I74329335I74750533I76570994I78400108I79250464I79116733I78332896I77286166
2367I76428680I76168970I76687281I77822821I79050283I79804355I79914137I79622448
2359I79308608I79262785I79598775I80303702I81198427I81855039I81865422I81234144
2351I80445808I80110580I80340665I80715762I80976649I81242589I81515589I81310147
2343I80140829I78410491I77348740I77439417I78149743I79144144I80215863I80885141
2335I80636299I79398039I77707848I76656480I77027356I78032070I78727445I79130162
2327I79728353I80777645I81970635I82827498I83080147I82835665I82419728I82175108
2319I82333897I82539339I81864315I80066419I77919936I76576047I76986378I78726199
2311I80317130I81137791I81431419I81625370I81887295I81944193I81470666I80610896
2303I79850109I79423374I79147259I78981894I79446492I80724068I81762909I81863692
2295I81295265I80595806I80201742I80228807I80436187I80643083I80978864I81574979
2287I82274230I82702834I82610427I82109489I81538500I81038462I80587154I80406492
2279I80847348I81794680I82725469I83463206I84172424I84716832I84722301I84164810
2271I83359723I82681238I82417236I82532071I82797803I83099529I83332659I83337227
2263I83119948I82918936I82925858I83108181I83274653I83197543I82760009I82081801
2255I81475511I81176554I81180638I81418821I81863346I82504314I83240597I83797672
2247I83960890I83848202I83683046I83395302I82792404I82028987I81628139I82070172
2239I83238382I84399394I84914036I84765701I84434834I84385204I84660903I84950654
2231I84989763I84797749I84583170I84509244I84523296I84456084I84302279I84246212
2223I84400363I84703127I85050607I85309901I85282975I84874652I84248981I83724439
2215I83566896I83842111I84396071I85016205I85523996I85701819I85424389I84940964
2207I84696482I84884412I85366730I85901032I86272946I86300149I85944363I85422728
2199I85037663I84869253I84802387I84863300I85259994I85954954I86483856I86470982
2191I86122118I85941594I86020366I85940071I85526626I85228084I85476373I86119833
2183I86762532I87215571I87386888I87256203I87115342I87318500I87740944I87925759
2175I87726062I87393395I87128770I86951224I86914537I87049930I87172240I87114927
2167I87040239I87206711I87601052I88046131I88455354I88815016I89145468I89524650
2159I89903486I90015690I89755288I89415353I89262240I89184161I89025304I88932273
2151I89067804I89270754I89281345I89088293I88864854I88728285I88714510I88915107
2143I89460345I90246673I90855802I90977489I90800980I90697359I90695975I90638662
2135I90631809I90893526I91268140I91329329I90950217I90442425I90113289I89976720
2127I89949309I90022612I90143538I90200020I90205765I90265640I90347457I90353894
2119I90371268I90591800I90998255I91291951I91174140I90676594I90174963I90023166
2111I90196905I90350710I90237399I90055283I90257057I90884805I91330644I91049892
2103I90211372I89323776I88623487I88177993I88155634I88560290I88932481I88683846
2095I87724954I86552590I85682992I85168002I84752549I84260748I83632446I82776483
2087I81639214I80343295I79091883I77926442I76661810I75109918I73299286I71405106
2079I69528578I67580269I65268767I62242095I58414350I54058602I49432207I44515923
2071I39229040I33610667I27666896I21274653I14332604I06857499H98891216H90403436
2063H81368064H71971645H62698505H54098660H46466151H39815168H34144188H29642388
2055H26615231H25242063H25387769H26609001H28348407H30206316H32085198H34063341
2047H36155210H38232889H40150742H41915067H43693097H45554605H47301140H48745119
2039H50044153H51536240H53429796H55855440H58924752H62516044H66295267H70114497
2031H74120897H78430545H82942244H87447297H91750785H95754485H99504358I03101881
2023I06557089I09780205I12688859I15311154I17765938I20115442I22278122I24162680
2015I25792789I27226247I28490464I29629533I30670448I31578119I32415531I33425505
2007I34750082I36220849I37584534I38771018I39837753I40847382I41863656I42868025
1999I43659891I44022530I44015054I43918563I43842698I43565407I42877715I41945750
1991I41197284I40980352I41387360I42262704I43330339I44402749I45475299I46604954
1983I47778771I48922270I50016001I51219166I52732087I54430791I55910973I57009203
1975I57900398I58620276I59009287I59160808I59395045I59794785I60201932I60600564
1967I61146357I61865681I62568393I63094943I63523755I64008911I64462711I64661093
1959I64664070I64782711I65062979I65152548I64749970I63895946I62814259I61744340
1951I60882423I60240902I59628521I58945675I58386247I58218044I58482669I58954535
1943I59296339I59327764I59227604I59340293I59758861I60256130I60610670I60818258
1935I60988676I61171553I61318020I61391600I61499927I61872396I62670561I63828319
1927I65033976I65919980I66407629I66777258I67211677I67460797I67223652I66589329
1919I65708308I64325450I62173222I59694971I57882263I57382086I58044512I59207946
1911I60115200I60174383I59165238I57328025I55192964I53190179I51251076I48804182
1903I45326409I40937574I36359910I32348596I29262395I27100268I25768770I25234053
1895I25446210I26205958I27228600I28325792I29418415I30380214I30920607I30594031
1887I29034387I26444279I23811324I22197828I21598183I20779322I18513367I14808416
1879I10761108I07463374I05385417I04656125I05468964I08033808I12249872I17511974
1871I22841842I27344542I30695230I33165935I35153837I36834891I38299982I39783554
1863I41598616I43904372I46528537I49013432I50968939I52422886I53682880I54919964
1855I56132059I57358690I58563863I59482469I59979739I60404813I61202493I62330764
1847I63340947I63846246I63742002I63187765I62538629I62147333I62108779I62207000
1839I62111824I61653110I60925756I60116516I59324580I58634120I58138996I57701255
1831I56940053I55726366I54443044I53514817I52932753I52447528I51970262I51614407
1823I51541104I51864080I52524984I53219320I53581405I53448712I52888938I52046957
1815I51020508I49830563I48453588I46811435I44718389I41992058I38694254I35128018
1807I31641108I28661297I26730431I26063436I26144838I26137431I25694083I25145730
1799I24953993I25197852I25588455I25794728I25677747I25359478I25215156I25698790
1791I27026412I29064636I31544617I34260773I37042756I39646708I41743976I43116798
1783I43966254I44877038I46315688I48255345I50330186I52171759I53570330I54542720
1775I55336178I56242878I57334325I58420718I59302638I59959250I60375118I60351168
1767I59807037I59176451I59073177I59531545I59936754I59733734I58894522I57709976
1759I56483415I55453712I54726357I54209914I53714583I53097910I52343353I51639465
1751I51316627I51560970I52343492I53682258I55632435I57937707I60074776I61729735
1743I62966194I64008081I65084091I66321935I67632668I68824135I69812307I70620508
1735I71310899I71990077I72686490I73222176I73421873I73383664I73346770I73396816
1727I73459251I73456689I73352516I73162717I72999775I72994307I73147489I73366152
1719I73607657I73876504I74163348I74486878I74871320I75207656I75285873I75023256
1711I74547514I74055020I73638183I73226606I72742973I72299971I72041022I71837933
1703I71495507I71200703I71367659I72067048I72929933I73593052I74020203I74389002
1695I74783481I75113449I75345471I75622070I76042783I76528702I77005829I77506628
1687I78024941I78473273I78814384I79070979I79236759I79312969I79390979I79551014
1679I79708556I79716101I79617118I79628400I79862569I80236075I80618579I80895801
1671I80969104I80899055I80928265I81168940I81405392I81379850I81129831I80875936
1663I80704618I80537731I80351255I80249987I80314777I80493016I80668763I80781728
1655I80858146I80951246I81034032I80990701I80798341I80657826I80796126I81175170
1647I81533932I81682338I81623017I81448931I81265916I81197666I81355485I81760971
1639I82322476I82891526I83333143I83567034I83598183I83508475I83349410I83086308
1631I82774891I82689129I83024772I83536024I83780505I83710249I83695643I83971966
1623I84383542I84705203I84929127I85158588I85438579I85782875I86200820I86609143
1615I86850994I86922221I87038993I87341688I87664664I87766970I87671656I87575718
1607I87523250I87398171I87199928I87112296I87245958I87486287I87711387I88019274
1599I88545131I89148721I89514959I89516205I89263209I88892749I88541532I88415761
1591I88618988I88996855I89357417I89726770I90225908I90853794I91551384I92307049
1583I93021943I93428051I93317578I92799127I92234853I91931051I91905232I91990233
1575I92181970I92681524I93485711I94214726I94558745I94618965I94664581I94830083
1567I95101561I95330260I95328530I95133401I94975167I94946925I95046047I95426751
1559I96128149I96741083I96853910I96615589I96458393I96518613I96616974
1552I96556338I96313448I96104891I96212873I96627010I97071258I97419292
1545I97742406I97963215I97828100I97242852I96401218I95679471I95474444
1538I95919730I96690830I97294974I97575450I97753412I98027104I98311525
1531I98401995I98301766I98254420I98371192I98400956I98117712I97798958
1524I97952694I98643085I99445541I99982751A000168119A000056054I99816348
1517I99724979I99910278A000220310A000431913A000421460A000204805A000034665
1510A000241907A000735162A001007123A000866124A000720141A000899071A001140232
1503A000987881A000420146I99897334I99835660A000108522A000223910A000042487
1496I99987111A000355703A000863009A001112406A001122719A001138640A001231393
1489A001292721A001283238A001359379A001705890A002229947A002570367A002503640
1482A002178933A001915278A001969615A002466261A003263734A003868432A003804543
1475A003174441A002588987A002446949A002591202A002752136A002909748A003083972
1468A003205729A003304781A003421138A003353234A002891751A002206551A001696476
1461A001607253A001961585A002640070A003388536A003901865A004032481A003907748
1454A003795821A003833822A003934744A003961532A003875700A003707636A003538672
1447A003551409A003970460A004841237A005852389A006486228A006462347A005958571
1440A005325216A004755543A004312956A004046671A003968800A004076850A004411109
1433A004897512A005208790A005048963A004587687A004354004A004633648A005162967
1426A005468223A005357265A005025082A004774440A004706121A004698092A004637940
1419A004556123A004555016A004756789A005222841A005705921A005716581A005220765
1412A004996633A005838614A007638171A009545364A010757390A011064100A010876377
1405A010668443A010424376A009953757A009408380A008977283A008520991A007898989
1398A007191985A006490104A005857165A005425929A005285346A005311442A005263196
1391A005165666A005319748A005759774A006097839A006040526A005746276A005499233
1384A005320925A005173696A005258420A005708482A006264657A006672288A007100478
1377A007842091A008764365A009345667A009267519A008757790A008286062A008067399
1370A007980460A007890267A007842368A007954502A008326277A008976383A009726926
1363A010313073A010684433A010986643A011263935A011452557A011615637A011905734
1356A012287754A012532097A012559162A012636618A013031167A013534597A013648532
1349A013292330A012975792A013141710A013645209A014048064A014193147A014315527
1342A014670551A015188864A015560708A015608746A015464702A015418325A015691117
1335A016211921A016465471A015863126A014594272A013755060A014166635A015399636
1328A016475784A017116407A017643302A018054948A017955203A017249861A016403589
1321A015974846A016123875A016582936A017031475A017480984A018272434A019662007
1314A021413596A022922640A023718244A023687649A022999889A022202693A022045912
1307A022618284A023139296A023158470A023180827A023560494A023844361A023737003
1300A023577660A023458673A022970955A022212453A022091942A023122337A024540567
1293A025154471A024668760A023730842A023099218A023301684A024574553A026451497
1286A027821481A027882394A026782295A025288063A024291170A024456881A025739233
1279A027255684A028016194A027769982A026986145A026244809A025955750A026346423
1272A027280534A028337371A029358906A030561587A032011103A033488100A034933463
1265A036569248A038521640A040286796A040500960A038234520A034805892A032473971
1258A031722045A031670892A031755616A031801854A031655733A031391870A031129599
1251A030684658A030111178A030033584A030722867A031461642A031473825A030924156
1244A030396153A029984092A029551335A029199910A028776773A027757177A026335555
1237A025699709A026470533A027787148A028567939A028731781A028640619A028234027
1230A027276035A025914773A024640104A023894753A023774173A024028000A024451274
1223A025224659A026593604A028273274A029541436A029920826A029552165A028991006
1216A028807437A029218599A030040437A031024870A032007089A032631168A032417627
1209A031391177A030234596A029596119A029578330A029989767A030657663A031324243
1202A031671653A031789741A032273167A033397907A034497521A034614640A033522917
1195A031957735A031135967A031853630A033641074A035189435A035825212A035896785
1188A035739034A035314098A034771906A034355622A034066079A034166861A035288556
1181A037286150A039031023A039925126A040532731A041351039A042017965A042198973
1174A042445877A043539815A045254994A046433517A046505229A046419397A047591899
1167A050043223A052074180A052000461A049950470A047669217A046628647A046468128
1160A045566065A043375212A041306947A040810992A041736520A043245011A045038962
1153A046643183A046980003A045837680A044279213A043113010A042387387A042371882
1146A043590760A045868621A048249134A049570457A049073187A047283528A045994531
1139A046442793A047901724A048873904A049042245A049174801A049737552A050361631
1132A050442894A049839234A048772153A047421620A046132761A045594929A046027756
1125A046506475A046002422A044675354A043379089A042508105A041832112A041136599
1118A040595305A040420804A040338364A039733044A038465573A037237004A036902676
1111A037619024A038859707A039987493A040579593A040553289A040256340A040270460
1104A041025294A042446639A043804370A044128593A043177938A041835711A041080185
1097A040827812A040356361A039482540A038635645A037986162A037338202A036864813
1090A037206686A038601104A040503106A042206102A043442562A044364906A045119740
1083A045770884A046484325A047221231A047465228A046835958A045744235A044966835
1076A044895955A045447216A046279367A046903169A046794011A045645736A043733213
1069A041818960A040412567A039354969A038113733A036491307A035084914A034831087
1062A035912913A037407629A038354131A038804262A039396639A040359407A041292479
1055A041742819A041667024A041343079A041179307A041480271A042264316A043410791
1048A044834558A046386864A047750065A048561934A048684661A048347148A048011228
1041A048119002A048844487A049798534A050263132A050239736A050369453A050957192
1034A051812878A052647936A053288836A053655558A053827222A054017712A054295765
1027A054454346A054272162A053797804A053413015A053428727A053673209A053695636
1020A053265440A052585431A051955815A051367453A050556759A049447524A048339050
1013A047501984A046913622A046463005A046127155A046007198A046293765A047033994
1006A047978418A048805102A049296626A049387580A049346464A049630262A050264240
999A051008137A051805748A052658942A053423951A053964760A054324699A054604413
992A054755242A054561636A053881005A052948693A052351540A052327037A052430242
985A052139868A051171494A049478949A047229191A044903638A043295264A042769615
978A042948892A043292634A043439863A043222377A042647858A042001491A041731952
971A041837303A041855785A041529140A041022595A040655388A040475280A040206087
964A039783920A039615510A040298633A042153288A044412391A046128262A047402861
957A048584224A049725508A050757633A051660873A052343857A052613673A052394041
950A051902586A051686968A052181677A053229030A054483349A055769370A057055045
943A058340928A059636708A060898849A061874007A062289737A062201413A062036810
936A062151022A062479397A062888343A063250705A063453171A063436835A063147499
929A062616658A061816694A060357348A058067028A055830421A053753088A050847549
922A046588915A040533562A032029308A021386531A009310157I93713234I70353392
915I39579842I07756792H75846321H38164016G92223462G47065153G15101659
908F98185004F91649548F92495336G04090429G32815163G64487730G84425658
901H00059960H19967986H43744873H63459569H77393228H88797069H99160824
894I08511835I17998861I29997917I43071598I52456942I57967541I61902229
887I65901014I70772860I76475611I82575887I88580502I93420853I96070351
880I96121988I92836644I86709165I82484863I84304910I91827983A001927875
873A009222942A007949796I95415123I71918227I38186186H96113454H51757464
866H13856081G88514013G77343510G79932026G95581348H21918302H53367291
859H82877178I06044729I23105636I36724487I49204892I61484700I73066295
852I83103128I91929389A000657498A008755851A014626182A018765620A022985214
845A028559564A034612840A039292257A042162702A043464228A042965020A038962012
838A026710723A006618644I93526204I91274369I94958277A001092401A007155576
831A011216105A012064938A009413640A003206836I93267532I79575932I60679197
824I36785054I16081978I00850392H84406227H60466814H29967856H01223740
817G77351885G54892722G32154813G11965620F97169768F88022054F85022999
810F88445259F97308068G11426126G29443849G48090011G65838401G82697120
803G98496371H15221081H36842555H56187207H61233138H53806971H38065102
796H17808490G99758165G90265947G87962614G86555044G84410776G85124701
789G93543262H09758243H26580068H37775767H41445623H38191981H32469502
782H32037229H42039730H61055384H83353336I03308776I17255033I20120564
775I06433394H75386222H28444206G71826681G25863769G12938424G30645561
768G63565801H03603907H44739827H68893335H67411770H54795764H45365637
761H45644797H50578386H43118163H10343975G58786432G05201533F63101529
754F38069217F28089697F29551188F41096651F59706404F80914225G03595028
747G27671771G50585496G68933463G81882827G90305541G94906601G96115996
740G94038940G88341865G80175192G73449453G71599850G76056173G86563004
733H00828153H15476015H28289848H39176137H48824651H57060405H63407378
726H68269325H72269772H75182856H75949665H73788369H69736285H66478351
719H65865001H68255274H73454387H80226018H85804452H87187380H81456318
712H66009669H41651688H14632650G93030834G81860123G81339595G87159603
705G93528034G97150751G98273900G99689085H04450595H13884461H26549404
698H37795702H42742304H40080485H32014733H22109001H12376177H02086694
691G90818315G81671985G79398139G85407877G96086094H06131856H12633534
684H16125497H18901112H22303299H24891123H23678474H17052756H06556169
677G96554015G91551276G93207550H00029642H09505663H19970893H30849776
670H41923581H52731307H62705635H71583048H78869394H82542226H79149523
663H66536772H47052229H27720106H16813881H18921809H31973686H48803817
656H61446817H64800689H58029195H43393517H23930153H02544509G83069864
649G70651411G69458905G79776352G97876030H18840130H39353961H58243151
642H75418685H90926801I04730190I16898763I27693130I37268203I45200569
635I50220128I50369710I43699415I29339782I08178684H82361703H54099006
628H25415803G99052338G78327320G65240764G59421863G59235664G63127714
621G69906198G78597275G88404370G98716626H09159775H19579182H29776050
614H39312291H47759163H55063574H61525866H67496633H73204437H78792492
607H84360058H89880486H95077522H99427871I02415849I04002421I04937293
600I06438170I09382334I13835542I19314024I25138738I30211111I32561376
593I29576096I19291389I02164793H81974907H64561883H54624171H53036009
586H57327660H64677963H73980867H85191240H97726951I10150457I20865292
579I28494686I32003678I31284145I27741306I23751935I21018889I19468797
572I18096114I16630054I15584085I14868498I13731160I12404438I12386234
565I14311216I16460191I15882419I10259409H98604095H81320926H60320900
558H38693058H19673874H05671688G97989134G96846604H00846427H06031697
551H06331692G96889658G78468596G58333394G45556593G44803628G54419194
544G69613125G86433565H03016999H18671444H32935970H45447315H56163119
537H65410924H73549494H80467247H85599287H88803645H91188172H94570008
530H99870735I06323613I12402777I17199173I20739867I23381959I25236683
523I26045854I25477427I23596330I20948286I18151766I15809184I14953153
516I16880766I21978265I29048854I36181117I42082458I46521822I49926708
509I52804144I55402005I57755176I59879302I61677959I62637681I61897660
502I58726943I52467809I41587611I23838597H99512318H74901550H60044647
495H61022020H75190124H94669061I12999099I27714587I38831446I47183072
488I53777018I59343131I64141881I68242764I71780274I74953414I77935994
481I80771207I83373982I85736152I88039693I90432389I92792759I94908924
474I96824423I98782215A000858787A002859218A004457278A005103854A003654199
467I97862986I84312385I60633513I30204605I03864466H93263221I01055211
460I19403039I38194907I52468986I62231089I68369020I69555712I61824011
453I42893290I19036386I04196096I07903607I25933304I45696385I58041813
446I61773135I60851553I60692486I64904882I72987800I81565011I87945902
439I91742982I93825715I95033518I95771809I96092155I95951363I95542832
432I95390204I95932951I97078457I98462285I99781461I99961362I95878337
425I82641299I56291678I18035755H76627250H44405638H28677821H27757692
418H35842755H49115510H66015068H84793992I03418765I20688368I36042195
411I48952865I59146064I66929540I72880372I77193481I79457914I79395824
404I77850993I76510428I76557497I78154865I81106920I85104597I89276915
397I92483696I94405840I95636486I96273162I95127587I91183900I85517766
390I80814331I79128362I80834750I85114219I90298381I94312256I96114305
383I96570389I97208381I98363994I98852472I96955316I91121257I79896278
376I62610548I41826209I24600837I18701642I26335259I42650539I60569485
369I75876726I87889903I97314286A004701137A010350243A014636011A018041658
362A020999458A023765313A026364004A028664431A030632952A032496883A034539537
355A036746449A038777128A040353939A041612133A042934356A044504867A046250918
348A048133954A050140337A052035209A053528541A054643453A055505299A055795120
341A054788051A051954292A047354824A041514396A034834409A027015079A017747131
334A008664413A003495480A004689093A010670935A017990228A025115846A032403990
327A039543868A045110534A048147936A048827321A047762178A045297287A041477572
320A036827089A033026616A032048343A034432525A038935017A043724976A047462044
313A049692629A050996162A052659081A055682293A059948125A064416562A068082471
306A070639494A072340414A073453802A073741822A072194154A067351242A057949355
299A043404630A024814259A006305843I93702989I89581894I89944533I87189752
292I76387495I58732550I40606776I30205435I33187808I49247946I72511919
285I95858471A015212606A030363274A042771691A053202173A061069474A064960623
278A062729555A051298580A027872426I92492210I49809520I08737005H78991220
271H64215441H57588201H48303502H34369012H24998827H27063632H32493106
264H24952658G99331222G68342124G45907395G29376152G04363013F63266548
257F11995918E61032102E17050240D82581881D57952977D42481546D36785614
250D43916562D65962038E00076169E39592017E78298763F12843783F42487816
243F67973029F90437799G10723345G29189261G45530567G57980653G62230773
236G52045949G24003230F84147932F47705410F27901282F24798953F26298377
229F19102570E98188653E68363959E40292721E25087370E29247505E51653992
222E84915898F20491727F52979072F79938513F99467633G09908222G11997184
215G10264423G11131322G18473181G30880352G44630788G58690703G74271637
208G88995916G98882613H05392320H11481106H18556817H27070277H36930048
201H47286051H56978381H65588540H73564722H81292338H88522061H94992106
194I01185066I07625623I13484602I16350271I13229322I02421803H85241216
187H64061637H37823111H04183755G69041098G47890452G52255405G78275890
180H11946119H41664494H63168018H77019099H85571876H91210530H95762099
173I01307722I09871159I20900317I30263233I31801695I19380543H91109886
166H54676224H25061332H13050717H17693171H31531584H49285720H69052539
159H89116653I07416512I22942556I35703852I45753145I52814943I55568269
152I49923455I30482727H98373734H66772878H52529879H61352333H84653270
145I10262523I31533265I46421178I52889838I46681580I23777615H87850152
138H54156804H38890886H43758024H56658727H66352442H71956971H79144747
131H91571231I07845671I24433604I39036957I51444751I62434870I71943423
124I77292049I73108449I55015209I25489056H95375510H77748114H79269965
117H96571270I20299634I41948450I56683250I60643065I47650578I12457945
110H59796703H09305204G85991809G98350734H32160301H69073305H99426210
103I19032579I24316901I15313577I00086075H90886516H95265314I10545145
96I26115558I30262680I14848562H76946627H22362689G69767829G41080819
89G42822994G65066055G94679147H24072053H50834704H73697138H91510318
82I04845993I15832858I26366200I36919269I46666421I54612562I60377610
75I64328703I67862890I72707186I78930811I84696966I88901055I92652590
68I96913300A001116905A004680787A007816826A010314942A009945450A001519621
61I78222977I39128880H96660008H66969737H58264748H71665005I00696449
54I33130218I59718921I78934825I93861640A006374231A015618299A021727227
47A027579007A036026294A047283944A058372422A063935489A055608020A021255845
40I53299130H63423645G84270884G50374032G68834825H14335492H60889327
33H99525261I28190122I46601355I58340562I66833394I74398070I83117387
26I93102306A002004570A007996311A011121690A011507171A009642063A008924123
19A014698100A027114270A036940885A039796171A041899462A046562958A049925551
12A047432765A040481508A035251525A035210478A036580531A034545836A029889331
5A024866173A020296607A017835662A020023677A025132390
##END=


$$ === CHEMSPECTRA PEAK TABLE EDIT ===
##TITLE=X8796
##JCAMP-DX=5.00
##DATA TYPE=INFRAREDPEAKTABLE
##DATA CLASS=PEAKTABLE
##$CSTHRESHOLD=0.93
##MAXX=3997.453
##MAXY=0.9246007794362787
##MINX=373.96442
##MINY=0.3761167823366701
##$CSSOLVENTNAME=- - -
##$CSSOLVENTVALUE=0
##$CSSOLVENTX=0
##NPOINTS=56
##PEAKTABLE= (XY..XY)
424.95956811571523, 0.6461482645461706
453.2902059577791, 0.7390531305611018
500.03575839718496, 0.638145864148594
512.7845454261137, 0.7671437865282953
525.5333324550429, 0.6768187885969582
541.115183268178, 0.7558302878074201
566.6127573260355, 0.7223702673821999
582.1946081391711, 0.7341148258041088
604.8591184128222, 0.7001192570288328
631.7732243627834, 0.6440096498841141
677.1022449100856, 0.6116098168630884
691.267563831118, 0.4521535639450446
728.097393025801, 0.3761167823366701
750.7619032994526, 0.7104077934278467
780.5090730336465, 0.8035694959055366
821.5884979046391, 0.8907514816808895
845.6695400703934, 0.8685625197240725
900.914283862392, 0.7910954354747943
922.1622622439659, 0.844598352943905
966.0747508991399, 0.7127834564383533
1011.4037714464421, 0.7786046868954316
1026.9856222595777, 0.7691903709589891
1075.1477065910867, 0.7405858044022422
1104.8948763252538, 0.7878676056742817
1145.9743011962469, 0.6413515808605322
1157.3065563330724, 0.6861658697220343
1204.0521087724783, 0.7345506551467942
1255.0472568881937, 0.653779029862749
1290.460554190774, 0.6625822788405699
1307.4589368960123, 0.703359723495032
1330.1234471696635, 0.6816060544146161
1348.5383617670054, 0.6711409689419596
1374.035935824863, 0.67281275977106
1391.0343185301012, 0.7455977204278016
1415.115360695856, 0.664425849962763
1439.1964028616103, 0.5408490304684213
1463.277445027365, 0.6139124033491099
1480.2758277326034, 0.7164685725107218
1493.0246147615321, 0.675457358582626
1521.3552526035965, 0.5898743867752384
1556.7685499061968, 0.8555269840358023
1596.4314428850662, 0.6693717246637457
1614.8463574824277, 0.8460192678553835
1657.342314245504, 0.5955805185890858
1738.0846320954056, 0.8953595763705936
1881.1543531978282, 0.892524302113965
2783.4851684675627, 0.8363024598504107
2850.062167396413, 0.8200644856639173
2922.3052938936758, 0.7966444498332533
2959.135123088359, 0.8201540712278942
3029.9617176935103, 0.7790008185941775
3059.7088874276856, 0.7971809505616566
3085.206461485543, 0.8248339301232755
3131.9520139249485, 0.8257496358766665
3188.613289609076, 0.8113839031894723
3282.104394487881, 0.7106172443317595
##END=


$$ === CHEMSPECTRA PEAK TABLE AUTO ===
##TITLE=X8796
##JCAMP-DX=5.00
##DATA TYPE=INFRAREDPEAKTABLE
##DATA CLASS=PEAKTABLE
##$CSTHRESHOLD=0.93
##MAXX=3997.453
##MAXY=0.9246007794362787
##MINX=373.96442
##MINY=0.3761167823366701
##NPOINTS=140
##PEAKTABLE= (XY..XY)
3993.2034043236904, 0.8369339710827448
3977.6215535105553, 0.838197946786862
3949.290915668491, 0.8377074004664786
3936.542128639562, 0.837496757797979
3928.042937286943, 0.8387939935506238
3918.1272140422207, 0.8377774364412848
3911.0445545817042, 0.8384971029478714
3902.545363229085, 0.8377741573664682
3892.6296399843627, 0.8375614291099418
3881.297384847537, 0.8377388720070245
3871.381661602815, 0.837535679589395
3858.6328745738856, 0.8384414318696228
3848.7171513291632, 0.838868260978594
3838.801428084441, 0.8370705245713012
3831.718768623925, 0.839513123590926
3823.2195772713058, 0.838488578903331
3817.553449702893, 0.8383266926673926
3809.054258350274, 0.8394947649052404
3801.9715988897574, 0.8404905789386188
3792.055875645035, 0.8421368604945133
3779.3070886161063, 0.8419008850786317
3773.6409610476935, 0.8419604896688977
3760.8921740187648, 0.8412815334617089
3750.976450774042, 0.8411416414823267
3746.7268550977324, 0.8404078486043203
3736.81113185301, 0.8389965298088493
3724.0623448240813, 0.8405806424139726
3712.7300896872557, 0.8432447313987003
3701.39783455043, 0.8439747690127164
3688.649047521501, 0.8415965442250092
3675.900260492572, 0.8410004380452384
3658.901877787334, 0.8457525373354706
3650.4026864347147, 0.8409311770618543
3630.5712399452696, 0.8430028557147925
3620.655516700547, 0.8440532687549523
3602.2406021032057, 0.8442295793034573
3586.6587512900705, 0.8459610341388328
3576.7430280453477, 0.8463930488015189
3565.410772908522, 0.8448926809083552
3546.9958583111807, 0.8452815414653596
3537.0801350664583, 0.8476556544930223
3528.5809437138387, 0.8477624655330055
3522.914816145426, 0.8475359682622149
3510.166029116497, 0.8469510081812957
3498.8337739796716, 0.8479236964706415
3484.6684550586397, 0.8480148914334714
3474.7527318139173, 0.8489958643811185
3469.086604245504, 0.8483814597927727
3459.1708810007817, 0.8500065806384404
3447.838625863956, 0.8498336671356684
3442.1724982955434, 0.8499419093264776
3420.924519913995, 0.8515711427932913
3411.0087966692727, 0.8513836267299257
3396.8434777482407, 0.8530346159281582
3385.511222611415, 0.8524469140998082
3364.2632442298673, 0.8525105124792023
3358.597116661454, 0.852538168478647
3345.8483296325253, 0.8509023777233017
3282.104394487881, 0.7106172443317595
3191.446353393276, 0.8102796678561561
3129.118950140735, 0.8251230716729094
3122.036290680219, 0.8259924053840143
3083.789929593432, 0.8244032269182958
3058.2923555355746, 0.7967205049081038
3029.9617176935103, 0.7790008185941775
2980.383101469898, 0.8284733897287708
2954.8855274120406, 0.8193735480893443
2927.97142146208, 0.7974346879198289
2920.888762001564, 0.7964793447996089
2912.3895706489443, 0.7967042326715464
2872.7266776700544, 0.8258594280503196
2852.8952311806097, 0.8191802505899706
2821.7315295543394, 0.8381504415348966
2811.815806309617, 0.837846935088705
2783.4851684675527, 0.8363024598504107
2748.0718711649724, 0.8435498481048465
2738.15614792025, 0.8446537260810069
2723.990828999218, 0.8440948126006794
2709.825510078186, 0.844446003407965
2698.4932549413606, 0.8449108604849123
2681.494872236122, 0.8461951616307238
2674.412212775606, 0.847061872426416
2644.6650430414384, 0.8500039577230276
2627.6666603362, 0.8511263734940023
2606.418681954652, 0.8541311624854665
2585.1707035731038, 0.8567503691336414
2575.2549803283814, 0.8580518966165609
2568.1723208678654, 0.8577474954858277
2552.59047005473, 0.8572046165780215
2538.425151133698, 0.8595984583039835
2532.759023565285, 0.8592062592561536
1657.342314245504, 0.5955805185890858
1614.8463574824077, 0.8460192678553835
1596.4314428850662, 0.6693717246637457
1555.352018014073, 0.853587925359403
1521.3552526035965, 0.5898743867752384
1493.0246147615321, 0.675457358582626
1480.2758277326034, 0.7164685725107218
1463.277445027365, 0.6139124033491099
1451.945189890539, 0.7279456856984065
1439.1964028616103, 0.5408490304684213
1415.115360695856, 0.664425849962763
1391.0343185301012, 0.7455977204278016
1374.035935824863, 0.67281275977106
1348.5383617670054, 0.6711409689419596
1330.1234471696635, 0.6816060544146161
1307.4589368960123, 0.703359723495032
1290.460554190774, 0.6625822788405699
1255.0472568881937, 0.653779029862749
1204.0521087724783, 0.7345506551467942
1174.3049390383107, 0.7856572276676497
1157.3065563330724, 0.6861658697220343
1145.9743011962469, 0.6413515808605322
1104.8948763252538, 0.7878676056742817
1075.1477065910867, 0.7405858044022422
1026.9856222595777, 0.7691903709589891
1011.4037714464421, 0.7786046868954316
1001.4880482017197, 0.8272538175887278
984.4896654964814, 0.8571320773809222
966.0747508991399, 0.7127834564383533
943.4102406254883, 0.8408746724372762
923.5787941360436, 0.843128979541012
900.914283862392, 0.7910954354747943
790.424796278342, 0.8521305324627925
781.9256049257228, 0.8010013698030872
750.7619032994526, 0.7104077934278467
728.097393025801, 0.3761167823366701
699.7667551837371, 0.5380153656106457
691.267563831118, 0.4521535639450446
677.1022449100856, 0.6116098168630884
631.7732243627834, 0.6440096498841141
604.8591184128222, 0.7001192570288328
582.1946081391711, 0.7341148258041088
566.6127573260355, 0.7223702673821999
541.115183268178, 0.7558302878074201
525.5333324550429, 0.6768187885969582
512.7845454261137, 0.7671437865282953
500.03575839718496, 0.638145864148594
453.2902059577791, 0.7390531305611018
424.95956811571523, 0.6461482645461706
##END=

##END=

