##TITLE=X7390
##JCAMP-DX=4.24
##DATA TYPE=INFRARED SPECTRUM
##DATE=29/10/2018
##SAMPLING PROCEDURE=Diamant-ATR
##ORIGIN=ComPlat
##XUNITS=1/CM
##YUNITS=TRANSMITTANCE
##RESOLUTION=4
##FIRSTX=3997.453
##LASTX=373.96442
##DELTAX=-1.4165319
##MAXY=0.97932196
##MINY=0.12925747
##XFACTOR=1
##YFACTOR=9.1206465e-010
##NPOINTS=2559
##FIRSTY=0.93272167
##XYDATA=(X++(Y..Y))
3997+1022648644+1023139694+1023648781+1023657538+1023286865+1022990236
3989+1023024153+1023361039+1023817845+1024107874+1024030694+1023750206
3980+1023633685+1023752690+1023808369+1023588788+1023229683+1022986445
3972+1022978472+1023212103+1023626039+1024042523+1024221259+1024013311
3963+1023466124+1022876720+1022701252+1023185571+1024025205+1024503315
3955+1024094477+1023049509+1022299472+1022630607+1023917114+1025211920
3946+1025728522+1025588735+1025495740+1025866086+1026341191+1026373670
3938+1025933202+1025239759+1024418162+1023808042+1023995339+1024928556
3929+1025675914+1025652322+1025166174+1024746879+1024551152+1024313992
3921+1023726614+1022870643+1022219547+1022081852+1022206346+1022310516
3912+1022585645+1023314705+1024251059+1024727339+1024458092+1023938287
3904+1023877903+1024332095+1024907905+1025524364+1026120957+1026365371
3895+1026124682+1025643369+1025292106+1025262894+1025342688+1025237015
3887+1024948880+1024549061+1023861565+1022826008+1021959057+1021944418
3878+1022680732+1023464817+1023883131+1023769093+1023197922+1022859729
3870+1023529253+1024766093+1025432284+1025424769+1025292171+1025033903
3861+1024360718+1023621007+1023304445+1023260659+1023083034+1023008011
3853+1023827255+1025103567+1025796487+1026010840+1026046391+1025898631
3844+1025533448+1025058213+1024637351+1024440905+1024619836+1025123499
3836+1025688723+1026111023+1026207220+1025824000+1025147156+1024660942
3827+1024617222+1024716883+1024509981+1024163946+1024387905+1025178460
3819+1025508941+1025339420+1025602394+1026328513+1026469671+1025504171
3810+1023746285+1022027741+1021640404+1023038073+1024575202+1024755441
3802+1024126303+1024164926+1025270278+1026843743+1028338132+1029193581
3793+1029205932+1028760563+1028135869+1027302640+1026484179+1026213560
3785+1026613314+1027134752+1027301398+1027209253+1027143248+1027077047
3776+1026752643+1026150038+1025612458+1025577103+1026112461+1026639324
3768+1026614490+1026440721+1026825444+1027648283+1028199391+1028154037
3759+1027732521+1027247222+1026822307+1026427128+1025966531+1025477507
3751+1025367979+1025900853+1026522083+1026800545+1026886744+1026875046
3742+1026486467+1025544819+1024142314+1022634855+1021767577+1022060417
3734+1022946908+1023916591+1025329879+1027125734+1028634238+1029350293
3725+1029156918+1028263304+1027264605+1026748330+1026681018+1026676574
3717+1026642983+1026663961+1026736174+1027003984+1027734873+1028689852
3708+1029330165+1029511711+1029252593+1028629206+1028029543+1027933607
3700+1028229648+1028355450+1028067054+1027619594+1027553850+1028358913
3691+1030084319+1031955589+1032527152+1031346646+1029465050+1027681416
3683+1026111611+1024792887+1023899142+1023526509+1023762427+1024928556
3674+1026640631+1027552608+1027477912+1027451379+1028332446+1029630258
3666+1030306710+1029957734+1028805786+1027423997+1026264534+1025479468
3657+1025339355+1026085602+1026963335+1026768915+1025432154+1024274128
3649+1024703421+1025695258+1025584226+1025003580+1025045927+1025862623
3640+1026924190+1027668672+1027788069+1027158017+1025905297+1024473907
3632+1023379860+1023085714+1023991483+1025536912+1026192516+1025595924
3623+1024514621+1023924564+1024567882+1026284662+1027740820+1027891978
3615+1026994835+1025837789+1025170160+1025425749+1026612595+1028328525
3606+1029692995+1029907479+1029024190+1027754675+1026703629+1025923661
3598+1025279297+1024838175+1024574025+1024230604+1023747854+1023394564
3589+1023548924+1024565072+1026292243+1027778528+1028238798+1027621162
3581+1026433924+1025547760+1025450452+1025596055+1025239825+1024621209
3572+1024426723+1024626437+1024837914+1025230153+1026002605+1026330538
3564+1025536454+1024250863+1023401165+1023344832+1023858232+1024432801
3555+1024550303+1023989784+1023091138+1022498859+1022459975+1022712623
3547+1022893908+1022718570+1022244773+1022197785+1023301700+1025144216
3538+1026280414+1025733750+1024065919+1022538266+1021682882+1021235814
3530+1020881740+1020527601+1020118959+1019652089+1019404538+1019774623
3521+1020680785+1021464086+1021581065+1021154059+1020713526+1020493749
3513+1020160523+1019366700+1018428843+1018055491+1018376300+1018820232
3504+1018985636+1019033408+1019157837+1019101766+1018506546+1017507324
3496+1016728336+1016637105+1017055550+1017478830+1017643777+1017593718
3488+1017442560+1017302251+1017278202+1017373942+1017463669+1017426876
3479+1017262060+1017104171+1017191219+1017628289+1018073266+1018001445
3471+1017421779+1016818063+1016342697+1015751268+1015126182+1014860006
3462+1014924573+1014969666+1015060504+1015596581+1016597176+1017554181
3454+1017972887+1017921978+1018027716+1018765533+1019713781+1019849712
3445+1018807750+1017419949+1016802771+1017226444+1017880218+1017774088
3437+1016866815+1016053779+1016012281+1016470525+1016776892+1016779963
3428+1016867011+1017375641+1018147767+1018572420+1018156916+1017171222
3420+1016449351+1016372824+1016482811+1016247154+1015698399+1015178267
3411+1014909869+1015013321+1015576976+1016453533+1017200564+1017437659
3403+1017199388+1016814011+1016504442+1016230424+1015850798+1015295573
3394+1014637028+1014154146+1014234921+1014950649+1015793354+1016088089
3386+1015672846+1015004367+1014659312+1014886212+1015456337+1015785577
3377+1015443202+1014621409+1013808569+1013144468+1012419918+1011518658
3369+1010578121+1009847036+1009368729+1008766517+1007786443+1007104763
3360+1007781476+1009742278+1011646616+1012426584+1012244515+1011886390
3352+1011934684+1012580617+1013612907+1014490706+1014798445+1014638204
3343+1014350397+1014016974+1013499653+1012763078+1011967883+1011489903
3335+1011849074+1013211976+1015009922+1016450658+1017314603+1017931519
3326+1018591764+1019342389+1020140721+1020855338+1021252478+1021268358
3318+1021202419+1021418078+1021942654+1022517419+1022795685+1022346590
3309+1020923630+1019082291+1018100648+1018839968+1020818153+1022544278
3301+1022795750+1021627595+1020118306+1019174894+1018856437+1018840033
3292+1019064319+1019680648+1020635888+1021557734+1022045190+1021986308
3284+1021600474+1021312405+1021543618+1022326593+1023097869+1023229552
3275+1022719681+1022018330+1021461341+1021299204+1021825805+1022904037
3267+1023730274+1023646428+1022987752+1022641129+1022851299+1022967559
3258+1022448473+1021602108+1021025055+1020789399+1020619485+1020465387
3250+1020461466+1020621184+1020893307+1021284435+1021786856+1022461478
3241+1023458151+1024510830+1024706166+1023459720+1021564400+1020549428
3233+1021078121+1022456380+1023520627+1023659760+1023145968+1022716871
3224+1022771178+1022982785+1022858879+1022484874+1022363451+1022621197
3216+1022871754+1022891228+1022906847+1023050620+1023020036+1022583685
3207+1022057607+1021916317+1022098778+1022044275+1021473431+1020864291
3199+1020889059+1021550807+1022203732+1022286467+1021705820+1020707448
3190+1019718290+1019128364+1018997007+1019114117+1019343892+1019661238
3182+1019935518+1019977408+1019774231+1019478973+1019194042+1018916298
3173+1018614571+1018245532+1017826369+1017560781+1017622734+1017779381
3165+1017639203+1017283495+1017153315+1017329111+1017408251+1017009020
3156+1016080443+1014986134+1014445156+1014942022+1016091879+1016970593
3148+1017031501+1016412231+1015558939+1014803673+1014130359+1013326733
3139+1012453835+1011882599+1011680598+1011349202+1010343967+1008550073
3131+1006216769+1003731850+1001436972+999387162+997348070+995164878+993009525
3121+991187268+989818158+988716400+987543866+986094569+984371581+982347128
3111+979894688+977122680+974529997+972497178+970699624+968401806+965407342
3101+962301781+959498405+956527272+952674549+947845804+942292705+935980288
3091+928975017+922271211+917551146+915952260+917260332+920264664+923652935
3081+926554926+928551540+929483189+929340069+928301963+926759018+925030541
3071+922879109+919485937+914355073+908416205+903907289+902620456+904113015
3061+905926384+905724710+903203913+900153443+899010644+901311469+906991023
3051+914650004+922429558+929000308+934033995+937741768+939966132+939944174
3041+937091653+931744476+924775540+916696350+907431687+896485403+883016296
3031+866951173+851080078+840972252+841311164+852315480+869927012+889022411
3021+906249089+920466011+931530712+939355881+944109341+946473034+947000615
3012+945639347+942480132+938592708+935617261+934672739+935706662+937631978
3002+939084607+939210082+937854172+935343897+932453211+930446990+930658402
2992+933693253+938975797+945055171+950402610+953974975+955053926+952878968
2982+947054268+938548269+929888629+923827815+921468109+921585741+921903937
2972+921249182+920551491+921718600+925690132+931754409+938539577+945208616
2962+951511687+957128635+961540111+964496671+966197766+967055764+967560015
2952+968164450+968992124+969828687+970536834+971161854+971555073+971280271
2942+970012259+967731497+964488894+960267525+955164761+949484750+943565553
2932+937770784+932821335+929848437+929756161+932496408+937020028+941915627
2922+946102818+948994876+950207274+949487299+947167784+944451586+942919947
2912+943659136+946722610+951208195+955877549+959908158+963175986+965946621
2902+968432848+970564477+972043836+972684998+972742376+972761785+973024629
2893+973296490+973222120+972797598+972263220+971686299+970855226+969510230
2883+967549297+965095681+962424968+959744256+957108245+954705864+953111030
2873+952996731+954594440+957530807+961127679+964732263+967887621+970483442
2863+972833933+975411194+978380563+981470701+984298976+986733575+988942254
2853+991096169+993006846+994197351+994426930+993930783+993072262+992062257
2843+991069701+990275813+989773850+989614392+989858806+990484153+991420507
2833+992709693+994362559+996078359+997403096+998178881+998621375+998930356
2823+999052498+998903562+998623662+998434797+998418002+998641503+999314230
2813+1000545253+1002071860+1003455152+1004493781+1005336029+1006212587
2805+1007114108+1007755270+1007868459+1007505367+1007037190+1006858192
2796+1007050064+1007341792+1007427664+1007235923+1006866950+1006497584
2788+1006388055+1006725464+1007396426+1008103920+1008676397+1009124708
2779+1009494139+1009825470+1010189412+1010588316+1010808942+1010533094
2771+1009716660+1008767366+1008280172+1008675025+1009982509+1011746211
2762+1013257853+1014142056+1014602653+1015018353+1015565147+1016247546
2754+1016967914+1017527779+1017777878+1017742981+1017536274+1017282711
2745+1017146257+1017230430+1017382307+1017282384+1016869952+1016551103
2737+1016773951+1017493077+1018280887+1018848529+1019154177+1019143394
2728+1018814742+1018453023+1018389697+1018573008+1018690967+1018623786
2720+1018498442+1018418387+1018375712+1018314609+1018173384+1017977657
2711+1017899040+1018101302+1018594247+1019268608+1019937871+1020392258
2703+1020597854+1020762408+1021082695+1021558714+1022112632+1022705630
2694+1023265822+1023636691+1023711714+1023606825+1023549186+1023523176
2686+1023256934+1022714518+1022304308+1022354106+1022686679+1022936909
2677+1022995986+1022934360+1022797318+1022703801+1022886850+1023407831
2669+1024021480+1024476129+1024777006+1025067166+1025421697+1025784659
2660+1026000514+1025970845+1025839292+1025895168+1026299366+1027008820
2652+1027822183+1028413090+1028573788+1028493210+1028520200+1028676521
2643+1028671750+1028321532+1027711870+1027009016+1026271134+1025446792
2635+1024567163+1023958677+1024093366+1025072198+1026393472+1027446609
2626+1028119989+1028622541+1028900611+1028733442+1028328656+1028206449
2618+1028474977+1028782129+1028965635+1029166133+1029336177+1029248149
2609+1028990207+1028923810+1029143064+1029415318+1029622677+1029867549
2601+1030145946+1030267760+1030191953+1030217701+1030637061+1031290509
2592+1031714116+1031705751+1031473493+1031227641+1030881017+1030218028
2584+1029254880+1028398320+1028110644+1028352836+1028615744+1028562679
2575+1028270232+1027903153+1027659458+1027835449+1028407469+1028902310
2567+1029186261+1029790238+1030885265+1031613933+1031108767+1029656791
2558+1028218669+1027276630+1026742971+1026555805+1026726371+1027053782
2550+1027256567+1027240294+1027051690+1026810479+1026756564+1027108219
2541+1027869824+1028872183+1029835331+1030476689+1030871803+1031519435
2533+1032712423+1034167013+1035469073+1036381640+1036635203+1036094682
2524+1035194075+1034572845+1034360388+1034376399+1034758835+1035705776
2516+1036765513+1037047243+1036223424+1034971750+1034345292+1034835558
2507+1036007438+1037015286+1037509408+1037864461+1038386357+1038724224
2499+1038463472+1037908966+1037747548+1038189715+1038840222+1039200504
2490+1039003731+1038264608+1037297408+1036639581+1036775577+1037762448
2482+1039048824+1039813500+1039726452+1039289447+1039143648+1039181225
2473+1038772191+1037810154+1036979147+1036863475+1037215196+1037321522
2465+1036908763+1036451500+1036466858+1036698986+1036426078+1035516388
2456+1034581733+1034055916+1033833591+1033860908+1034312551+1035036513
2448+1035504559+1035502664+1035349154+1035320726+1035316805+1035178064
2439+1034946720+1034699104+1034424040+1034163419+1034031213+1034041408
2431+1034121333+1034277130+1034524747+1034753738+1034902739+1035091996
2422+1035355885+1035574877+1035872879+1036534366+1037313027+1037484770
2414+1036836616+1035998027+1035689569+1036112392+1036989146+1037843876
2405+1038396813+1038756050+1039016083+1038925832+1038324535+1037558748
2397+1037078742+1036936865+1036962286+1037148864+1037646253+1038465302
2388+1039215600+1039163450+1037871258+1035910391+1034528472+1034382542
2380+1034983970+1035569518+1036000314+1036513519+1037153047+1037797019
2371+1038302446+1038483404+1038227488+1037535091+1036518028+1035768840
2363+1036193428+1037783426+1039255203+1039470340+1038532940+1037243624
2354+1036092525+1034980049+1033780722+1032847112+1032667004+1033300847
2346+1034317583+1035233351+1035935159+1036428693+1036543449+1036343997
2337+1036374189+1037037636+1038007189+1038638221+1038819114+1038938315
2329+1039082218+1038947202+1038546010+1038318784+1038497912+1038839177
2320+1039060522+1039157503+1039240565+1039414987+1039751612+1040129343
2312+1040253772+1040021774+1039706650+1039705931+1040231748+1041158365
2303+1042039954+1042466503+1042560478+1042860963+1043555844+1044076237
2295+1043671516+1042284761+1040733385+1039986746+1040289453+1041117782
2286+1041925590+1042518457+1042683273+1042198497+1041414215+1041045830
2278+1041190191+1041287303+1041097850+1041015638+1041442643+1042344884
2269+1043322670+1043930503+1044128714+1044349536+1044846664+1045203743
2261+1044840259+1043784574+1042511791+1041187316+1039719002+1038468046
2252+1037963991+1037941315+1037878773+1038375966+1040451329+1043505720
2244+1045600687+1045962407+1045829482+1046500771+1047673501+1048257546
2235+1048033391+1047656771+1047526134+1047594949+1047897722+1048482159
2227+1049352050+1050884408+1053535843+1056992994+1060153646+1061701427
2218+1060702532+1057550506+1054203341+1052615631+1053306460+1055682112
2210+1058711211+1061110912+1062012303+1061639409+1060832058+1060223833
2201+1060025361+1060060128+1059934066+1059432363+1058687881+1057925492
2193+1057100170+1055833727+1054007614+1052263452+1051267433+1050806248
2184+1050591438+1051385457+1053952850+1057461171+1060152535+1061022231
2176+1060007782+1057456792+1054455467+1052877690+1053788491+1056038864
2167+1057547304+1057853802+1058295185+1060140968+1063612888+1067594223
2159+1069473400+1067559979+1063885534+1061926432+1062930098+1065484943
2150+1067288509+1067136959+1065637342+1063913309+1062178819+1060301471
2142+1058540906+1056778772+1054601593+1052970554+1053860704+1057316548
2133+1060712465+1061762792+1060652538+1058835314+1057221593+1055872480
2125+1054677465+1053945923+1054162954+1055037486+1055358034+1054409264
2116+1052994015+1052323837+1052461794+1052583935+1052250447+1051689210
2108+1051178424+1050744426+1050327484+1049998244+1049992297+1050402573
2099+1050828402+1050774030+1050575101+1051312068+1053406578+1055932930
2091+1057692123+1058298518+1057966141+1057030898+1055942275+1054973311
2082+1053901549+1052735485+1052375987+1053479837+1055141133+1055960247
2074+1056015207+1056390847+1057174540+1057462674+1057190290+1057496657
2065+1059081165+1061139536+1062137190+1061137380+1058445885+1055429529
2057+1053626681+1053634719+1054464420+1054018724+1051072751+1047239241
2048+1046018086+1049049016+1054483568+1059745919+1064081980+1067693361
2040+1069959484+1069666710+1066814581+1063390890+1061542754+1061449432
2031+1062029556+1062712151+1063148240+1062726855+1061918067+1062549884
2023+1065260330+1067770933+1067240541+1063848676+1060731940+1060728280
2014+1064245751+1069462356+1073329979+1073741823+1071708285+1069807542
2006+1068610501+1066816150+1064212618+1062293249+1062391864+1064121583
1997+1065373976+1064110408+1060358653+1056078598+1053276398+1052409774
1989+1052353703+1051752405+1050252265+1048393477+1046706628+1045549125
1980+1045713418+1048285582+1052943041+1056672903+1056181265+1051523675
1972+1045271774+1039057189+1033187789+1028529611+1026240354+1026184870
1963+1027490525+1029947866+1033796602+1038766310+1043751245+1047157487
1955+1047790415+1046002663+1043874563+1043518986+1044929987+1046136307
1946+1045890651+1045273669+1046062002+1048612404+1052167647+1056316869
1938+1060846893+1064793395+1066865621+1066824319+1065782357+1065107081
1929+1065393712+1066266218+1066832095+1066588988+1065956910+1065542779
1921+1065157663+1064465593+1064069890+1064754119+1065952140+1066370976
1912+1065757785+1065165636+1065542779+1066527623+1067226883+1067512403
1904+1067640099+1067381177+1066401626+1064944226+1063502379+1062226133
1895+1061023734+1059981119+1059438637+1059590775+1060112279+1060547453
1887+1061082877+1062019884+1062628697+1061666203+1059182983+1056787268
1878+1055869605+1056324188+1057107228+1057464961+1057388304+1057102654
1870+1056395879+1054846529+1052897752+1051591248+1051204042+1051303833
1861+1051636014+1052427419+1053988532+1056318634+1059054044+1061585690
1853+1063328022+1064090607+1064195757+1064174453+1064316330+1064467226
1844+1064276793+1063701766+1063067401+1062620855+1062387551+1062139085
1836+1061444466+1060134956+1058496336+1056811056+1055168646+1053773068
1827+1052760384+1051645229+1049623585+1046565600+1043269997+1040680254
1819+1039433743+1039738868+1041224762+1043236799+1045304254+1047077889
1810+1048199710+1048696184+1049003728+1049271407+1049221478+1048718600
1802+1048007250+1047404515+1047020837+1046734533+1046281322+1045413456
1793+1044079831+1042598904+1041564327+1041259006+1041459242+1041746527
1785+1041823968+1041779268+1041871217+1042026949+1041933889+1041566027
1776+1041166861+1040853828+1040581247+1040268999+1039787882+1039056012
1768+1038135212+1037065018+1035764723+1034126300+1032144259+1030031254
1759+1027983470+1025818968+1023291505+1020619028+1018114830+1015465879
1751+1012020621+1007991842+1004487377+1001801502+999238488+996130705+992038535
1741+986445637+979283653+971451753+963089526+951955619+935993554+918890848
1731+904958204+892968782+881063860+868533721+854060491+836247677+815770097
1721+794094496+770100621+740082073+702629678+662450173+623347461+586023548
1711+553210053+529543425+518685268+522227670+537361504+556507747+577426775
1701+607951993+651449778+693640079+726053362+752836758+772403080+782533517
1691+786540273+787570406+786865461+785050916+781566383+774889437+765585824
1681+755036027+742627572+727047618+704854369+670954016+626707239+580383923
1672+532895263+478533308+421769855+375946837+342416960+314090521+287771348
1662+266260220+251505832+240726750+230938574+220091706+202995534+174935059
1652+150748087+141719637+141845013+148050498+159843719+173938598+188510312
1642+204316072+220948266+236773435+250965409+263926017+276191810+288336670
1632+301556886+317124522+335279974+354382758+372776513+391601913+412757448
1622+434274637+452700643+469113076+487566823+508103089+524275095+533281881
1612+537561218+538620399+536820493+534274732+535090382+541957337+553694306
1602+566711051+578855878+591157549+605613657+622794328+641681322+660610010
1592+678121228+692689936+701914931+704209286+702454406+703688174+713124254
1582+729126313+745403697+757742683+766906836+775911924+785116986+792095856
1572+797007662+802318569+809648245+817728611+824859161+831369788+837423740
1562+842355609+847082537+855927252+870220505+880623849+884984025+886839219
1553+887306350+886178517+883748493+881245210+880126983+881419110+885371885
1543+891407800+899744736+910518623+919360528+923794551+925966176+928352219
1533+931900927+935501851+938209553+940552137+943311336+946416309+949481286
1523+953073715+957798813+962405886+965508441+967371215+968194577+967156928
1513+963364328+956555177+947241369+937272088+931526398+933432370+935589291
1503+929948360+910698208+872284234+818183326+772398766+763754549+789032642
1493+825293290+859894209+889569990+911953934+926004080+933697239+936971145
1483+936788227+933989164+929482209+923779847+916694193+907553175+895141910
1473+878143309+858827937+843015200+832474291+824083702+812195444+789865284
1463+754728614+710929102+659676662+592859755+502413242+413813330+362723484
1453+340775008+329159559+319017849+308634926+302014738+305836680+323154131
1443+351529453+384810765+416340825+445145636+478099506+521075068+567013432
1434+606993943+642798503+678308655+711779258+738794586+758974621+774672470
1424+786434796+792702447+791377122+779734389+757196804+728656763+699498957
1414+674717991+662362798+669582552+694984095+729585079+765032887+796616927
1404+820835675+835609717+840931996+837302382+827346433+818455645+818589484
1394+827968316+837964326+840175358+830615829+807171756+770835040+726124334
1384+674212107+613174415+548390719+496214276+472751087+481819696+515960085
1374+562123387+606216523+639788224+660456107+666716504+659554847+647382180
1364+644106183+660709736+694308885+730372367+758590748+776514855+783406284
1354+777091907+753646592+708380857+640600803+560744931+490553086+451650643
1344+452060233+483614407+530150409+573788928+597404614+592271855+563426035
1334+524189060+489434597+470985359+473046279+490782142+514029737+533558808
1324+546562155+557948940+575507014+602821652+636188803+667729973+691533740
1315+706610947+715234840+720537056+725466573+732594835+743882057+760009264
1305+779767391+800335222+818401468+831329009+837956549+839180841+837861463
1295+837181221+838421851+840388142+840713853+837317870+828938783+815125863
1285+796690970+776858669+761448888+756170853+762519866+776566025+792010768
1275+804201472+811737135+815519409+816866757+816094239+812684860+806931198
1265+800631655+794749708+786213190+768682563+738110815+696918886+650923438
1255+603052277+553070463+504508994+469018872+460067209+481951640+526669012
1245+580779234+633517110+679634699+717951888+749080886+774009023+793478167
1235+807679666+815958243+816366689+805491834+780099376+741369886+698436671
1225+665686306+653823600+663010168+685088856+711142866+735830772+756435918
1215+770720087+776349386+771535345+756299334+733835073+710496868+693478661
1205+687243359+691006616+699110051+703979249+699520458+683232813+656941709
1196+626641626+601119641+588722689+593331396+612578280+639983690+668868654
1186+694882800+716463838+734181435+749571740+763792257+776837495+787999438
1176+797107715+805047837+812816020+820262217+825877465+827528044+823535143
1166+813543577+798465977+780082515+761738983+748898556+746810516+756778163
1156+775492695+797822136+819492247+837997590+852623481+863980563+873071849
1146+880568366+886716359+891570917+895158706+897425678+898133499+896959135
1136+893713461+888392620+880887607+870540269+856473589+839333110+822653553
1126+811097541+806497069+806138420+805119789+799538720+787104909+765694177
1116+732431849+684685900+622567754+551312119+481288324+424501966+389228222
1106+375944647+376962168+380855278+379961794+375047145+372353036+376319209
1096+386062734+398271507+411454408+426601149+444927657+466021664+487748990
1086+507162651+521490017+528930234+529171870+522915264+509964393+487861656
1077+453798480+408453213+357156138+307359987+266144581+239550589+231458476
1067+241538397+265322788+297209617+333035416+370057537+405911046+437922614
1057+462271935+473488642+466087375+438336517+395488978+349362958+313468246
1047+296707457+300282927+319417015+347426337+378952639+411010541+442261028
1037+471522515+496347233+512567043+515765762+504468411+483380809+463906372
1027+458955714+473746192+501393369+529197782+548821319+560045345+567585583
1017+576514079+589575393+606921991+627080787+647697762+666048810+678692398
1007+680282004+665984112+637633983+603491699+569597293+537177017+510376368
997+498427301+505985445+526251058+546241411+557019121+559806682+563995376
987+577850383+600714202+625350349+645483332+657539412+657224418+640769213
977+612118664+585135292+574445970+584060132+606039486+628717707+645073840
967+655446666+664537364+675786028+688097501+697231985+698572994+687949350
958+662325286+623226561+580400719+549437516+542412313+560003847+593046464
948+630526371+665387846+695014614+719299563+739097359+755478848+769303662
938+781007237+790782751+798770384+804741666+807747959+806141753+797280896
928+776885593+740120630+686337721+624844856+574113397+550309499+553247761
918+564153134+559596905+530393908+489336244+460569892+459869325+484333631
908+518621289+546971745+560654747+560911120+557529188+561440793+576904161
898+601005734+628682222+656176640+681189734+702522437+720350935+735995915
888+750682452+764536282+776953951+787615041+796781416+804896222+812244261
878+818892845+824800802+830020479+834815568+839522955+844282166+848955898
868+853349534+857388508+861050405+864305620+867189183+869879044+872687844
858+875780008+878799959+881106730+882261750+881690971+878455557+872773781
849+867436407+865820203+867852499+868770750+861675556+839548312+794899036
839+722242072+625891066+523986078+440097866+389563017+374404186+388217302
829+421821973+465520190+510504751+550278784+581115009+602231202+616072224
819+627295401+640019176+655312565+671044919+684027355+692420688+696542136
809+697936080+697808841+695919926+690726390+680835269+666441244+649650329
799+634606516+627774688+635865314+660930950+697791523+737497427+773030453
789+801641791+823508675+839816187+851789336+860177703+864724980+863570222
779+852004342+821135834+761818712+677658083+595219657+552189723+568266674
769+629983890+705784383+771198066+818442966+849624834+868115015+875944955
759+874984290+867700818+855968423+839305858+814207481+774438839+712759724
749+626383227+524641683+430398290+369339294+354453827+379768354+426439273
739+472132112+498675930+498677237+476889951+441955707+396892529+341985674
730+286361491+249392926+246772566+278123596+329762720+385423336+432574849
720+465101223+486176768+506028870+532807169+566146481+599990044+629387297
710+652803466+669871994+679557323+679992040+668795788+643176756+599900708
700+537645031+462136331+386590119+323380246+277689663+252407942+253740717
690+285278913+339778368+402695597+462546214+515008634+559637488+596437806
680+625307871+646662139+661981996+673691387+683802807+692277634+695453579
670+681711695+630277186+541546179+454950494+394032460+360799769+357775276
660+383264324+425964823+472887541+515901138+551793432+580311383+602470192
650+620115838+635565221+650355013+664415484+676679773+686451301+694203604
640+701068958+707961106+715552775+724402457+734390625+744522108+753778537
630+761754929+768430110+773819309+777424676+777124452+769879603+756192680
620+742812190+736477554+734173070+724532767+701851082+674036834+652832939
611+639153532+621365421+588581922+544384878+506323572+492238235+507528782
601+544348967+589966390+634749832+674320917+707469664+734204373+755157254
591+771164345+782938107+791043830+795788337+797355266+796168486+792337917
581+784382960+768263399+736654329+680974336+600566246+511948035+442900262
571+414360386+426734563+461257617+494944434+512222870+504850488+472699263
561+429072965+396716930+392105151+414850619+452734757+493785101+531999753
551+565267505+592818584+615302842+634584232+652023040+667840874+682231108
541+695737007+708365500+719587762+729410003+738422933+746826853+754176069
531+760008610+764517330+768669950+773380997+778399326+782703169+786004196
521+788720851+791180872+794070512+798734702+805610708+813235380+819819592
511+824976597+829491786+833918294+838082220+841989249+846000253+849379244
501+850330041+848938188+847839893+848726254+850498909+851175556+849320297
492+842241114+825751729+798677193+765765344+734786327+712081181+701285924
482+703591977+715053948+724048645+716429071+686753355+643182311+602802438
472+581526265+580953526+588240723+589983251+582688800+574607649+578222951
462+599069439+632766484+672044337+710519741+741302117+761345503+773604629
452+781703229+787227181+791119768+794051560+795194685+791824452+779630349
442+754315136+715029703+664827524+609100412+556644789+516350853+487959748
432+462674466+435110644+409228639+390792275+378487207+366145116+351734983
422+340661656+341509263+361247295+394930453+427032664+451617706+469877360
412+481115437+483447140+477073392+466049438+458156565+460475884+473763412
402+492881325+512442679+530994846+551034115+574028179+595489820+608973631
392+610575523+598816334+574533345+543134837+515683746+504992954+516026351
382+540240982+566279732+589074998+606856247+617577069+618267767+608883903
##END=
