##TITLE=JEW-R113(3-9)
##JCAMP-DX=4.24
##DATA TYPE=INFRARED SPECTRUM
##DATE=25/10/2018
##SAMPLING PROCEDURE=Diamant-ATR
##ORIGIN=Lara
##XUNITS=1/CM
##YUNITS=TRANSMITTANCE
##RESOLUTION=4
##FIRSTX=3997.453
##LASTX=373.96442
##DELTAX=-1.4165319
##MAXY=1.0003747
##MINY=0.3651894
##XFACTOR=1
##YFACTOR=9.3167152e-010
##NPOINTS=2559
##FIRSTY=0.99729282
##XYDATA=(X++(Y..Y))
3997+1070433942+1070645063+1070811977+1071084643+1071180863+1070881583
3989+1070379819+1069945357+1069628484+1069482363+1069675954+1070150209
3980+1070479877+1070350582+1070016691+1070082970+1070847228+1071985873
3972+1072929199+1073376776+1073339670+1072931375+1072313494+1071673542
3963+1071122133+1070665280+1070244509+1069772878+1069236631+1068750413
3955+1068427974+1068298359+1068385110+1068637815+1068785344+1068592584
3946+1068229072+1068004900+1067931648+1067884498+1068007012+1068496044
3938+1069082961+1069243029+1068962046+1068889497+1069479036+1070298697
3929+1070662401+1070489090+1070054629+1069547299+1069037730+1068459898
3921+1067681949+1066827422+1066376838+1066686163+1067474923+1068203034
3912+1068662894+1068870944+1068724631+1068089093+1067088252+1066047170
3904+1065232371+1064877112+1065339211+1066705036+1068294136+1069139132
3895+1068833518+1067607929+1066157273+1065476056+1066014734+1067240835
3887+1068470774+1069279303+1069491511+1069233304+1068749901+1068367453
3878+1068264451+1068126199+1067669858+1067194004+1067160225+1067287409
3870+1066918396+1066304865+1066320476+1067195604+1068481458+1069533480
3861+1070065888+1070253210+1070178614+1069642175+1068412172+1066599219
3853+1065195457+1065184005+1065984282+1067003804+1068065742+1068883675
3844+1069160116+1068886618+1068215574+1067223433+1066277676+1066176274
3836+1067029010+1067939005+1068243723+1068016992+1067693465+1067581187
3827+1067684636+1067813740+1067732363+1067353944+1067047691+1067450228
3819+1068245258+1068513446+1068389652+1068826417+1069879846+1070694133
3810+1070881775+1070748513+1070790673+1071085218+1071037748+1070062178
3802+1068299254+1066769843+1066237115+1066453866+1067079487+1067803376
3793+1068242252+1068358176+1068325101+1068084871+1067549903+1067055176
3785+1067088956+1067592703+1068047445+1068220756+1068381144+1068826801
3776+1069465921+1070037739+1070347447+1070190514+1069425104+1068336808
3768+1067560203+1067321700+1067281076+1067058439+1066541321+1065842959
3759+1065294812+1065324369+1065936683+1066667929+1067063685+1066884232
3751+1066210821+1065609894+1065577458+1065988056+1066327001+1066131043
3742+1065756399+1065869956+1066542600+1067549071+1068607811+1069302142
3734+1069253393+1068659823+1068169063+1068158699+1068563667+1069137724
3725+1069630595+1069831032+1069651004+1069228826+1068882588+1068909330
3717+1069339568+1069878311+1070143555+1070030510+1069811839+1069628932
3708+1069291203+1068891032+1068719897+1068812662+1068971066+1069021927
3700+1068942405+1068877086+1069113221+1069813759+1070706672+1071215921
3691+1070968782+1070187059+1069491511+1069016170+1068498284+1068074187
3683+1068127734+1068772357+1069710757+1070546796+1071065898+1071169859
3674+1070905126+1070506619+1070133831+1070064161+1070566885+1071212019
3666+1071395438+1071129298+1070885485+1071022394+1071280729+1071121173
3657+1070612372+1070611668+1071611741+1072967137+1073741823+1073285610
3649+1071799319+1070846076+1071103260+1071610781+1071633685+1071106266
3640+1070289037+1069592850+1069430350+1069845619+1070307014+1070120844
3632+1069125185+1067924227+1067718544+1069078674+1070729000+1071660747
3623+1072116128+1072578995+1073117353+1073339670+1072972383+1072215995
3615+1071271964+1070203437+1069227866+1068588106+1068339239+1068546266
3606+1069241173+1070124426+1070888300+1071631766+1072504974+1073020877
3598+1072406323+1070770648+1069282758+1069037921+1069929491+1071062123
3589+1071774048+1071847365+1071356669+1070595930+1069892833+1069476989
3581+1069427919+1069609227+1069749911+1069638656+1069239766+1068740433
3572+1068476212+1068683750+1069276936+1069809472+1069801731+1069430222
3564+1069286724+1069461699+1069751574+1070162940+1070716588+1071067881
3555+1070817095+1070104594+1069586772+1069778700+1070541870+1071291157
3547+1071530428+1071227565+1070782932+1070472008+1070159421+1069638145
3538+1068950146+1068367581+1068134324+1068154604+1067984364+1067230791
3530+1065994774+1064862462+1064349118+1064465299+1065009735+1065924144
3521+1067093050+1068217685+1069132862+1069897056+1070438037+1070453647
3513+1069859885+1069125249+1068926539+1069418707+1070039018+1070202349
3504+1069873256+1069373092+1068984885+1068910289+1069355626+1070355060
3496+1071535866+1072292062+1072328848+1071925799+1071544566+1071352446
3488+1071247078+1071117078+1070862902+1070473991+1070265493+1070583966
3479+1071177728+1071476496+1071456983+1071648463+1072308376+1073033992
3471+1073305762+1073111659+1072860041+1072791139+1072739383+1072518473
3462+1072214011+1071996429+1071935204+1072021699+1072145941+1072142294
3454+1072021252+1071965529+1072003466+1071898738+1071450330+1070806347
3445+1070368431+1070341113+1070563878+1070864309+1071328839+1072018181
3437+1072655830+1072875012+1072610215+1072091241+1071656844+1071613085
3428+1071980819+1072331535+1072210301+1071778719+1071678852+1072136536
3420+1072606888+1072569718+1072240434+1072155729+1072426732+1072728443
3411+1072821528+1072744821+1072554300+1072198465+1071709752+1071282520
3403+1071075622+1071052079+1071015740+1070749088+1070224101+1069696427
3394+1069417043+1069313914+1069149560+1068857125+1068573200+1068477555
3386+1068605763+1068683238+1068344485+1067683997+1067247936+1067275766
3377+1067359062+1067043341+1066377798+1065668240+1065081580+1064702778
3369+1064596322+1064569580+1064193529+1063274321+1062073683+1061002724
3360+1060319396+1060007065+1059742204+1059228477+1058668559+1058485523
3352+1058577585+1058379771+1057643727+1056669883+1055840114+1055294207
3343+1054992880+1054794106+1054465014+1053803246+1052846740+1051896248
3335+1051235823+1050848129+1050470542+1049869743+1049028075+1048140983
3326+1047426243+1046900808+1046407872+1045824411+1045135837+1044407534
3318+1043784343+1043342077+1042846583+1041894044+1040418053+1038877894
3309+1037792796+1037201146+1036705843+1035953869+1034901847+1033731598
3301+1032700816+1031946219+1031280868+1030368442+1029179000+1028015148
3292+1027064400+1026191767+1025205576+1024159632+1023327688+1022820614
3284+1022249948+1021058714+1019274679+1017588334+1016559408+1016035060
3275+1015489217+1014674546+1013697504+1012575429+1011102444+1009254689
3267+1007407701+1005955573+1004873866+1003756461+1002225322+1000331312
3258+998544590+997269931+996493134+995967763+995462992+994720103+993490035
3248+991755965+989741936+987637124+985460852+983253999+981265560+979719003
3238+978461106+977159514+975808596+974657987+973692141+972586188+971116402
3228+969347465+967501885+965791102+964261307+962787619+961307214+959981054
3218+958968186+958100607+956976484+955396404+953549416+951749834+950173401
3208+948865155+947783385+946807494+945823671+944752136+943505307+942076915
3199+940614679+939235803+937884310+936450543+934882810+933195186+931519910
3189+930092157+929066429+928334032+927494602+926136519+924333099+922628330
3179+921314070+920066857+918554912+916966323+915670297+914714687+913830730
3169+912718826+911346924+910037271+909108147+908452777+907688903+906619032
3159+905273808+903649584+901779117+900000392+898748061+897960132+897034463
3149+895565253+893854726+892448597+891399006+890294140+888913474+887528137
3139+886418792+885357046+883910356+882145130+880577909+879465877+878629135
3129+877927638+877375333+876802044+875874903+874531342+873141591+872178304
3119+871757981+871492993+870820413+869506217+867812708+866178056+864754909
3109+863312762+861648745+859982681+858727792+857960207+857366318+856648187
3099+855777985+854908998+854150435+853389312+852349957+850892007+849180265
3089+847478758+845837709+844071843+842030624+839748854+837268632+834524572
3080+831562418+828674028+826166679+824190908+822858287+822316218+822649469
3070+823720556+824961691+825402678+824268447+821571921+817905583+813918405
3060+810337666+808090636+807812980+809274001+811564662+813845600+815812351
3050+817575466+819314399+821122425+823012917+824886583+826562435+827985710
3040+829268685+830434648+831353344+831999246+832496404+832865929+832954728
3030+832623012+831924714+831184383+830790739+830681212+830259482+829138942
3020+827636785+826239228+825086252+824324937+824415272+825624227+827595904
3010+829741276+831728883+833388358+834511969+835058836+835365409+835925199
3000+836981699+838331977+839461410+839973794+840010261+840084729+840382729
2990+840479141+839947628+839009100+838340678+838412011+839185290+840289836
2980+841332325+842175017+843016046+844125647+845533951+847063490+848554131
2970+849893725+850967115+851758435+852439971+853228796+854167196+855077191
2961+855734097+856079952+856199715+856104007+855731474+855192476+854727370
2951+854364562+853940593+853496600+853263855+853238200+853186636+853087473
2941+853144220+853370439+853569852+853705545+853918394+854232580+854529812
2931+854734472+854858457+854975853+855193116+855501800+855724437+855768644
2921+855828334+856201890+857002614+858123602+859386361+860651103+861826407
2911+862854181+863754772+864637065+865595426+866627360+867667098+868641197
2901+869523235+870393309+871371182+872485133+873714816+875084223+876561814
2891+878001338+879308177+880469022+881369676+881860756+882056971+882314218
2881+882857759+883544925+883952069+883712862+882944318+882291635+882316266
2871+882911882+883532642+883862374+883993845+884115719+884351471+884827964
2861+885613782+886584170+887484505+888157277+888672924+889229067+889927622
2851+890663858+891284425+891801544+892365364+893020031+893573360+893776740
2842+893594536+893192638+892700663+892117969+891414361+890576786+889638578
2832+888813031+888441970+888610035+888967533+889132720+889123187+889227596
2822+889613180+890243215+891016878+891753498+892151684+892035760+891605009
2812+891242073+891162615+891379878+891808581+892210222+892221738+891632903
2802+890548253+889251971+888054851+887251824+887006348+887200068+887514766
2792+887759218+888045895+888557383+889261887+890009319+890807804+891830781
2782+893189120+894794854+896412808+897835379+899057705+900214583+901323544
2772+902247230+902951670+903603330+904348075+905148095+905874671+906441754
2762+906839941+907157902+907588653+908305120+909254524+910137713+910656431
2752+910750604+910570511+910308082+910103678+910019166+910004643+909933246
2742+909763134+909651240+909808365+910251143+910797498+911284036+911656760
2732+911900061+912035754+912124105+912147393+912026606+911819835+911668532
2723+911492086+911038304+910322028+909693208+909344219+908989984+908183438
2713+906849090+905387813+904250127+903480240+902754624+901811617+900677194
2703+899483849+898293703+897187302+896339619+895852634+895612020+895447154
2693+895357331+895472168+895880335+896585799+897513132+898475459+899264028
2683+899828936+900279711+900719738+901174416+901621928+901999515+902272756
2673+902565319+903110714+903990769+905007028+905878189+906499461+906947229
2663+907336779+907816023+908622249+909900234+911442057+912819525+913835912
2653+914658324+915513043+916476267+917574927+918819837+920081252+921135577
2643+921925297+922658270+923611641+924864292+926207469+927318796+928087340
2633+928738744+929522770+930329508+930822891+930981616+931232594+931873314
2623+932625864+933034351+933072097+933049449+933158272+933419550+933847166
2614+934356991+934720375+934788126+934582379+934167942+933685627+933381741
2604+933304266+933137416+932622345+931962048+931570707+931575505+931722074
2594+931668334+931314739+930858334+930424385+929734723+928451620+926777431
2584+925276042+924143538+923129454+922081654+921068402+920035957+918754645
2574+917066765+915032583+912958353+911284228+910260483+909765757+909481064
2564+909112945+908539656+907966879+907802077+908188236+908847317+909498913
2554+910235405+911358632+912935769+914595819+915883465+916838755+917972794
2544+919572834+921333839+922815140+924004134+925277705+926922657+928800225
2534+930521244+931912915+933143494+934349058+935397817+936187025+936958832
2524+938055317+939403484+940500929+940997383+941093475+941220659+941503434
2514+941684742+941526401+941221171+941355137+942316377+943809130+945191268
2504+946162488+946812612+947210735+947354745+947416994+947742056+948551545
2495+949669718+950591037+951006497+951211220+951723028+952585105+953345397
2485+953609554+953333817+952685036+951848102+950951094+950113711+949544197
2475+949423538+949614443+949684752+949336723+948665934+947968851+947452501
2465+947096474+946713961+946285130+946141760+946460616+946736609+946309953
2455+945250510+944156903+943344984+942768176+942406519+942220669+941924524
2445+941138322+939743773+938078221+936752254+936106927+935949482+936032203
2435+936528018+937665320+939133058+940313863+941048180+941783840+942914425
2425+944272636+945376734+945910486+945885664+945620227+945618116+946177458
2415+947077409+947860796+948341639+948666382+949052797+949630117+950353941
2405+950981930+951297140+951359453+951406923+951592709+951903249+952217883
2395+952396376+952459265+952666483+953232223+954018552+954694907+955119324
2385+955394357+955650837+955927213+956204102+956458022+956671127+956851027
2376+957093176+957585792+958429700+959483961+960513783+961413926+962184261
2366+962769770+962873347+962042554+960406495+959125759+959323701+960779667
2356+962357124+963277867+963412793+962915699+962077229+961307277+961117844
2346+961912747+963353231+964242754+963846422+962673166+961565869+960842812
2336+960439059+960297224+960418778+960670716+960603349+959653753+957729418
2326+955488850+954006013+954110998+955778021+958141040+960277199+961804051
2316+962745395+963241209+963436784+963428403+963318940+963315677+963596276
2306+964098232+964595006+964957046+965284091+965769797+966381152+966778891
2296+966728222+966387230+965967675+965463864+965017056+965076041+965745231
2286+966424656+966621063+966710373+967314051+968301905+969092265+969631583
2276+970362637+971389516+972194334+972169128+971266234+970156186+969638236
2266+969902201+970598388+971426302+972199325+972560277+972168488+971211727
2257+970556100+971199891+973271499+975618268+976792931+976409587+975272797
2247+974360115+973925398+973571226+973057755+972802235+973340977+974489410
2237+975482574+975958684+976329809+976923762+977239356+976747508+976040061
2227+976128604+976934190+977692562+978454325+979815095+981524343+982622107
2217+982713721+982244905+981773913+981585312+981736999+981995526+981845246
2207+981018804+980133376+980385569+982264801+984852056+986710240+987219361
2197+986691303+985544340+984052228+982786078+982383989+982578540+982344131
2187+981443221+980884071+981282705+981779287+981345786+980394014+980269389
2177+981563112+983477211+984837085+985503524+986236305+986981882+986363234
2167+983839379+981414944+981611158+984401984+987874667+991096884+994229086
2157+996389621+996139603+993926608+992024153+992124339+993611398+994529518
2147+994020269+992891412+991991909+991310884+990605740+989778978+988788821
2138+987938899+987865519+988786966+990201156+991391750+991764346+991009621
2128+989432228+987805317+986665968+986050135+985764162+985499941+984999329
2118+984441778+984214471+984102193+983372034+981954262+980904735+981317572
2108+983132700+985210130+986389208+986307766+985353948+984185873+983444839
2098+983557053+984468456+985674404+986623360+986906454+986229652+984748607
2088+983349515+982972952+983684621+984881037+986149554+987334454+988085212
2078+988160128+988026227+988405860+989350210+990347661+991063744+991448240
2068+991512088+991463403+991669981+992154728+992468466+992246341+991652708
2058+991275633+991590843+992404874+992944000+992691551+991987238+991700562
2048+992503653+994412314+996826065+998821542+999551444+998923456+997838422
2038+997132639+996686150+996297368+996628188+998251899+1000619076+1002782106
2028+1004185356+1004481117+1003550010+1001671738+999225103+996722616+995078560
2019+995025396+996354946+998151969+999631606+1000616325+1001439953+1002414308
2009+1003315794+1003539582+1002860093+1001922972+1001755610+1002634833
2000+1003688006+1004003088+1003775718+1003901814+1004895234+1006500393
1992+1007854765+1008099474+1007206304+1005850524+1004601904+1003699714
1983+1003301975+1003551034+1004609453+1006572366+1008905891+1010570100
1975+1011264432+1011570877+1011831579+1011996445+1012211149+1012405380
1966+1011661147+1009282582+1006186206+1003936809+1002692731+1000941963
1958+997212673+991473447+985159717+980411672+978899342+980898465+985361561
1948+990568634+994794251+997234360+998588989+1000130235+1002115860+1003878079
1938+1005009111+1005499104+1005167260+1003417068+999506533+993263560+985862045
1928+979605318+976377791+976463519+978978353+982689730+986419660+989417705
1918+991581055+993011623+993235667+991505627+988085660+984732485+983475228
1908+984943670+988261402+992129265+995547313+998037580+999695710+1000875172
1898+1001721447+1002169088+1002334274+1002590242+1003123994+1003726776
1890+1004144731+1004383042+1004539655+1004617834+1004681810+1004892931
1881+1005334622+1005991463+1006771907+1007358631+1007302076+1006428740
1873+1004785131+1002072548+997884741+993251789+990783657+991654243+994604114
1863+997885061+1000484919+1002158851+1003073005+1003599975+1004131936
1854+1004722819+1005018260+1004580664+1003142675+1000741015+997794087+994906401
1844+992715606+991799213+992197464+993404180+994867375+996189760+997146074
1834+997710726+998046728+998347799+998605495+998578561+998084218+997179661
1824+996229617+995873270+996505162+997921975+999542936+1000808189+1001549736
1815+1002059369+1002783641+1003971164+1005445428+1006727572+1007532838
1806+1007994169+1008411229+1008962126+1009653131+1010429673+1011265647
1798+1012164127+1013091395+1013813493+1013692002+1012056071+1009416868
1789+1007149366+1005810155+1004955883+1003699778+1001361902+998100916+995060455
1779+993740949+994679926+997099499+1000067731+1003243181+1006275709+1008236510
1769+1008629771+1007805056+1006192540+1003939880+1001016112+997747000+995293008
1759+994751323+996157836+998712143+1001312513+1003434789+1005305640+1007158194
1749+1008817285+1010080235+1010961761+1011446635+1011538505+1011385410
1741+1011022410+1010236657+1008975561+1007393626+1005374479+1002860157
1732+1000833524+1000216731+1000847407+1002337345+1004398268+1006749515
1724+1008941910+1010492945+1011442477+1012346778+1013630329+1014988412
1715+1015858039+1016380851+1016780765+1016990734+1017020803+1016993933
1707+1016809746+1016162756+1015060449+1013766278+1012337054+1010824725
1698+1009395180+1007753299+1005514586+1003042040+1001033833+1000045531
1690+1000617541+1002694587+1005553611+1009183164+1014081360+1018692241
1681+1021287556+1022631181+1023793817+1025325787+1027341096+1029334397
1673+1030666634+1031351434+1031763439+1032086582+1032256886+1032331418
1664+1032547849+1033001887+1033431998+1033666406+1033931459+1034447682
1656+1035418262+1037576621+1041577170+1045196166+1046973037+1048236499
1647+1050139146+1052712390+1054959804+1056643141+1058223477+1059878985
1639+1061570127+1063553704+1066164118+1068618623+1069954954+1070632908
1630+1071332998+1072259562+1073137633+1073339670+1072039613+1067155619
1622+1058089192+1047183262+1037238892+1030528382+1029018548+1030872061
1613+1031434922+1027847019+1017990808+998993509+968018107+924006117+869290362
1604+810930148+759594566+723540363+703417726+695117924+695374980+702697164
1594+715022594+728928808+741405541+751542991+760674034+771217156+785000215
1584+802050147+820376017+837166334+851123217+863739546+877774799+892617366
1574+904640189+914004169+923491366+934219954+943933435+950417598+953472325
1564+952879843+947960598+937054221+918447240+902629743+903964922+914928942
1554+927933670+940524920+951916492+962209787+971354521+979444162+987197609
1544+994807494+1001622988+1008353075+1016532346+1023880569+1028348015
1536+1030508485+1030270431+1026793909+1021251282+1016846724+1016304783
1527+1020247178+1025292264+1025636967+1016790937+998493089+977046916+957147044
1517+938670127+925042721+921611942+928100071+940124494+953977672+969460575
1507+989047604+1008115532+1019261883+1025380935+1030261026+1034969534
1499+1039595641+1044272800+1048623554+1051757676+1053187156+1052157910
1490+1046485731+1032965101+1009672836+975538873+927636309+863343406+789497474
1480+727650567+700045166+712114564+753467646+809220453+867780272+918169968
1470+952226200+972779651+986508587+996183938+1000383964+997791144+989974681
1460+977753595+957238402+920962650+874029514+833179092+797393396+757136607
1451+706677561+645101208+578827096+521652965+483318752+463149605+456131115
1441+455443021+451659286+437968864+422374355+424438445+447346630+480297324
1431+514480773+543633498+564565943+579000726+590491013+601369114+612992663
1421+627759034+648697813+673879354+696328223+713521141+726808578+736844882
1411+744084154+750052542+756748721+765773371+777480281+790141201+801733658
1401+812208837+822383137+832305051+841716885+850707437+858816142+865083938
1391+869555351+873398903+877864685+883333676+889295219+895360722+901444395
1381+907296346+912535151+916853981+920149514+922575549+924243149+924983287
1371+924689637+923399113+921035838+917432516+912089174+903828973+891900451
1361+878087514+866040700+858629588+857404895+862418377+871718508+882693276
1351+894321879+907308629+922269296+938468219+954156933+967418268+976347274
1341+978247874+968878649+944831850+908776687+870145402+840319073+827867162
1332+834954363+856472253+883310709+906495686+918694316+914429354+892321285
1322+858495495+825968354+806209869+798108392+790141521+777915510+773378714
1312+790667596+826612784+862810550+884359916+891357678+893932649+899137291
1302+902505565+890327152+850342645+783621084+709020491+654214914+638033328
1292+660061683+706128839+760704486+813805679+860745468+899731628+929982502
1282+950734471+961302671+961319049+950087545+925393821+883538144+822267660
1272+745169379+663006883+590307274+540759950+523627106+540073871+581904407
1262+636159982+691530468+740996862+781637571+813728268+838776355+857218213
1252+867487454+866137559+847685337+805403259+736216126+648574915+564953957
1242+511864377+503002737+530352298+570647952+600663010+609459522+600512283
1232+585083823+573374419+569365872+571260587+575211042+578560699+580643759
1222+581777158+582187820+582008687+581910228+583172411+587084418+594484589
1213+605510282+619225015+633543427+645867001+654091568+657444424+656622268
1203+653183364+649113017+646871297+648872787+656223825+668076408+682267699
1193+696575554+709702348+721431777+732118205+742261860+752350688+762689471
1183+773317361+783970393+793897490+801974464+807433794+810741867+813954423
1173+819895045+830353847+844591776+858510785+865346176+860265967+844564138
1163+820070148+780858535+722043068+658358321+619706947+622299128+654261552
1153+692576157+724026709+747437905+765569544+780449856+793091392+804022656
1143+813549007+821958656+829766739+837607705+845659728+852594346+853987040
1133+843425045+819837595+793874778+781304704+788312510+807278844+826959214
1123+841992046+852582510+860245047+866031423+870666358+874652641+878316868
1113+881918079+885517370+888671708+890542751+890634685+889385681+887920118
1103+887356233+888334811+890932301+894865867+899772573+905401120+911748182
1094+918905820+926492738+932925336+934223345+923365269+894535815+852187714
1084+813500577+795838779+801327282+816966159+828568659+831693441+831186239
1074+834267516+844428957+859880512+876367198+890717086+901952172+910484208
1064+917222291+923026580+928356807+933256603+937690398+941851143+946029546
1054+950273460+954425632+958345443+961820877+964518298+966348972+967806410
1044+969843983+973315834+978283189+983931057+989305491+993843247+997034435
1034+997557184+991819749+972946373+934137105+877299265+818257387+778625004
1024+769541687+784837844+809744416+831649361+842283457+837601819+821535071
1014+806710865+806220745+823850939+853037699+884045730+910673897+931202781
1004+945112897+947657864+926060899+868011289+783074345+709872908+687665740
994+720602712+779065351+832219132+868724302+890755408+902791218+909112945
984+913909228+919462028+925735389+932237529+938979131+945612358+951030808
975+954418147+955775398+954941471+951257539+945242641+939917084+939172531
965+944524382+953981702+964213453+973147257+980358891+986129401+990906108
955+995098137+998847196+1002062312+1004572411+1006187166+1006903442+1007051034
945+1007001709+1006823728+1006230862+1004808163+1002669380+1001091987
936+1001931417+1005998565+1012298476+1019040654+1025088692+1030269151
928+1034720987+1038530312+1041907670+1045151511+1048388954+1051674571
919+1055175339+1058960481+1062790470+1066290919+1069197286+1071396206
911+1072813531+1073339670+1072982428+1071920553+1069900382+1065277410
902+1054804598+1034787330+1003292443+962019459+916032209+871384937+832729341
892+801646906+774802756+744026767+702613100+655109043+619123549+613398079
882+642875354+695948461+754518836+804403186+837877236+851597599+846225532
873+828239759+808603084+795416857+787570708+778760633+768085145+763242224
863+772356057+795577117+825834388+855540762+880998871+900773670+911106630
853+906023159+885588767+862484144+854318244+867883145+894888771+923055370
843+946475587+965172069+980390432+992898257+1003324303+1012207502+1019858780
833+1026418370+1032036553+1036874996+1040711447+1041827125+1034227028
824+1006116473+947823050+867282346+792986023+753590544+755683072+784481370
815+821184802+855085700+883465723+906954522+926510139+942595440+955520198
805+965849768+974327167+981643594+988409699+995207856+1002469263+1010244078
795+1018246072+1026197077+1034114366+1042322299+1050919014+1058737973
786+1062741017+1058431080+1040723666+1005419198+951958396+885828805+817618394
776+758692440+716786733+694544763+690900240+702862862+726181677+753972993
766+773040409+764177681+714973653+636504237+559849886+508851874+480074720
756+454438085+423559958+397877933+391972274+409781697+444494931+486368266
747+528244704+566922756+601998574+634024398+663715226+691892637+719337970
737+746969025+776073000+807895061+840847195+862324140+844185080+763187268
727+637683955+529028122+489273417+516825846+572474020+622659057+655891022
717+672923040+679686650+686160704+700118099+720469322+739611206+750237112
707+748438490+734864568+717458994+710151523+723076793+753915350+791215231
697+825149652+853191498+877583767+900942247+924384791+947339135+966284677
687+971058120+942445097+860274604+725344615+575899233+469890855+442038027
677+481425222+551204805+619840209+670834031+697662315+698486710+678589973
667+660626847+663627707+681475804+704173539+726711591+746506862+762435102
657+772606139+773358241+764612974+754834814+755286101+768892843+788754841
647+806884432+820319462+829786187+836827389+842703459+847990247+852766889
637+857180915+861457457+865717365+870153399+875026773+880296414+885471307
628+890032670+894026822+897937868+901932724+905810759+909593917+913342913
618+916655080+919229411+921629344+924676202+928379583+932003057+935027204
608+937704665+940569000+943722890+946892710+949866444+952522409+954737643
598+956642529+958714009+961218543+963739966+965725910+967355124+969183814
588+971219532+973114694+974930461+977165272+979969277+982104157+981077342
578+974621713+959792581+930948348+886401775+840093813+817255202+831349569
568+869215126+906054763+929810726+943307430+951824622+957492899+961274714
558+964528918+968397549+972824114+976701830+979398163+981628368+984340567
548+987425172+990034242+991689302+992655724+993445444+994333112+995126862
538+994675575+991026894+983925747+977333145+976924594+984051588+994132803
528+1001253399+1001233886+991011668+971571656+952055064+944869084+955117661
518+975551221+993720413+1003984152+1008833790+1011226302+1010194497+1002947292
509+990543363+980544550+980813697+991181332+1004687248+1015373612+1022335932
499+1027121339+1030470100+1032587642+1034218519+1036057702+1037910832
490+1039434869+1041169387+1043882866+1047243591+1049726757+1050020151
482+1048437768+1046440756+1044583980+1041434632+1035321594+1027249355
473+1021489721+1022299465+1029440917+1038934257+1047065098+1052131744
465+1054559890+1055923155+1057412581+1059164629+1060775737+1062559197
456+1065706498+1069758356+1071590757+1068393683+1059860432+1043878964
448+1011422261+953108557+875334242+806949304+781570397+806366930+858624342
438+912767832+955029310+981177912+991130152+982059374+947681151+890884959
428+832276774+796827720+794914901+818361860+854336477+898997248+949785195
418+989746222+1006821744+1010539903+1011969000+1015226147+1019135595+1021105353
408+1021253073+1021735517+1023380340+1024968737+1025307170+1024966562
399+1025865041+1028469953+1030445277+1031586098+1034232210+1038531655
391+1042742750+1045393021+1045742330+1044501515+1044746927+1049250391
382+1056537069+1063636041+1069360233+1072930351+1073339670+1073271087
374+1073339670
##END=
