##TITLE=X8588
##JCAMP-DX=5.0
##DATA TYPE=LINK
##BLOCKS=1


$$ === CHEMSPECTRA SPECTRUM ORIG ===
##TITLE=X8588
##JCAMP-DX=5.00
##DATA TYPE=INFRARED SPECTRUM
##DATA CLASS=XYDATA
##ORIGIN=ComPlat
##OWNER=
##XUNITS=1/CM
##YUNITS=TRANSMITTANCE
##XFACTOR=1
##YFACTOR=9.5141017e-010
##FIRSTX=3997.453
##LASTX=373.96442
##MAXX=3997.453
##MAXY=1.02156889035654
##MINX=373.96442
##MINY=0.5585513090390902
##NPOINTS=2559
##XYDATA= (X++(Y..Y))
2559I41805151I41660119I41395178I41211304I41289991I41740999I42500490I43261484
2551I43655858I43579865I43255282I42959266I42798384I42715500I42577422I42269003
2543I41828707I41505001I41585505I42104424I42737114I43082496I43053678I42861597
2535I42717380I42726589I42857149I42852763I42481570I41953691I41691506I41698398
2527I41606931I41301080I41087259I41271008I41822756I42491719I43025611I43216251
2519I42952375I42361159I41811541I41682046I42095403I42847000I43495038I43617454
2511I43238554I42817367I42735736I43020662I43437965I43701591I43649092I43322253
2503I42913032I42598159I42465344I42563138I42861660I43249894I43686180I44210612
2495I44682107I44661495I43882771I42828268I42116390I41549795I40732480I39980945
2487I39866862I40458955I41280468I41821565I42206166I42863038I43642952I43949492
2479I43702969I43449430I43258539I42883587I42680104I42995227I43353452I43145082
2471I42621276I42577172I43162123I43792996I44035384I43781468I42979314I41950998
2463I41415664I41701468I42595716I43787796I44916287I45040520I43098534I40615013
2455I39713623I40273390I41564893I43013269I44015587I44085753I43456259I42960206
2447I42984451I43096592I42995978I42959767I43081494I43104235I42957763I42820186
2439I42678537I42388160I42078926I41947865I41794752I41413973I41275895I41725838
2431I42261861I42242064I41841174I41654356I41930198I42540146I43121527I43393547
2423I43549292I43841423I44017403I43680479I43095841I42713307I42474490I42136062
2415I41765808I41763302I42450496I43658050I44749642I45160304I44827702I44106803
2407I43334658I42634621I42167512I42233669I42859467I43667448I44321751I44783660
2399I45100851I45156921I44840169I44272509I43726275I43522353I43821313I44377070
2391I44701340I44645645I44603670I44832589I45190188I45464276I45509195I45358086
2383I45316049I45524293I45688120I45433014I45060066I45034568I45231097I45250143
2375I44820310I44126036I43607430I43293372I43052863I42998860I43133367I43171019
2367I42924496I42684113I42887408I43603734I44513957I45135245I45190752I44914345
2359I44820686I45081116I45185113I44703846I44157799I44179789I44761107I45382269
2351I45354766I44479939I43520912I43291743I43791429I44610875I45427063I45968536
2343I45859214I44822001I43305463I42387847I42521477I43411590I44646585I45866857
2335I46769625I47126034I46711988I45543903I44589073I44732915I45318743I45270065
2327I44642262I44552925I45223830I45922551I46069901I45656858I45069777I44721262
2319I44786542I45104860I45412716I45701777I46071029I46366543I46171330I45463524
2311I44795250I44434581I44285415I44215436I44200964I44200338I44001741I43496980
2303I43062323I43338730I44556997I46205661I47082618I46338476I45051859I44528241
2295I44929381I45793996I46367545I46051357I45190438I44662999I44687933I45035445
2287I45516274I45777770I45344304I44321814I43500865I43317993I43561383I44047475
2279I44738929I45452185I46020597I46516023I46911712I46949364I46626598I46221010
2271I45752272I45050794I44442851I44520661I45105487I45509696I45285978I44501929
2263I43644393I43204348I43267561I43548164I43792307I44011452I44265367I44332902
2255I43850883I43085817I42784539I43080617I43560631I43975178I44439280I45024231
2247I45526549I45692693I45393295I44716939I44033316I43733291I43852011I44091517
2239I44192507I44140821I44041210I44046786I44288923I44640320I44732664I44434644
2231I44078987I44020097I44255594I44568211I44794436I44827138I44594273I44184300
2223I43815862I43593146I43426187I43187182I42853891I42541337I42427253I42610250
2215I43002055I43405764I43749643I44122340I44515210I44720134I44647274I44542337
2207I44649905I44896616I45026487I44885840I44563450I44314860I44295000I44333153
2199I44146710I43793935I43612693I43703283I43821000I43784789I43667886I43562010
2191I43480817I43463087I43517153I43532628I43414033I43197144I43014961I43079113
2183I43542714I44196140I44573912I44595589I44715248I45189311I45631360I45533002
2175I44865981I43988585I43295251I43109247I43527240I44130860I44242250I43701779
2167I43024108I42731100I42852826I43098973I43254279I43336913I43498171I43778273
2159I43991154I43943415I43693509I43467097I43405388I43469540I43520850I43468475
2151I43366232I43354768I43524984I43856960I44217316I44393171I44236173I43862285
2143I43665881I43942538I44465029I44645958I44243127I43659867I43447300I43766433
2135I44358463I44787168I44720260I44173273I43500489I43075417I43001742I43126350
2127I43257662I43355707I43499048I43689876I43806904I43764052I43619835I43548728
2119I43744255I44222829I44661057I44624470I44077922I43489776I43281657I43395615
2111I43575166I43779839I44091454I44483071I44891103I45276580I45518718I45450305
2103I45034067I44402317I43790928I43455319I43521476I43871682I44210737I44258288
2095I43975429I43614760I43429758I43383336I43299324I43153916I43048227I43058878
2087I43251648I43693447I44356082I45049980I45480439I45444166I45049729I44680164
2079I44636310I44852699I45007316I44876443I44529870I44199523I44024733I43952499
2071I43821563I43554617I43287420I43198835I43223143I43152851I42998986I42969165
2063I43137502I43419860I43788861I44239932I44626725I44778084I44752774I44785289
2055I44972295I45193759I45348940I45460329I45523542I45469288I45282783I45035508
2047I44866043I44926687I45168449I45279775I45085251I44817052I44766996I44917854
2039I45090639I45154791I44992782I44549103I43993785I43643704I43667448I43968475
2031I44357398I44733666I45042587I45136874I44858901I44317679I43918481I43987395
2023I44440282I44929632I45234731I45387155I45475615I45484324I45348752I45137813
2015I45110248I45455818I46009257I46383396I46366230I46034129I45601978I45317365
2007I45332087I45548163I45729719I45769626I45704158I45576229I45430759I45316174
1999I45248451I45303519I45639880I46241684I46775326I46917601I46722513I46487956
1991I46374061I46356331I46454690I46771254I47261794I47664938I47755654I47567770
1983I47270001I46920922I46518967I46247636I46402691I46963022I47502866I47681665
1975I47569712I47332399I46908016I46257284I45677658I45540206I45801890I46042148
1967I45981880I45776392I45752961I46018905I46410836I46714369I46810096I46686678
1959I46441847I46233164I46103356I45892981I45445669I44831148I44282032I44033442
1951I44243315I44846935I45499422I45933390I46309971I46926497I47741244I48434578
1943I48700083I48309970I47251206I45958512I45045093I44700901I44671519I44758977
1935I44942412I45087444I44986830I44653288I44221200I43693196I43104361I42744193
1927I42842552I43203220I43457574I43560381I43756221I44138190I44444292I44316238
1919I43671770I42789175I42002933I41283475I40252716I38754784I37226594I36270511
1911I36063269I36472679I37451816I38891233I40353079I41345873I41714686I41620275
1903I41364668I41262300I41405452I41549983I41412218I41002057I40568904I40320376
1895I40128483I39316242I36849699I32058637I25310303I18016988I11996194I08587664
1887I08030153I09571500I12229309I15384738I18654000I21540979I23617910I24925514
1879I25854720I26726102I27719147I28980329I30449880I31734242I32463473I32730169
1871I32973183I33485462I34202414I34916108I35513151I35958207I36167830I36072604
1863I35831218I35806911I36180485I36763870I37315680I37790244I38145713I38259797
1855I38210805I38272326I38486648I38584693I38406520I38108375I37909277I37850951
1847I37793815I37552179I37121406I36769133I36759610I37031443I37325453I37561702
1839I37872753I38300769I38667515I38768128I38568467I38226593I38008387I38101671
1831I38389542I38488465I38164007I37633372I37319627I37377076I37603050I37771011
1823I37880646I38046603I38274895I38461338I38558944I38606307I38607622I38538646
1815I38471612I38547417I38786485I39005567I38940099I38456827I37677289I36836292
1807I36013839I35171026I34458773I34220770I34606749I35361228I36042783I36339174
1799I36237809I36039463I36158558I36757041I37547355I38022045I37927570I37487150
1791I37156239I37238184I37773141I38626542I39560572I40329210I40800391I40950372
1783I40801581I40484704I40282098I40417670I40799514I41089452I41060634I40826139
1775I40707357I40914787I41356210I41721891I41773702I41567650I41358027I41317055
1767I41426816I41594652I41751900I41877135I42026301I42278337I42572222I42690002
1759I42505251I42154794I41869178I41707419I41524297I41129297I40460020I39685369
1751I39136127I39070221I39537580I40445987I41592709I42666885I43431262I43836098
1743I43823255I43293811I42463276I41900816I41971358I42496042I43055933I43381018
1735I43432640I43360218I43402819I43693948I44156985I44614509I44946609I45137563
1727I45217565I45175779I44961645I44598032I44248953I44105300I44230159I44560944
1719I44998796I45417101I45661244I45664376I45533503I45442161I45494473I45708982
1711I46002241I46170891I46054866I45739993I45472044I45375691I45362660I45301327
1703I45199898I45202530I45394297I45650969I45764175I45714746I45693320I45813981
1695I45940782I45889849I45703406I45601226I45714620I45981191I46281529I46565766
1687I46802829I46896426I46769688I46526799I46399998I46493281I46697955I46865916
1679I46938025I46927938I46892229I46870991I46811600I46665378I46535131I46547473
1671I46650655I46738426I46847435I47023666I47147773I47085563I46872557I46614381
1663I46351946I46119582I45997479I46026736I46163874I46347247I46540707I46708417
1655I46801513I46776203I46609307I46310660I45941785I45630420I45546784I45773635
1647I46164564I46432763I46448362I46352760I46323503I46354515I46345994I46321311
1639I46429192I46718128I47006876I47058561I46842298I46536196I46324130I46293808
1631I46466155I46783220I47087755I47221260I47162934I47039704I47002428I47093143
1623I47213303I47234855I47157859I47123716I47233100I47417538I47573471I47743437
1615I48039390I48447797I48829703I49038261I48943661I48480875I47792366I47197015
1607I46887655I46775075I46711863I46720508I46868673I47082869I47259914I47441094
1599I47689308I47929128I48091513I48248511I48411774I48405759I48180349I48047659
1591I48311536I48820243I49176088I49272317I49338098I49549725I49867041I50173707
1583I50347745I50267617I49927184I49488768I49158359I49042897I49096274I49169635
1575I49214179I49436331I50070900I50965712I51584118I51561063I51166689I51026669
1567I51409641I52033873I52582300I53019839I53302948I53192499I52585871I51762416
1559I51118199I50829827I50849687I51058056I51328010I51552981I51724639
1552I51904002I52070836I52129538I52104416I52156665I52397110I52818799
1545I53284906I53494842I53205655I52592825I52121957I52083804I52445538
1538I52983503I53393789I53514200I53496470I53506244I53429186I53162991
1531I52906821I52863468I52941089I52934010I52727896I52321807I51898239
1524I51758281I51961013I52198138I52169194I51919038I51762604I52006934
1517I52704841I53615942I54473916I55203711I55749444I55952050I55837466
1510I55730650I55794489I55757902I55379002I54888964I54663053I54634171
1503I54323120I53460134I52416218I51846867I51941090I52287600I52554359
1496I52894416I53436390I53825376I53632042I52899867I52068017I51660925
1489I52099278I53370484I54796181I55517644I55317231I54732593I54345862
1482I54195568I53994716I53743118I53792360I54238983I54581547I54253142
1475I53339974I52540576I52478616I53187487I54161737I54742303I54513385
1468I53569456I52488327I51868167I51783842I51830641I51746942I51745000
1461I52093389I52663555I53146703I53466900I53663805I53599528I53164933
1454I52619325I52389655I52628597I53150900I53650962I53872676I53782712
1447I53676711I53916342I54462013I54852502I54769305I54421730I54214676
1440I54262289I54431190I54598023I54636176I54406569I53955623I53506870
1433I53178653I52926179I52751452I52773253I53064821I53528609I53966148
1426I54267676I54516642I54846363I55216116I55407821I55264167I54874868
1419I54505303I54414650I54770683I55562062I56432754I56867286I56798936
1412I56728581I56976984I57272122I57335773I57336399I57507493I57804072
1405I58149768I58671068I59407817I59916149I59582482I58424859I57077222
1398I56023783I55398235I55287034I55714674I56482184I57215299I57592633
1391I57574903I57363338I57167185I57057863I57011503I57031049I57108609
1384I57113307I56899675I56512631I56132792I55887021I55850058I56081483
1377I56527855I56942401I56984000I56457563I55504989I54466461I53449359
1370I52192061I50573907I49097276I48505496I49009380I50135178I51258783
1363I52120516I52859771I53602723I54067764I53815603I52994090I52432382
1356I52702084I53481059I54149959I54552728I54820301I54947666I54992460
1349I55308522I56187860I57435823I58464954I58770868I58423919I58160168
1342I58739982I60090563I61306951I61630469I61212727I60742862I60516261
1335I60234467I59666556I59056045I58779074I58940458I59398733I59996715
1328I60707528I61557797I62389396I62848674I62694683I61934691I60741859
1321I59515573I58808331I58836210I59354503I60237349I61648324I63387014
1314I64708589I65113238I64765600I64087803I63585360I63940829I65385572
1307I66970647I67294980I66068881I64294356I62918778I62053285I61530043
1300I61471216I62027787I62958748I63708528I63721809I62742797I61166680
1293I60029042I60190801I61475351I62845165I63446907I63346669I63234026
1286I63523275I63937634I64195371I64640490I65488128I66006546I65527220
1279I64822297I65231581I66752630I68120815I68555222I68603712I69332818
1272I70950158I72309823I72138040I70705828I69701005I70333757I72006353
1265I73019132I72319346I70322480I68273428I67227758I67342781I67801432
1258I67761901I67424663I67613110I68362702I68843782I68703762I68426729
1251I68388952I68527155I68677700I68534485I67818285I66906244I66530540
1244I66709527I66882814I66956113I67216481I67378616I66723811I65295483
1237I64183593I64262656I65142745I65832069I66018888I66083667I66185408
1230I66040000I65463131I64607412I63724754I62947596I62207965I61353123
1223I60447598I59832012I59769112I60259903I61215484I62549526I64098265
1216I65600018I66721932I67160786I66878616I66192299I65449160I64706397
1209I63930429I63407876I63647884I64778693I66260461I67396909I67963066
1202I68131215I68090368I68038182I68199816I68472150I68342780I67498275
1195I66410756I66025904I66687412I67569820I67618561I66966199I66730139
1188I67392336I68281384I68713660I68681710I68400166I68168554I68705453
1181I70689476I73843464I76908052I78516496I78263019I77175751I76810007
1174I77634903I78719917I79068745I78638661I78142922I78537671I80306558
1167I82583026I83630137I82869831I81722984I81741214I82523885I82208637
1160I79980722I77302739I76080713I76513616I77537108I78545753I79507599
1153I79868268I78939312I77265213I76230632I76445705I77435242I78741154
1146I80336317I81838759I82314889I81294404I79431669I77895772I77701248
1139I79247983I81611218I83069744I83130889I82964055I83250360I83061725
1132I81774669I80457855I80215906I80724300I81027833I80608839I79438623
1125I78003716I77375537I78230567I79723173I80162905I78825542I76256192
1118I72996829I69186658I65255951I62076340I60407754I60537249I62312463
1111I65195746I68339773I70809135I71901541I71505225I70157964I68739346
1104I68047579I68308950I69103461I69969266I70815400I71615425I72100764
1097I72061546I71767724I71784326I72285014I72815336I72940257I72752249
1090I72660844I72939443I73580277I74323667I74689473I74328992I73506790
1083I72953727I73105212I73648627I73878297I73429607I72588046I71946523
1076I71906052I72412003I73064991I73542061I73778310I73824920I73842775
1069I74006351I74130208I73776117I72911690I72089362I71831312I72146749
1062I72611414I72738842I72439193I72159278I72385315I73067622I73606777
1055I73579212I73254754I73060606I73063300I73036235I72803808I72465881
1048I72273362I72369653I72692732I73057348I73321162I73519069I73839768
1041I74436873I75206701I75727500I75628953I75040932I74292593I73566118
1034I72985114I72696554I72781443I73043377I72889763I71694613I69607219
1027I67339962I65128399I63042947I61682217I61648449I62864900I64689356
1020I66343471I67432431I68109476I68648506I69102960I69442203I69764029
1013I70185405I70659655I71025837I71160094I71060795I70850671I70716165
1006I70789589I71035986I71245108I71212531I71046323I71130335I71560356
999I72084977I72479852I72745921I73106903I73739154I74520948I75139917
992I75447460I75627074I76015371I76801487I77748172I78391073I78645051
985I78715719I78775611I78903540I79030278I79030842I79013113I79206948
978I79542244I79802236I80010606I80327107I80735890I81038985I81063167
971I80852166I80574570I80343584I80216031I80196798I80159271I79957292
964I79750238I79895708I80511796I81229249I81550386I81635275I81859683
957I82330301I82981785I83663528I84218909I84629885I85021252I85417630
950I85584840I85278550I84746286I84374967I84215652I84193599I84162651
943I83750046I82433608I80225616I78090109I76866328I76586790I76972769
936I77904230I79475022I81564294I83615351I85283813I86680629I87936861
929I89139905I90406662I91607200I92172918I92004581I91879096I92069610
922I92417311I92791324I93119039I93407224I93655187I93704554I93499317
915I93492614I94128561I95173918I96219713I97076560I97792572I98463979
908I99070168I99636011A000281481A000912166A001053376A001014722A001635571
901A002806351A004033514A004806412A005200284A005719204A006552056A007615832
894A008811044A010113637A011446802A012661811A013835786A015126914A016583935
887A018226272A020019780A021869735A023588315A024547216A023771249A020283782
880A011689315I93868318I68635036I48946355I41962337I44124345I51089067
873I60180840I69771860I79369145I89066982I98337554A005246519A006297389
866I96801971I72684713I35021922H94306321H66081311H58437100H66786234
859H81071712H94131217I03874161I11120302I17279111I23313437I29436975
852I35440729I41457138I47981064I54452052I59329945I61512000I58124082
845I43044907I12100441H67087450H14072460G65412936G33744878G23995544
838G39701707G76066605H06735667H26527029H43605074H60008268H75050417
831H88370040H99465381I08207637I15237201I20413740I20621358I07870398
824H79090384H53428647H44535909H49641907H65259171H85814786I02784323
817I14051949I22838998I31251972I38989153I45369676I50785096I55726891
810I59924043I63303065I66386135I69401857I72080717I74275239I76129078
803I77815519I79504028I81378228I83260258I84970945I86835371I89081328
796I91662080I94425453I97159820I99491105A001206741A002351208A002690388
789A001540345I98433532I93953521I89171480I84598749I79818838I73952097
782I66720929I58587933I49869297I40189628I27598611I08939938H86460443
775H69127104H61241195H61946244H70611754H85646511I02018881I15761383
768I27152928I38254534I50390973I61248500I68042755I72247362I75692855
761I78958044I82191158I85416377I88430659I91110834I93497250I95493176
754I97044296I98395379I99826025A001370003A002793633A003635820A002907967
747I98608948I88247599I68864017I33662883H73876192G93131619G13027567
740F55581746F34755364F55094965F98187773G35550539G49738661G37314227
733G10017421F86293597F75247811F74184536F77905934F84004037F92024328
726G02200049G14815061G29104047G43671507G57938065G71409423G83130563
719G93119277H02528366H12372299H22471087H31772796H39841514H46929530
712H52987036H57524120H60365992H62232173H64462969H68067965H72926813
705H78341167H83886583H89146884H93635854H97359507I00692545I03747861
698I06442070I09011796I11885180I15202869I18718904I22103189I25259369
691I28176545I30592531I32112201I32751970I33279034I34761366I37595657
684I41054619I43711678I44423367I43098409I39723083I32919806I21477203
677I08146491H99877986I01852486I12360809I25237881I35714065I42664253
670I47027863I49837534I51479996I51917910I51157856I49505245I47603793
663I46218379I45850255I46652409I48589320I51590508I55732279I61138175
656I67300493I71630398I67614614I46656043I07465437H64239814H38569933
649H40465684H61563209H86831512I07547569I22674107I33705046I41436025
642I45822000I47183608I47071153I47191627I47564199I46825445I44379263
635I41299701I39046978I37996045I37167641I34214442I24736879I02228629
628H61312489H04474235G45967458G04889120F91799105G03058524G26989402
621G53197811G76937297G97943731H17430119H36075573H53699101H69875068
614H84465833H97688788I09889630I21314379I32121035I42519723I52647016
607I62054726I69039183I69877173I57891592I24103688H63540028G85601116
600G15261308F76577969F73848363F92355927G15827590G38133421G59933490
593G81607196H01796503H19086740H32840330H43247601H51270899H58254166
586H65235616H72454880H79533749H86115437H92192991H97911755I03320534
579I08335252I12848342I16848088I20336808I23172415I25219713I26644282
572I27839495I29040346I30099360I30718643I30997868I31629493I33283733
565I35907149I38834787I41344746I42959705I43649593I44037326I45160931
558I47822500I52108300I57440208I63046017I68315027I72620498I74700687
551I71327804I55823307I20838749H67893551H13776257G80983967G79177678
544G99314360H25507546H47596488H62960777H72957699H80305706H87156095
537H94007611I00544694I06768031I12891131I18896513I24500568I29314560
530I33039716I35507074I36650476I36763494I36590396I36795633I37602486
523I39086259I41355020I44312479I47583996I50807900I53953368I57230586
516I60579912I63532547I65815217I67620503I68989816I69244107I66660035
509I58037689I39929010I13054205H85906942H71012581H75177657H94217359
502I18114093I39468604I56183788I68807947I76356556I72890702I50963269
495I13676871H79714428H68294127H80745062I02990688I22422259I35703540
488I44167071I49517775I53666499I58361583I64242358I70998961I77925468
481I84233319I89425333I93578818I97315753A001397318A006179860A011432956
474A015591016A014088198A001082633I76760765I51375059I37517096I38846878
467I49298755I61112427I69777624I72825798I67709213I51033749I18642097
460H67674155H00485265G26708547F60281654F12978601E89442849E87077295
453E99398861F19443136F41872386F64055551F85765280G07462605G28781719
446G48571578G65836693G80330603G92602926H03381203H11710039H13515701
439H04594270G87211376G71783874G68883050G80059083G98243881H15594261
432H28688849H37713587H44000952H49020995H54032017H59521988H65087702
425H70144207H74612064H78803515H82940336H86782145H89172257H88266105
418H83529297H77612625H74773886H76960890H82354195H87684224H90860891
411H91517951H90450792H89104032H88828127H89771680H90455616H89098895
404H85826188H83134171H83639183H87721375H93728825H99814899I05009105
397I09136529I12493374I15503019I18335870I20862619I22972628I24759621
390I26343631I27698347I28809110I29903771I31357159I33386038I35925317
383I38724588I41493850I44008695I46132299I47834340I49323250I51013576
376I53115817I55358641I57290603I58678774I59492518I59675828I58875616
369I56010877I48825694I33734303I06381676H63863671H08559246G50409504
362G03811687F80159722F82116869G04029768G36624840G71484915H03224017
355H29635910H50629627H66941165H79394293H88795675H96116806I02462309
348I08536605I14196167I18923452I22746654I26301093I29983523I33495611
341I36390358I38748081I41052239I43566646I46106801I48399870I50450990
334I52416782I54256650I55818421I57243805I58871544I60655467I61988945
327I61983871I59327564I51264985I32411913H95716105H37483040G63242784
320F87717791F27893260E95616130E94280584F18702189F57784789G00098184
313G38612371G71062975G97576798H18881941H35917636H49814003H61529128
306H71513645H79947418H87065442H93017198H97815965I01726312I05327173
299I08967065I12413747I15249167I17532462I19816385I22415931I25002259
292I27124297I28808859I30427389I32252096I34329904I36435403I37663443
285I36533197I32769575I28915487I28489726I32303531I37980321I42935773
278I46402691I48911773I51164371I53546777I56138180I58653840I60085802
271I58440709I49891349I27959467H88494773H40576196H07604667H08640063
264H39611155H79002174I09483791I28228356I39983639I48093894I50948734
257I40826641I08619239H57596918H10497097G93223713H10643820H45294272
250H77972667I01536486I17410799I28433656I36562893I42695828I46957697
243I49536131I50944913I51884769I53108299I54865471I56725324I58232214
236I59239417I59886078I60783208I62591626I65138485I67575646I69337892
229I70548329I71646498I72963062I74992943I78746229I84909424I92879533
222A000077810I99328281I79164597I35970173H86996090H60063587H66545726
215H92911133I19632072I38475684I50722196I59261720I65675635I68235651
208I61427425I46076667I30917052I24166337I29685440I43518845I57683536
201I68435500I76384936I82212270I85960482I88085777I89304170I90306174
194I91646919I93240578I94453833I95018862I95392061I96217521I97797020
187I99954455A002134882A003701727A004412790A004675726A005259863A006855213
180A009921869A014536324A020069586A025402309A029789537A033359012A036782514
173A040577148A044624382A048455979A052049949A055938806A060506775A065544862
166A070287873A073539468A073741823A067236879A043617429I85890941H86091067
159G65196485F67381322F27222417F44202856F86824984G18158499G21080811
152G04704056F90955227F94855612G14513031G39829511G66157203G94594718
145H24301495H50917936H71133743H85594951H97209338I08237645I19211010
138I29234682I37151979I42999361I48069022I53562565I59919031I67233333
131I75312139I83365696I90285813I95133134I97236252I95872639I89193094
124I72740471I39873628H86341035H16677332G45351621F89623190F59795938
117F54852327F66526417F86219922G08188203G29592958G49747620G68752490
110G86294575H01335722H11505867H11988513G97346501G68258442G37746941
103G25950122G41247064G71216841G99323945H20400922H36797851H50461477
96H61815370H71214560H78953747H85155784H90090499H94071952H97201882
89H99525211I01481167I03981917I07648685I12018246I15913870I18589472
82I20221471I21215394I21227234I18748224I10703249H91169310H52270021
75G92210432G25115829F76328439F63657982F85656585G24573854G62035606
68G92312299H16921349H36130642H49835617H59842436H68108060H75508254
61H82924799H91186226H99521577I06541305I12383175I17994371I23259559
54I27025876I29120662I31190075I34618464I38373943I40356775I40355146
47I40113385I41094965I43124408I44580616I44354140I43623406I44792869
40I48723013I53801069I58113494I61636797I65984055I72425661I79922083
33I83825413I80505468I74937750I72162097I71399474I71133217I72945207
26I79033912I87611902I94164208I96560209I96076624I94535903I93118413
19I93006585I95049372I98608698A002875703A008345063A014938905A020264486
12A019803454A008044600I80369458I40005504I06014242H97383501I10456601
5I30653864I49684107I65869784I77302552I82431040
##END=


$$ === CHEMSPECTRA PEAK TABLE EDIT ===
##TITLE=X8588
##JCAMP-DX=5.00
##DATA TYPE=INFRAREDPEAKTABLE
##DATA CLASS=PEAKTABLE
##$CSTHRESHOLD=0.93
##MAXX=3997.453
##MAXY=1.02156889035654
##MINX=373.96442
##MINY=0.5585513090390902
##$CSSOLVENTNAME=- - -
##$CSSOLVENTVALUE=0
##$CSSOLVENTX=0
##NPOINTS=33
##PEAKTABLE= (XY..XY)
382.46361135261895, 0.8537797892416052
474.5381843393275, 0.631410953476477
518.4506729945265, 0.6906763289835408
538.2821194839717, 0.6230331637559656
586.4442038154807, 0.6573818299824586
594.9433951680999, 0.5967457863857809
661.5203940969782, 0.8845121825169249
679.935308694292, 0.8182732435184799
730.9304568100074, 0.7546811076333613
749.3453714073494, 0.7683632935232635
821.5884979046127, 0.5654045914511393
883.9159011571537, 0.6471108767351728
943.4102406254883, 0.8402228317639191
950.4929000860043, 0.8456401194098516
961.8251552228303, 0.8322687715908207
990.1557930648942, 0.7315231533106186
1015.6533671227521, 0.5585513090390902
1036.9013455043246, 0.8919632996832664
1070.8981109147771, 0.8261038629790717
1087.8964936200155, 0.8286902277613488
1144.5577693041437, 0.7413175670861853
1219.6339595856134, 0.6411061855960517
1256.463788780297, 0.6581847040938978
1293.2936179749804, 0.7978239625124186
1330.1234471696635, 0.8561530676395177
1406.6161693432368, 0.6414260240071311
1419.3649563721656, 0.6039127087716519
1468.9435725957778, 0.8193936317459533
1536.9371034167316, 0.8035000527527946
1561.0181455824859, 0.6888167235962825
1592.1818472087566, 0.8167257872453071
1612.0132936982213, 0.8982495035775887
3045.543568506646, 0.863909122230856
##END=


$$ === CHEMSPECTRA PEAK TABLE AUTO ===
##TITLE=X8588
##JCAMP-DX=5.00
##DATA TYPE=INFRAREDPEAKTABLE
##DATA CLASS=PEAKTABLE
##$CSTHRESHOLD=0.93
##MAXX=3997.453
##MAXY=1.02156889035654
##MINX=373.96442
##MINY=0.5585513090390902
##NPOINTS=226
##PEAKTABLE= (XY..XY)
3993.2034043236904, 0.8954780067445617
3973.3719578342457, 0.8957574330572602
3963.456234589523, 0.8969109027677546
3954.9570432369037, 0.895934875811016
3949.290915668491, 0.8953599890700241
3936.542128639562, 0.8959258754708079
3926.62640539484, 0.8969283668528352
3915.2941502580143, 0.8966711131541485
3895.462703768569, 0.8941988909527866
3878.4643210633308, 0.8968754380022578
3871.381661602815, 0.8967775074506393
3861.465938358092, 0.8956724369269029
3850.1336832212664, 0.894053097809746
3840.217959976544, 0.8971419298936951
3834.5518324081313, 0.8971415122246305
3818.969981594996, 0.8955394592788523
3811.88732213448, 0.8958995309232006
3792.055875645035, 0.8960031832555814
3779.3070886161063, 0.8963877527603971
3763.725237802971, 0.89767676226653
3756.642578342455, 0.8987055382573239
3748.1433869898356, 0.8993833028828184
3741.0607275293196, 0.8991154989967566
3729.728472392494, 0.8971787057024062
3724.0623448240813, 0.8968792522056293
3714.146621579359, 0.8989120094867766
3708.480494010946, 0.8982813320534159
3698.564770766224, 0.8974573575672263
3687.2325156293978, 0.8965973817202041
3674.483728600469, 0.8986916505230724
3667.401069139953, 0.8986572589482473
3658.901877787334, 0.8988174164820346
3634.820835621579, 0.897239085046025
3624.905112376857, 0.898633774339611
3616.4059210242376, 0.8987619844712998
3605.073665887412, 0.8974823320841888
3586.6587512900705, 0.8985525334251947
3576.7430280453477, 0.8973742090754192
3563.994241016419, 0.8969747985233617
3548.412390203284, 0.8978774508249695
3541.329730742768, 0.8981704080931058
3531.414007498045, 0.8981503209701865
3512.9990929007035, 0.8966348729893631
3500.250305871775, 0.8986471854173673
3490.3345826270524, 0.89841186648015
3484.6684550586397, 0.8977627126612878
3474.7527318139173, 0.8976203759913949
3467.670072353401, 0.8971940243575535
3449.2551577560594, 0.8972837290168421
3440.75596640344, 0.8969239561152871
3425.1741155903046, 0.897565480575996
3418.0914561297886, 0.8975173201931906
3408.1757328850663, 0.8978133162654098
3399.676541532447, 0.897605356079041
3388.3442863956216, 0.8971814476665162
3375.595499366693, 0.8977018557097638
3365.6797761219705, 0.8974477616442518
3347.2648615246285, 0.8976129854371943
3331.6830107114934, 0.8972256739682687
3317.517691790461, 0.8987365922852728
3301.935840977326, 0.897368963951152
3296.269713408913, 0.8971504535774081
3286.3539901641907, 0.8988473973193116
3272.1886712431588, 0.8989551625978573
3263.6894798905396, 0.8988609282747494
3253.7737566458172, 0.8977922168420698
3241.024969616888, 0.8980536424743518
3226.859650695856, 0.8991875017184222
3216.9439274511337, 0.8993845549386021
3204.1951404222045, 0.8993189894581467
3191.446353393276, 0.9003730377572863
3177.281034472244, 0.9002696242288581
3163.115715551212, 0.899596568132295
3156.033056090696, 0.8997989854030134
3137.618141493354, 0.8981630175389052
3116.370163111806, 0.8987700904859482
3103.6213760828773, 0.8969364129286429
3079.5403339171226, 0.8905801138900458
3066.791546888194, 0.8955265248575911
3045.543568506646, 0.863909122230856
3010.1302712040656, 0.8903362122816849
3000.2145479593432, 0.8926233014808869
2983.2161652541045, 0.8912426197992338
2969.0508463330725, 0.8924307189370958
2960.5516549804533, 0.8917754256684066
2943.553272275215, 0.8928714359130941
2927.97142146208, 0.888827141603231
2919.4722301094607, 0.8905574646195388
2909.556506864738, 0.8916199766635506
2895.391187943706, 0.8945939507061367
2886.8919965910864, 0.8949985464436208
2876.976273346364, 0.8955786193214494
2851.4786992885065, 0.8934409586035477
2837.3133803674746, 0.8961340154736988
2828.8141890148554, 0.8975225053786171
2811.815806309617, 0.8982313839709011
2800.483551172791, 0.8995032871221774
2784.901700359656, 0.8992727956401627
2776.4025090070363, 0.8997422423490644
2769.3198495465203, 0.8996546231808685
2756.5710625175916, 0.9004145829851797
2742.4057435965597, 0.9005431498956823
2725.4073608913213, 0.9000316223149615
2708.408978186083, 0.8996028265083933
2699.909786833464, 0.9003418048642255
2695.660191157154, 0.900339719373133
2684.3279360203283, 0.9003135527392274
2674.412212775606, 0.9009877410138928
2667.3295533150895, 0.9011031356505917
2646.0815749335416, 0.9007112945178468
2627.6666603362, 0.901982184417292
2607.8352138467553, 0.9029290639720625
2593.6698949257234, 0.9048164448278238
2579.504576004691, 0.9046291673471406
2566.7557889757622, 0.9058418242843108
2554.007001946833, 0.9058222138178867
2546.924342486317, 0.9071662386171
2539.841683025801, 0.9065639940766697
2531.342491673182, 0.9055125079251178
2524.259832212666, 0.9055166208712827
2511.511045183737, 0.9092918601907105
2497.3457262627053, 0.9055967895464374
2483.1804073416733, 0.9054198824366073
2469.015088420641, 0.9074009020327101
2459.0993651759186, 0.9061978419699248
2447.7671100390926, 0.9055368269204732
2443.517514362783, 0.9054998722466501
2430.7687273338543, 0.9061132035697914
2422.269535981235, 0.9073377217375509
2413.770344628616, 0.9078495471096549
2399.605025707584, 0.9064574209150669
2381.1901111102425, 0.9080398044069905
2372.6909197576233, 0.9102413018930688
2350.0264094839717, 0.9088697994167358
2337.2776224550425, 0.9105104767611856
2325.945367318217, 0.9094054661762899
2308.9469846129787, 0.9024177751952944
2294.7816656919467, 0.906153854472125
2274.950219202502, 0.9116033283241086
2259.3683683893664, 0.9121921617867826
2242.369985684128, 0.9122199971941263
2228.2046667630957, 0.9167649111671112
2214.0393478420638, 0.9147534930646668
2204.1236245973414, 0.9133813940541572
2195.6244332447222, 0.9164306484264445
2184.2921781078967, 0.9179417456085606
2168.7103272947616, 0.9225833980162209
2158.794604050039, 0.920230325667499
2153.1284764816264, 0.9204176630870228
2144.629285129007, 0.9213350974484419
2136.1300937763876, 0.9195669853715919
2124.797838639562, 0.9173340761273409
2102.1333283659105, 0.9131340940086691
2083.718413768569, 0.9165960510844989
2072.3861586317435, 0.921001371303111
2063.8869672791243, 0.9190868695490437
2056.8043078186083, 0.9197568858901137
2048.305116465989, 0.9211254085497942
2036.9728613291632, 0.9293469748175712
2029.8902018686472, 0.9306151237043168
2021.391010516028, 0.9340212311003473
2012.8918191634086, 0.9286531170890513
2001.559564026583, 0.9287957515503275
1987.3942451055511, 0.9301949105688923
1980.311585645035, 0.9352019986714394
1973.228926184519, 0.9325873817641641
1964.7297348318998, 0.9298850258110114
1950.5644159108676, 0.9137417045024583
1936.3990969898355, 0.9210103117044784
1925.06684185301, 0.9245496954913531
1916.5676505003908, 0.9253994189423835
1906.6519272556684, 0.9256780708072037
1896.736204010946, 0.9246813021573489
1879.7378213057073, 0.9246101937612431
1872.6551618451913, 0.9249222239490573
1864.1559704925721, 0.9257797565747631
1857.0733110320562, 0.9250307646268916
1835.8253326505082, 0.9254333937995542
1821.6600137294758, 0.9149221143433264
1798.9955034558247, 0.923549231564398
1791.9128439953088, 0.923863347243305
1760.749142369038, 0.9314430322715592
1738.084632095387, 0.9321443404931206
1701.2548029007035, 0.9291346038936543
1681.4233564112587, 0.9436838593448064
1668.6745693823295, 0.9452189767794844
1613.4298255903045, 0.8961925471787674
1592.1818472087566, 0.8167257872453071
1561.0181455824859, 0.6888167235962825
1536.9371034167316, 0.8035000527527946
1468.9435725957778, 0.8193936317459533
1419.3649563721656, 0.6039127087716519
1406.6161693432368, 0.6414260240071311
1330.1234471696635, 0.8561530676395177
1310.2920006802187, 0.8998915519040934
1293.2936179749804, 0.7978239625124186
1279.128299053948, 0.9010531266778261
1256.463788780297, 0.6581847040938978
1219.6339595856134, 0.6411061855960517
1144.5577693041437, 0.7413175670861853
1117.6436633541825, 0.8910816278787274
1087.8964936200155, 0.8286902277613488
1070.8981109147771, 0.8261038629790717
1036.9013455043, 0.8919632996832664
1015.6533671227521, 0.5585513090390902
990.1557930648942, 0.7315231533106186
961.8251552228303, 0.8322687715908207
950.4929000860043, 0.8456401194098516
943.4102406254883, 0.8402228317639191
883.9159011571537, 0.6471108767351728
821.5884979046127, 0.5654045914511393
772.0098816810005, 0.8833745680569135
749.3453714073494, 0.7683632935232635
730.9304568100074, 0.7546811076333613
679.935308694292, 0.8182732435184799
662.9369259890536, 0.8792612517934474
594.9433951680999, 0.5967457863857809
586.4442038154807, 0.6573818299824586
538.2821194839717, 0.6230331637559656
518.4506729945265, 0.6906763289835408
474.5381843393275, 0.631410953476477
439.12488703674717, 0.8944334354421255
432.0422275762312, 0.8977729051184391
412.2107810867865, 0.923946019078617
399.4619940578573, 0.9447565638459695
382.46361135261895, 0.8537797892416052
##END=

##END=

