##TITLE=sgr-sml-991
##JCAMP-DX=4.24
##DATA TYPE=INFRARED SPECTRUM
##DATE=18/4/2019
##SAMPLING PROCEDURE=Diamant-ATR
##ORIGIN=Rieke
##XUNITS=1/CM
##YUNITS=TRANSMITTANCE
##RESOLUTION=4
##FIRSTX=3997.453
##LASTX=373.96442
##DELTAX=-1.4165319
##MAXY=1.026947
##MINY=0.4181087
##XFACTOR=1
##YFACTOR=9.5641894e-010
##NPOINTS=2559
##FIRSTY=0.99934244
##XYDATA=(X++(Y..Y))
3997+1044879388+1044821679+1045152975+1045550643+1045566909+1045066287
3989+1044402261+1044117954+1044422515+1044995553+1045330651+1045239414
3980+1044957662+1044784473+1044736985+1044607233+1044260793+1043789400
3972+1043390859+1043202775+1043303236+1043756058+1044486955+1045162822
3963+1045427809+1045303293+1045100564+1044894719+1044472434+1043875402
3955+1043559000+1043855273+1044563297+1045183699+1045375148+1045132721
3946+1044617766+1043982781+1043442398+1043254688+1043408371+1043590098
3938+1043585860+1043447820+1043333213+1043396281+1043658526+1043831902
3929+1043616460+1043203336+1043117209+1043640578+1044457975+1044887739
3921+1044598509+1043983778+1043759236+1044169493+1044797062+1045237918
3912+1045430302+1045381505+1045048401+1044434917+1043635717+1042882697
3904+1042550715+1042840630+1043525347+1044230941+1044670115+1044647430
3895+1044185572+1043614964+1043396219+1043643632+1043839505+1043567787
3887+1043130608+1043104870+1043442897+1043558190+1043427940+1043580501
3878+1044021980+1044196104+1043956918+1043637898+1043468199+1043396219
3870+1043354028+1043214367+1042778933+1042195736+1042069101+1042867677
3861+1044245026+1045351155+1045566909+1044789521+1043401454+1042310780
3853+1042525849+1043591843+1044305851+1044473805+1044366115+1044161641
3844+1043977421+1043959847+1044081372+1044028649+1043611163+1043111351
3836+1042839321+1042681276+1042501668+1042401020+1042468327+1042642762
3827+1042824240+1042823430+1042363441+1041561561+1041298070+1042342813
3819+1043820934+1044408368+1044072709+1043737487+1044045662+1044719037
3810+1045126053+1044940026+1044498858+1044390420+1044456417+1044225706
3802+1043983279+1044270203+1044703083+1044677157+1044302423+1043917032
3793+1043524724+1043018431+1042502915+1042099575+1041724592+1041351167
3785+1041294330+1041811654+1042624440+1043316199+1043896404+1044540800
3776+1045006397+1044865054+1044098884+1043220474+1042910367+1043363002
3768+1044022977+1044366925+1044480660+1044561116+1044429994+1043835891
3759+1042999984+1042595648+1042912299+1043502413+1043776686+1043451933
3751+1042718669+1042153483+1042065424+1042382137+1043108734+1044059996
3742+1044545972+1044320745+1043826605+1043578507+1043809529+1044335952
3734+1044858510+1045314573+1045566909+1045341184+1044673854+1044118951
3725+1044250323+1044876895+1045268455+1045161451+1044822676+1044472060
3717+1044199407+1044093711+1044124685+1044155471+1044229383+1044572708
3708+1045095827+1045373715+1045095765+1044286905+1043376962+1043052832
3700+1043539681+1044216608+1044403943+1044128922+1043969818+1044233683
3691+1044494558+1044121195+1043199223+1042424453+1042033515+1041869799
3683+1041926012+1042211753+1042372727+1041843500+1040699355+1040200354
3674+1041225715+1042477986+1042913421+1043273322+1044381820+1045491501
3666+1045566909+1044630604+1043364809+1042546975+1042411179+1042574022
3657+1042746027+1043103873+1043665319+1044023788+1044073208+1044226517
3649+1044678778+1044807096+1044315697+1043763412+1043605741+1043748891
3640+1043749327+1043323241+1042605681+1041898217+1041399403+1041108802
3632+1040848675+1040632173+1040971011+1042004225+1042826359+1043027467
3623+1042977860+1042858142+1042464899+1041860389+1041550967+1041636969
3615+1041754319+1041701970+1041406757+1040814711+1040281869+1040568482
3606+1041876467+1043377086+1044142321+1043939530+1043255312+1042837452
3598+1042947510+1043179156+1043072775+1042708074+1042516314+1042648870
3589+1042969073+1043457542+1044137834+1044666251+1044629856+1044037187
3581+1043179966+1042308350+1041588048+1041225030+1041283549+1041437232
3572+1041242604+1040653238+1040056642+1039948890+1040521118+1041345059
3564+1041841319+1041944584+1041997245+1042319879+1042895285+1043377647
3555+1043438160+1043103312+1042718731+1042514319+1042291585+1041727646
3547+1040903580+1040401836+1040697112+1041482663+1041965274+1041705086
3538+1040934616+1040191193+1039839829+1039894484+1040084001+1040110737
3530+1039964906+1039878842+1039891804+1039852293+1039899220+1040306361
3521+1040805612+1040812467+1040349612+1040067798+1040323375+1040768967
3513+1040941845+1040797635+1040522676+1040166950+1039713131+1039348493
3504+1039374668+1039833784+1040396041+1040709887+1040677294+1040352603
3496+1039888937+1039570354+1039570666+1039706650+1039672560+1039465905
3488+1039352980+1039491893+1039776511+1039997001+1040009341+1039833659
3479+1039665019+1039737436+1040167137+1040843503+1041375534+1041300749
3471+1040561253+1039671314+1039232389+1039426394+1040062251+1040831101
3462+1041379273+1041471321+1041262921+1041183462+1041468517+1041936482
3454+1042217112+1042094091+1041685455+1041371733+1041469888+1041859018
3445+1042025975+1041620704+1040778253+1039821693+1038874918+1037939922
3437+1037145146+1036667770+1036515833+1036548177+1036629568+1036722239
3428+1036908016+1037265425+1037658856+1037804810+1037632806+1037410009
3420+1037418547+1037684407+1038067928+1038430011+1038650065+1038636604
3411+1038385327+1037996571+1037650068+1037490714+1037476755+1037464789
3403+1037502306+1037810669+1038416862+1039068611+1039507909+1039552344
3394+1039048606+1038135110+1037380843+1037269165+1037701545+1038274397
3386+1038785862+1039231642+1039537324+1039581073+1039433124+1039376786
3377+1039606937+1039999245+1040270838+1040262300+1039929944+1039281685
3369+1038558579+1038249842+1038589365+1039166766+1039341388+1038933811
3360+1038262057+1037665025+1037288422+1037213450+1037451390+1037825501
3352+1038113547+1038288917+1038452696+1038646264+1038853418+1039015389
3343+1038957555+1038530971+1037859092+1037227971+1036824881+1036798020
3335+1037335224+1038338774+1039214690+1039295146+1038421847+1037051105
3326+1035926279+1035639230+1036277581+1037379285+1038343199+1038935681
3318+1039313593+1039561069+1039448393+1038806054+1037883646+1037080894
3309+1036543690+1036284935+1036384959+1036781692+1037148387+1037256389
3301+1037213201+1037176369+1037063756+1036676246+1035984238+1035285062
3292+1035088004+1035651819+1036595104+1037175060+1036992212+1036288861
3284+1035618104+1035383155+1035642346+1036213328+1036856353+1037351615
3275+1037561074+1037546491+1037507042+1037516453+1037511405+1037532282
3267+1037663156+1037732020+1037416615+1036687027+1035909889+1035527676
3258+1035712769+1036215447+1036520382+1036303319+1035761753+1035400168
3250+1035510351+1035944041+1036407021+1036865763+1037472579+1038094601
3241+1038294090+1037902155+1037259816+1036763931+1036496638+1036404528
3233+1036523373+1036888385+1037402094+1037879720+1038173624+1038223044
3224+1038035708+1037706842+1037424094+1037287611+1037146455+1036839651
3216+1036546370+1036599218+1036981492+1037316778+1037316778+1037002744
3207+1036571049+1036259570+1036260692+1036556528+1036887887+1037020381
3199+1036979249+1036947216+1037030913+1037182601+1037253896+1037124643
3190+1036904153+1036929081+1037367008+1037919730+1038143959+1037978436
3182+1037734824+1037648136+1037654368+1037570111+1037362895+1037212079
3173+1037315843+1037608874+1037732643+1037414559+1036853922+1036563259
3165+1036770475+1037156551+1037285056+1037099652+1036834977+1036623336
3156+1036420108+1036210461+1036101463+1036250409+1036725417+1037350181
3148+1037777576+1037880405+1037912625+1038137852+1038504048+1038806802
3139+1038941726+1038918543+1038793839+1038608560+1038367504+1038162282
3131+1038196932+1038487159+1038680229+1038373237+1037507790+1036412318
3122+1035520759+1034996829+1034655437+1034392381+1034449654+1034970218
3114+1035617356+1035968969+1035979563+1035833359+1035696815+1035741000
3105+1036047244+1036400602+1036450894+1036179675+1035995206+1036242307
3097+1036742368+1036948525+1036508167+1035534407+1034409519+1033494216
3088+1032962746+1032687039+1032287439+1031523139+1030656383+1030188418
3080+1030214904+1030372201+1030426919+1030475155+1030569134+1030633948
3071+1030710789+1030875253+1031044080+1031158438+1031334993+1031648902
3063+1032000889+1032238455+1032203057+1031767747+1031040154+1030409843
3054+1030218145+1030413333+1030602975+1030450289+1029978833+1029404735
3046+1028725877+1027708617+1026293814+1024763343+1023457352+1022510203
3037+1021840754+1021219417+1020408190+1019458485+1018769157+1018622142
3029+1018777445+1018793711+1018589237+1018426082+1018442846+1018427577
3020+1018033773+1017096221+1015724295+1014126019+1012403664+1010503383
3012+1008239710+1005302226+1001316883+995993579+989272671+981359507+972566937
3002+963116074+953249469+943520593+934702472+927338166+921539230+917094646
2992+913490456+909891252+905348576+899115327+890862516+880845968+869962166
2982+859547265+851050967+845754023+844478382+847372615+854010948+863652201
2972+875313266+887783564+899860121+910602580+919354517+925735279+929711336
2962+931525178+931498505+929949650+927230787+923767691+920093141+916857454
2952+914768216+914449633+916201093+919766270+924412398+929312359+933811536
2942+937413170+939738478+940642501+940307590+939155469+937675852+936320315
2932+935445022+935241857+935723221+936832903+938574515+941005083+944102419
2922+947650520+951265803+954569794+957402828+959912294+962376078+964897883
2912+967349390+969623782+971746860+973688148+975336155+976748029+978146504
2902+979576701+980799556+981608790+982125677+982738850+983748819+985047518
2893+986203442+986906232+987260275+987631395+988313182+989365778+990681305
2883+992133937+993633184+995017637+995962044+996146638+995611304+994852238
2873+994431200+994520194+994893869+995273588+995577464+995896545+996331232
2863+996904520+997622765+998467584+999255753+999732817+999915043+1000083184
2853+1000374284+1000678845+1000907312+1001067476+1001163138+1001274568
2844+1001631665+1002450558+1003769575+1005436590+1007166237+1008712848
2836+1010105091+1011586952+1013237015+1014823948+1016155740+1017380777
2827+1018738869+1020172555+1021429500+1022413917+1023183328+1023714798
2819+1023940337+1023928807+1023844051+1023774003+1023730316+1023763720
2810+1023974239+1024395091+1024918210+1025377513+1025693230+1025907488
2802+1026092269+1026265271+1026417458+1026574942+1026773496+1027000530
2793+1027236663+1027512618+1027844787+1028201448+1028608465+1029136196
2785+1029699948+1030029874+1029932217+1029484257+1028972791+1028687363
2776+1028714098+1028887225+1029004263+1029056301+1029147725+1029265885
2768+1029293867+1029236594+1029241081+1029346590+1029398067+1029292434
2759+1029140184+1029091574+1029135448+1029140496+1028992484+1028687612
2751+1028338803+1028082728+1028004952+1028158260+1028528320+1028941382
2742+1029135635+1028964378+1028474475+1027859807+1027412407+1027392900
2734+1027813253+1028358683+1028616504+1028432970+1028022339+1027691354
2725+1027549575+1027550572+1027693847+1028054746+1028641744+1029296796
2717+1029789316+1030055176+1030262517+1030537164+1030760833+1030797602
2708+1030760085+1030860546+1031111636+1031342035+1031422990+1031354063
2700+1031216272+1031131329+1031201502+1031418939+1031671649+1031855433
2691+1031935452+1031946171+1031971411+1032058224+1032135252+1032090381
2683+1031904541+1031647344+1031398871+1031209604+1031063275+1030898437
2674+1030715713+1030597116+1030587893+1030664921+1030810876+1031018529
2666+1031222068+1031288439+1031112321+1030752482+1030453343+1030428539
2657+1030609020+1030704744+1030550376+1030317671+1030305767+1030557605
2649+1030834807+1030975901+1031065581+1031206238+1031357304+1031424298
2640+1031336364+1031086707+1030852070+1030925359+1031374878+1031912331
2632+1032232223+1032345210+1032446855+1032588448+1032628707+1032443428
2623+1032051618+1031627152+1031483067+1031854124+1032547753+1033021389
2615+1032984309+1032719820+1032684110+1032964241+1033275284+1033363280
2606+1033253472+1033147963+1033239948+1033641355+1034325574+1035058651
2598+1035504369+1035462489+1034993526+1034335981+1033756212+1033466920
2589+1033625214+1034249044+1035059212+1035598597+1035677745+1035555783
2581+1035539019+1035617979+1035674442+1035821082+1036251468+1036875360
2572+1037388633+1037630562+1037619656+1037397483+1037141968+1037178488
2564+1037496012+1037519320+1036767608+1035557216+1034732029+1034802825
2555+1035503621+1036128011+1036268544+1036212580+1036548302+1037453010
2547+1038519441+1039211138+1039307860+1038903025+1038155613+1037186964
2538+1036165778+1035349751+1034990846+1035213892+1035909577+1036697123
2530+1037118099+1036992087+1036522688+1036013715+1035632001+1035470840
2521+1035602960+1035957190+1036353612+1036729094+1037119346+1037427521
2513+1037476069+1037314160+1037213886+1037323882+1037476381+1037417675
2504+1037167831+1037015644+1037086814+1037127136+1036907456+1036626015
2496+1036660853+1037082265+1037605945+1037919979+1037940296+1037770846
2487+1037498878+1037161973+1036894057+1036873615+1037103516+1037417114
2479+1037614359+1037472454+1036896799+1036173692+1035733459+1035601028
2470+1035426343+1035023253+1034563888+1034275842+1034188343+1034199374
2462+1034261757+1034372937+1034364960+1033942364+1033124405+1032420245
2453+1032304827+1032653947+1032925852+1032808564+1032526564+1032544886
2445+1033063830+1033822895+1034354989+1034394189+1034046876+1033623843
2436+1033346392+1033213836+1033115431+1033045071+1033175134+1033669836
2428+1034385775+1034852432+1034694076+1034020950+1033245806+1032614685
2419+1032129145+1031854311+1031968794+1032422488+1032827198+1032890516
2411+1032786004+1032874313+1033201060+1033520453+1033703676+1033824640
2402+1033913696+1033923979+1033869075+1033754218+1033500698+1033160053
2394+1033021639+1033304637+1033915067+1034590810+1035040080+1034940741
2385+1034145342+1032935948+1031857676+1031327078+1031481945+1032210598
2377+1033148524+1033829751+1034014033+1033830810+1033628766+1033734213
2368+1034139546+1034410517+1034273162+1034142787+1034481811+1034888828
2360+1034643347+1033928778+1033577788+1033760263+1033768552+1033064765
2351+1031906785+1030899745+1030420437+1030540529+1031092067+1031702498
2343+1032046508+1032140425+1032215023+1032379113+1032519147+1032513165
2334+1032456204+1032514598+1032642916+1032659680+1032492038+1032137683
2326+1031556106+1030803834+1030102914+1029633390+1029392832+1029336370
2317+1029497032+1029931532+1030640429+1031506250+1032261825+1032609325
2309+1032454334+1032022826+1031686731+1031619611+1031720134+1031940999
2300+1032409899+1033058034+1033501944+1033600348+1033737952+1034222807
2292+1034792542+1035061144+1035130008+1035422479+1036042694+1036512904
2283+1036239378+1035297713+1034538399+1034668088+1035487542+1036304254
2275+1036696002+1036568618+1035926279+1034971776+1034239010+1034424040
2266+1035896677+1038130934+1039886694+1040388811+1039987404+1039340329
2258+1038542625+1037456438+1036304566+1035565318+1035599096+1036400228
2249+1037459180+1038015080+1037724666+1037034216+1036772282+1037425402
2241+1038726408+1039849738+1040172060+1040011896+1040338207+1041516628
2232+1042781550+1043308471+1043250575+1043177972+1043054390+1042396658
2224+1041177791+1040133733+1040004542+1040523798+1040564618+1039627440
2215+1038618157+1038606067+1039349428+1039695806+1039192691+1038723417
2207+1039357654+1040867870+1041897906+1041479049+1039674430+1037008166
2198+1034402976+1033363779+1034778271+1037570921+1039652057+1040061129
2190+1039349490+1038341827+1037529540+1037384458+1038213572+1039547420
2181+1040281433+1039679166+1038058954+1036505986+1035949837+1036411632
2173+1037210334+1037768478+1037799949+1037061263+1035620410+1034173698
2164+1033482874+1033587261+1034090687+1035198686+1037823756+1041945145
2156+1045374089+1045566909+1042547848+1039003050+1037376418+1037314908
2147+1036912877+1035734020+1034996206+1035124088+1035185972+1034886709
2139+1035226045+1036799205+1038818456+1040108742+1040200541+1039394922
2130+1038313721+1037438864+1036920979+1036755954+1036877417+1037071982
2122+1037154993+1037155803+1037001248+1036382279+1035345451+1034503748
2113+1034217572+1034114743+1033831807+1033638675+1033867641+1034232155
2105+1034206167+1033775532+1033346766+1033078039+1032727610+1032183301
2096+1031770427+1031820720+1032124346+1032132012+1031679751+1031221507
2088+1031255846+1031764943+1032407157+1032979136+1033378113+1033402667
2079+1032969663+1032343279+1031883414+1031747119+1031953151+1032578851
2071+1033749668+1035363399+1036825753+1037325752+1036593671+1035297651
2062+1034513470+1034748232+1035404905+1035371127+1034346139+1033263879
2054+1033220878+1034515589+1036788610+1039273085+1040809725+1040578640
2045+1039028975+1037503366+1036970212+1037255579+1037417114+1036969776
2037+1036515583+1036933319+1038226472+1039425147+1039544616+1038749218
2028+1038481239+1039947581+1042622944+1044836823+1045566909+1045049087
2020+1043905191+1042595959+1041705771+1041879708+1042754254+1042902826
2011+1041968453+1041700474+1043277373+1044938156+1044535066+1042906565
2003+1042231446+1042855774+1043695919+1044150423+1044123501+1043217171
1994+1041189569+1038901778+1037868627+1038593790+1040042682+1041056141
1986+1041375970+1041098207+1040208829+1039124450+1038672376+1038836840
1977+1038500620+1037363954+1036955131+1038576963+1041536134+1044206138
1969+1045801983+1046436033+1046173787+1044951368+1043182833+1041724779
1960+1041202220+1041558321+1042256561+1042798501+1042977860+1042728266
1952+1042027657+1041145883+1040625567+1040585059+1040389061+1039527104
1943+1038511153+1038336094+1039206277+1040466089+1041468828+1041817014
1935+1041336085+1040380710+1039725221+1039776760+1040245661+1040683401
1926+1040883637+1040733569+1040177918+1039498062+1039212509+1039523552
1918+1040052529+1040295642+1040304118+1040494694+1040929131+1041236497
1909+1041168193+1040914237+1040775199+1040759806+1040642145+1040358710
1901+1040164582+1040208642+1040260057+1040182031+1040254448+1040645012
1892+1041082191+1041350294+1041516940+1041574399+1041408003+1041122076
1884+1040962161+1041033394+1041269776+1041496997+1041433243+1040914299
1875+1040219362+1039903957+1040223537+1040918724+1041494255+1041612290
1867+1041441968+1041486901+1041995687+1042770083+1043433486+1043732314
1858+1043596455+1043111850+1042537316+1042182773+1042155103+1042261110
1850+1042241479+1042157097+1042436294+1043401329+1044731563+1045566909
1841+1045487263+1044718413+1043862065+1043407436+1043315763+1043162142
1833+1042777998+1042358206+1042027034+1041604500+1040876907+1039933871
1824+1039111861+1038614792+1038291909+1037918857+1037456126+1036997447
1816+1036662909+1036516892+1036529668+1036639227+1036779262+1036864143
1807+1036875236+1036874363+1036883213+1036911880+1037044312+1037274960
1799+1037409947+1037334851+1037137855+1036981991+1037046181+1037307305
1790+1037358595+1036994393+1036556964+1036443541+1036668767+1036933817
1782+1037104950+1037411567+1038012650+1038605008+1038830795+1038862329
1773+1039242049+1040067112+1040671498+1040672183+1040438232+1040379089
1765+1040530840+1040745722+1040898657+1040868244+1040621828+1040301749
1756+1039936613+1039200793+1037774273+1035730530+1033395251+1030946237
1748+1028131462+1024330838+1018898285+1011475273+1001445887+987232605+968268994
1738+946473034+920739531+882221322+823714141+757388522+696997575+639944271
1728+584705371+535619326+495420797+465155119+446493357+440373626+448789749
1718+477233015+527079902+586039968+641485399+690746814+734403422+772432788
1708+805135546+833865239+858691602+877649791+891233324+903273984+915546539
1698+925306326+932140594+938354025+943770437+947444301+950149578+952723421
1689+954954188+956648001+958681523+962118258+965974971+968680310+970612873
1679+972570178+974977375+978055204+981401200+984104233+986115196+988237338
1669+990499827+991912262+992348195+992645340+993554099+995128693+996804620
1659+998109302+998929068+999491076+1000716673+1003832706+1007219708+1008704996
1649+1009109208+1009900493+1011621290+1013338099+1014366265+1014916432
1640+1015280322+1015651878+1016277577+1017405643+1018784363+1019710323
1632+1020004227+1019968642+1019896724+1019789720+1019456803+1018847868
1623+1017940479+1016528231+1014402349+1011259581+1006437771+999672304+992170519
1613+985275799+979708509+976539379+976891865+980674977+986413462+992431892
1604+997857963+1002621878+1006839178+1010458574+1013414255+1015769352
1595+1017647884+1019146259+1020320255+1021249643+1022047534+1022753689
1587+1023325170+1023791328+1024240037+1024612652+1024698280+1024377391
1578+1023721654+1022796192+1021399275+1019202161+1015780757+1010158251
1570+1001375278+990173703+978029154+965560414+953901218+944660750+938988013
1560+939431798+948215581+959350910+968718949+977222601+984800729+990766372
1550+995152998+998224533+1000137216+1001317320+1002449187+1004196222+1007226937
1540+1011448974+1014934630+1016810419+1018077273+1019810971+1022119203
1531+1024042106+1025125364+1025870532+1026780849+1027778354+1028484883
1523+1028781342+1028805959+1028643925+1028125729+1026917643+1024696473
1514+1021234686+1016424966+1010423986+1003366983+993891005+978588358+958618704
1504+940560114+924728987+908673195+892262674+878018730+869887444+869885262
1494+875570525+883850072+894227145+906952086+920039047+930367011+937215053
1485+941641065+944785765+947535102+950400481+953443349+956349734+958414043
1475+958551959+955892799+951235640+946742010+943218401+939944573+936023732
1465+931188397+926138306+921686431+917914225+914434178+910734700+906382413
1455+901233419+895167875+887951020+879502584+870261492+861381236+854019112
1445+847833414+840758587+830612413+816748001+799918187+782323822+770434913
1435+771934285+786923335+811648054+842981503+875584921+903141303+923772365
1425+939102184+950168025+956808539+958719913+954975003+944366596+927325515
1415+904666538+876676031+845165716+813798988+785248094+758679183+731256542
1405+703573026+682472191+674804072+681818073+700581947+724982660+747791704
1395+764153054+772131717+773818239+774737094+779057099+785948329+789456358
1385+783511218+767261110+744420967+721523615+706027961+701217368+702416292
1375+700722604+693108953+688506325+698552226+725524102+761769290+795903491
1366+820515471+833833954+835721521+826456997+807513328+779964487+743771212
1356+699535770+649946859+599147557+551128691+509304714+476847998+456415209
1346+449649524+456911500+477581450+510840794+554723470+603698772+650266066
1336+689878002+721489962+744850357+759403411+764706213+760937621+749184633
1326+731427799+710275113+688600553+669142864+654336913+646277856+646166178
1316+653713519+667292876+684110787+700351609+712224752+717116798+713769244
1306+702121703+683219415+658925457+631593866+603722267+577381636+553777069
1296+533291276+515862093+501550593+491046573+485487073+485439304+489961789
1286+496946001+504794756+513710098+524888895+538267330+551249032+559893342
1276+561584101+556959161+549736822+544822402+546019956+554505161+568576165
1266+584313125+596568417+600428745+593310232+576839758+556939530+540959520
1256+533055268+531125010+527899169+516034066+493831340+467304028+447258780
1247+443719247+461178750+497016673+543558727+592296337+637443967+676855667
1237+710713289+739781943+764530718+785149066+801781013+814639943+824141286
1227+830935234+835541228+837936646+837663869+834196161+827156110+816795427
1217+804826000+794449239+788825548+789038062+793186622+797104659+795963132
1207+785762364+764296766+731770998+691116189+647639625+607882606+578185136
1197+563349831+565348081+582509129+610099413+642340375+674683045+704926381
1187+732750866+758434886+781871001+802435380+819450411+832556007+841618924
1177+846408826+846380782+840693587+828667011+810826107+789895718+770536870
1167+757405162+752734479+755300469+761468842+767277936+769899953+767766842
1157+759946723+745676915+724343686+695726607+660421651+620353964+578982093
1147+540939889+511291652+494586510+493702741+508792002+537049336+573678356
1137+613435811+651755467+685166561+711387100+729336629+739081459+741702229
1128+738761754+731016233+717115738+693936135+659081196+613810047+563842788
1118+517132281+480206271+455690732+442376736+437160623+437286853+441795004
1108+451668620+468615971+493347015+524736770+560267702+596980295+632301392
1098+664555940+693015722+717621159+738721371+756864468+772516734+785886818
1088+797113321+806591357+814883679+822175444+827994946+831628613+832637210
1078+830808411+825735822+816504577+801577349+778914073+746619328+704240542
1068+654275340+602943321+559269699+532295517+527555284+544745250+578024037
1058+618876902+659732509+696111188+726589473+751547645+771931543+788567790
1048+802024874+812746330+821115120+827424275+832041861+835681512+839323343
1038+843760573+849256568+855560364+862180000+868740370+875101874+881120927
1028+886521758+891142709+895058191+898280480+900509253+901244574+899985573
1018+896226080+889394117+879125295+865917992+851451252+838028133+827741488
1009+822064887+821643101+826035647+833846418+843358916+853106488+862105901
999+869907822+876459592+881795049+885804822+888205413+888647765+886974144
989+883525132+879202323+875152229+872314085+871182404+871852351+874151110
979+877713483+882062965+886649952+890705281+893063743+892173680+886087072
969+872333155+848702101+815977407+780864896+754945803+748378328+763176241
959+792210868+824466288+851411242+869869558+881097868+888352427+894780490
949+902223195+910927520+920027144+928391883+935291776+940626921+944766570
939+948150269+950961616+953171818+954779753+955867186+956483350+956617526
929+956327112+955896227+955812842+956452688+957732006+959142509+960155033
919+960517116+960105488+958551024+955143643+949175319+940438526+929657366
909+918662758+909859531+904955893+904018404+905790055+908766988+911845316
899+914090043+914137407+910300449+902146666+892438854+886700681+889559017
890+901085283+916959223+932060450+943650470+951708778+957393106+961650292
880+964843228+967024326+968166912+968158312+966827330+963980648+959128051
870+951086008+937998548+917763222+888495141+849106064+800378986+746295261
860+694368641+653833486+632195821+632248046+651424731+683614590+721886196
850+760545624+796085966+827163900+853662513+875488948+892269903+903931778
840+910886762+913508591+912000494+907131258+900912904+896236924+895561305
830+899694722+907678433+917663633+927832057+936809969+943762273+948387649
820+950858974+951656242+951086195+948600162+942675089+931627135+914372106
810+890477499+861185799+832344677+814913967+818437078+842413201+876087849
800+907430771+930722177+946241887+956227087+962584603+966563589+968649960
790+968445735+964971733+957348298+945629088+931572043+918665002+910341207
781+906659927+902176642+887964107+857482270+812289146+763063191+724793766
771+709439954+720721860+753361612+796293431+838209673+872556886+898579930
761+918388859+933849925+945909655+955151682+961877451+966137378+968335428
751+969505872+970618794+971936751+973315034+974651625+975562877+974719305
741+969387338+955393237+928928962+890545179+846417240+802428649+757871009
731+710193099+666806775+646110151+662372599+711397757+773721018+830346117
721+873206205+903407537+924570319+939332210+949557096+956802930+962013871
711+965648909+968316981+970802515+973456751+976016198+978094030+979538685
701+980397214+980926379+981519921+982262533+982816689+982973799+982777489
691+981929056+979733624+975572786+968653325+957980416+944530312+933384078
681+930878726+938020111+948547190+954596779+952349497+941981336+925550623
671+905130142+880897071+854406123+835852831+832449812+837565527+842314360
662+839739645+824919796+797371391+762591237+731633270+717295907+727322987
652+759568312+803676807+847750341+884071871+910629128+929058776+941890659
642+951179614+958241103+963775987+968102660+971281449+973329430+974640220
632+975998312+977978488+980465767+982780543+984261219+984927863+985590394
622+987089454+989449911+991838537+993224423+993129135+991999137+990980194
612+991143225+992598599+994401099+995602080+996155986+996534958+996923964
602+997249215+997646758+998417291+999552586+1000576016+1001010764+1000886372
592+1000474869+999579758+997642583+994439239+989748115+982461212+971548618
582+958775503+949225986+947531799+953950763+964884609+976214938+985609651
572+992578345+997393238+1000262169+1001266528+1000837077+999993255+999692434
562+999760114+998770088+995504798+990582090+986196026+984144181+984487380
552+986195465+988449166+990766933+992395621+992669271+991976577+991317411
543+990909710+990328944+989744376+989792799+990490167+991346578+992188841
533+992905404+992783754+990968790+987265012+981871222+974810605+966543771
523+958832589+953896607+952672255+954396294+957896346+962462642+967387780
513+971962614+975967089+979397280+982112964+984339182+986961635+990687786
503+995173501+999177166+1001611535+1002342557+1001898086+1000910864+999841754
493+998797011+997672435+996727404+996757505+998304989+1000846674+1003181143
483+1004827218+1006622863+1009528127+1013187533+1016091737+1017355039
475+1017952819+1019503855+1021945889+1023431613+1022666939+1019998992
466+1016780380+1014522877+1014101216+1015312293+1017113173+1018291095
458+1018277447+1017704907+1017500932+1017842075+1018709952+1020141831
449+1021307601+1020882574+1019150060+1018290223+1019509962+1021084992
441+1020529216+1018027790+1016415493+1017936054+1021430871+1023745959
432+1023430055+1021381202+1019267286+1018353291+1018757565+1019463284
424+1019586367+1019352042+1019895166+1023233683+1030270245+1037907203
415+1043024351+1045417776+1045566909+1044936162+1042098391+1040075276
407+1041773638+1045566909+1047525148+1045254558+1040933930+1035812046
398+1028959641+1022111911+1018663772+1017546550+1016217064+1015243678
390+1016676429+1021034699+1028021093+1038090987+1050644795+1062355343
381+1070285894+1073741823+1071932281+1062986526+1049902058+1045566909
##END=
